Time [s]	GRFml [N]	GRFap [N]	GRFv [N]	Mml [N.m]	Map [N.m]	Mv [N.m]	Mfree [N.m]	COPml [m]	COPap [m]
0.01	17.3091607776402	-2.03348556256343	765.00503246643	-80.1511012060781	4.13272481371047	-1.05183233242495	0.772647981156842	-9.66001643978275e-05	0.000241564319175186
0.02	17.9698230742191	-1.85995597297088	765.108802316536	-80.2348823311097	4.17409262494209	-1.34646488412092	0.548132512435402	-4.18118896650423e-05	0.000337942608293701
0.03	18.6187785858707	-1.68893300739854	765.213194365258	-80.3169602183604	4.21453612224083	-1.63584730319079	0.327714571173795	1.1705207651677e-05	0.00043195998279362
0.04	19.2444923223124	-1.52304710478099	765.31772620567	-80.3958804959485	4.25311714076046	-1.91491867940236	0.115213551701866	6.27095866822429e-05	0.000521766726576611
0.05	19.8362260046427	-1.36479706319004	765.421809795142	-80.4702801739003	4.2889383781278	-2.17897797485845	-0.085832213035849	0.000110018386445763	0.000605650996334042
0.06	20.3844405303247	-1.21647067215917	765.524726232945	-80.5389373309336	4.3211789375598	-2.4238598762358	-0.27229638466586	0.000152554086035939	0.000682107042815933
0.07	20.8811367235831	-1.08007190605539	765.625616008678	-80.6008152738639	4.34912646077122	-2.64608345750563	-0.441574560801723	0.000189386252697495	0.000749893787979947
0.08	21.3201180930229	-0.95725766077784	765.723487052614	-80.6550988866723	4.37220435414829	-2.84296646438796	-0.591668078185848	0.000219766515333227	0.000808080577799131
0.09	21.6971643768652	-0.849286878752704	765.817240836996	-80.701221110809	4.38999292180928	-3.01270017900829	-0.721238141044012	0.000243155332668131	0.000856077515694345
0.1	22.01011020869	-0.756984575199702	765.905714768033	-80.7388778945638	4.40224357755043	-3.15438222075168	-0.829628500090697	0.000259239596994397	0.000893648557874549
0.11	22.2588288725221	-0.68072274258665	765.987737388477	-80.7680305118688	4.40888568907785	-3.2680071167142	-0.9168567034183	0.000267940597022053	0.000920906488821843
0.12	22.44512644891	-0.620419388476517	766.062191639081	-80.7888948501697	4.41002598847792	-3.35441686403037	-0.983575657633292	0.000269412332575634	0.000938289941265602
0.13	22.5725563483795	-0.575556095560303	766.128080699277	-80.8019180539133	4.40594084145773	-3.41521585324084	-1.03100877615044	0.000264030610109809	0.000946523712276978
0.14	22.6461680226877	-0.54521353890682	766.184590773158	-80.8077437222054	4.39706198711965	-3.45265629889509	-1.06086326915909	0.000252373735756982	0.000946564677252723
0.15	22.6722063601175	-0.528123421506522	766.231145575897	-80.8071676273404	4.38395662681806	-3.46950163624813	-1.07522708476968	0.000235195949773082	0.000939536535198529
0.16	22.6577798205662	-0.522734365462133	766.267448126025	-80.8010865772699	4.36730294626534	-3.46887613453732	-1.07645560394895	0.000213395003625784	0.000926657355473454
0.17	22.6105157477645	-0.527288490266917	766.293506640147	-80.7904435298024	4.347862294961	-3.45410923028981	-1.06705440670811	0.000187975462094123	0.000909164374360505
0.18	22.5382205852263	-0.539904780955653	766.309642716149	-80.776172333696	4.32644932041232	-3.42858281801079	-1.04956426985406	0.000160009413977836	0.000888240665219184
0.19	22.4485610586432	-0.558664944552733	766.316481431097	-80.7591454947433	4.30390136391681	-3.39558900285643	-1.02645405508454	0.000130596295852841	0.000864948158514053
0.2	22.3487799567723	-0.581697304704275	766.314924334077	-80.7401281376815	4.28104837497613	-3.35820469941478	-1.00002634725707	0.000100823476736836	0.000840171024269573
0.21	22.2454571614267	-0.607254405763336	766.306107469955	-80.7197408733398	4.2586844999361	-3.31918805031993	-0.97233966950742	7.17291241469006e-05	0.000814572682439493
0.22	22.1443232733692	-0.633780384788258	766.291347449256	-80.6984336212805	4.23754235604684	-3.28090004671281	-0.945149909927812	4.42686838908867e-05	0.000788568732855516
0.23	22.0501297795703	-0.659964800898851	766.272079142196	-80.6764716347474	4.21827082479067	-3.24525307088085	-0.919872326279231	1.92860699765839e-05	0.000762316971007079
0.24	21.9665764158891	-0.68478044761662	766.249788819618	-80.6539340925971	4.20141699864354	-3.21368645639619	-0.897564234663296	-2.50960780619983e-06	0.000735724466092783
0.25	21.896293376825	-0.707503662306098	766.225946520768	-80.6307247339221	4.18741270417562	-3.18716766821307	-0.878927314598344	-2.056123693736e-05	0.000708470515222173
0.26	21.8408734532343	-0.727716723668566	766.201941151847	-80.6065931869089	4.17656581197605	-3.16621642365251	-0.864327445630759	-3.44745614808406e-05	0.00068004324065872
0.27	21.8009471413118	-0.745293022414688	766.179021376878	-80.5811649491488	4.16905633992862	-3.15094806419959	-0.85382918348676	-4.40227278218968e-05	0.000649786743249323
0.28	21.776292320443	-0.760366728436844	766.158244822062	-80.5539774648288	4.16493716928434	-3.14113178473405	-0.847241422417107	-4.91447866327937e-05	0.000616955125419538
0.29	21.7659692609421	-0.77328958951433	766.140437536317	-80.5245194507882	4.16413902965033	-3.13625894589344	-0.844170490402561	-4.99386362119584e-05	0.000580769390444422
0.3	21.7684714745133	-0.784578219365163	766.126165079	-80.4922705644227	4.16647927453712	-3.13561662997233	-0.844076881223347	-4.66490668511888e-05	0.000540473225903282
0.31	21.7818832075271	-0.794855717218497	766.115716067295	-80.456738677265	4.1716738666942	-3.13836182525917	-0.846332020444087	-3.96516958806404e-05	0.000495383978094024
0.32	21.8040351215062	-0.804791674639568	766.109098519012	-80.4174923945585	4.17935192345911	-3.1435920964759	-0.850271855390314	-2.94336674213653e-05	0.00044493568706952
0.33	21.8326508105039	-0.815044555764601	766.10604886668	-80.3741870023114	4.18907213636179	-3.15040926689812	-0.855244606577175	-1.65720307626445e-05	0.000388711825132879
0.34	21.8654781655754	-0.826210093498398	766.106053083574	-80.326582675818	4.20034037436096	-3.15797344055075	-0.86065066880947	-1.71070964698292e-06	0.000326466296250563
0.35	21.9004011045632	-0.838778756707526	766.108378939592	-80.2745544869853	4.21262780319246	-3.16554556773613	-0.865973352235887	1.44630639401086e-05	0.000258132231970506
0.36	21.93552873827	-0.853104560846834	766.112117989139	-80.2180944401819	4.22538890025962	-3.17251764285014	-0.870799857561287	3.12420479249243e-05	0.000183819080658579
0.37	21.9692605500572	-0.869386580327137	766.11623548958	-80.1573063900091	4.23807881046441	-3.1784304641859	-0.874832541494878	4.79213114378887e-05	0.000103799354947809
0.38	22.0003275487191	-0.887663548081491	766.119626074854	-80.0923952006681	4.25016956808569	-3.18297963392391	-0.877891112050119	6.38189824935754e-05	1.84871112767493e-05
0.39	22.0278105561088	-0.907820971988246	766.121172691871	-80.0236518594007	4.26116479776961	-3.18601109620265	-0.879906871098722	7.82949468816239e-05	-7.15892652794481e-05
0.4	22.0511377728176	-0.929609331219817	766.119806080698	-79.9514364348477	4.27061259847924	-3.18750797753336	-0.88091047561144	9.07671463774391e-05	-0.00016581713948445
0.41	22.0700645074872	-0.952671200603255	766.114561975942	-79.8761607700527	4.27811640276669	-3.1875707947476	-0.88101491064395	0.000100725242063198	-0.000263529729665715
0.42	22.0846384552788	-0.976574635235553	766.104633252347	-79.7982726296707	4.28334368554696	-3.18639323091718	-0.880395456530638	0.000107741514361715	-0.000364033632694868
0.43	22.095154179864	-1.00084986001179	766.089414446277	-79.7182427058437	4.28603246818175	-3.18423565967039	-0.879268398065388	0.000111478960646127	-0.0004666316105775
0.44	22.1021005126727	-1.02502625841439	766.068536454831	-79.6365554622321	4.28599562285428	-3.18139844225663	-0.877870079589235	0.000111696621333357	-0.000570639086786076
0.45	22.1061044614167	-1.04866683106578	766.041889727518	-79.553704303433	4.28312302804244	-3.17819675539536	-0.876437677165025	0.000108252215782163	-0.000675393512877071
0.46	22.1078749488159	-1.07139766864139	766.009634888186	-79.4701910436846	4.27738165892089	-3.17493836140164	-0.875192761493201	0.000101102201903001	-0.00078025651756719
0.47	22.1081493143227	-1.09293051319909	765.972200412855	-79.3865291603657	4.26881371861625	-3.17190533714807	-0.874328389090702	9.02993918830176e-05	-0.000884609475016174
0.48	22.1076450375653	-1.11307711493987	765.930267691454	-79.303249896383	4.25753293035696	-3.16934036652558	-0.874000111014529	7.59882659614793e-05	-0.000987843765082694
0.49	22.107018610988	-1.13175477203604	765.884744468123	-79.2209099559433	4.24371912036582	-3.16743780126853	-0.874320953152653	5.83981325710187e-05	-0.0010893474941723
0.5	22.1068329269901	-1.14898311491593	765.83672824051	-79.1400993454984	4.22761123074082	-3.16633933244298	-0.875360121943204	3.7834292101962e-05	-0.00118849076331973
0.51	22.1075339755224	-1.16487281469496	765.787461668548	-79.0614478593984	4.20949891420616	-3.16613380960798	-0.877144942167177	1.46673779126642e-05	-0.00128461168939298
0.52	22.109437093436	-1.1796074192164	765.73828237432	-78.9856287992978	4.18971288138995	-3.16686051090815	-0.879665351841072	-1.06789246186855e-05	-0.00137700530264601
0.53	22.1127224872042	-1.19341992204252	765.690569696744	-78.9133587369435	4.16861419793927	-3.16851501332085	-0.882880170153107	-3.77415407688828e-05	-0.00146491717352984
0.54	22.1174392850314	-1.20656593482169	765.645690999241	-78.8453924602092	4.14658276359638	-3.17105674014509	-0.886724318977763	-6.60327596280078e-05	-0.00154754319326034
0.55	22.1235169805388	-1.21929545874192	765.604950026326	-78.7825126520517	4.12400524698844	-3.17441726915436	-0.891116212429653	-9.50557267444e-05	-0.00162403638773753
0.56	22.1307828238351	-1.23182524344439	765.569539583886	-78.7255143055621	4.10126279537932	-3.1785085612639	-0.895964623057834	-0.000124320261517575	-0.00169352103239696
0.57	22.1389835093325	-1.24431359667961	765.540500499503	-78.6751843369341	4.07871888362225	-3.18323040362934	-0.901174474738649	-0.000153358523154701	-0.00175511370893945
0.58	22.1478094110535	-1.25683928485718	765.518688426641	-78.6322772841243	4.0567077055827	-3.18847653733584	-0.906651185659083	-0.000181739997144703	-0.00180795035457376
0.59	22.156919627361	-1.26938586530817	765.504749612696	-78.5974883381798	4.03552353831701	-3.1941391409898	-0.912303373363669	-0.000209085239598372	-0.00185121784564928
0.6	22.1659662131227	-1.28183243731841	765.499106277536	-78.5714252190552	4.01541151822226	-3.20011154980213	-0.91804392119998	-0.000235077806832855	-0.00188418826658017
0.61	22.1746161862961	-1.29395141110056	765.501951766529	-78.5545805590762	3.9965602537973	-3.20628928811383	-0.923789576575611	-0.000259473818600314	-0.0019062537667686
0.62	22.1825701792213	-1.30541349011182	765.513255169856	-78.5473064855031	3.97909665750952	-3.21256966663369	-0.929459393589166	-0.000282108659948342	-0.00191695981551603
0.63	22.1895769388685	-1.3157996588592	765.532774657065	-78.5497929994235	3.96308330752641	-3.21885033169193	-0.93497243633391	-0.000302900420903592	-0.00191603472806574
0.64	22.1954432381237	-1.32461958065459	765.560078381406	-78.5620515415073	3.94851854934404	-3.22502724391504	-0.940245218592734	-0.000321849803867013	-0.0019034135439697
0.65	22.2000391145444	-1.33133545225622	765.594571480632	-78.583904834454	3.93533942121181	-3.23099260326528	-0.945189368550887	-0.00033903639108785	-0.00187925467126107
0.66	22.2032986784269	-1.33539004960653	765.635527456576	-78.6149837222282	3.92342734232737	-3.23663322585554	-0.9497099749151	-0.000354611350468902	-0.00184394813828861
0.67	22.2052170073439	-1.33623744581001	765.68212206884	-78.6547313166744	3.91261634836548	-3.24182981877953	-0.953704998008757	-0.000368786855594904	-0.00179811478643301
0.68	22.2058438543666	-1.33337470370553	765.733467837936	-78.7024143437503	3.90270350627706	-3.24645749929919	-0.957066023240473	-0.000381822691182692	-0.00174259625591663
0.69	22.2052750338394	-1.32637275412646	765.788647324139	-78.7571411843958	3.89346100164373	-3.25038777381103	-0.959680504055186	-0.000394010692853273	-0.0016784361285364
0.7	22.2036424106885	-1.31490467748181	765.846743527171	-78.817885755524	3.88464927908462	-3.25349204170911	-0.961435497605554	-0.000405657815247588	-0.00160685306320214
0.71	22.2011034118131	-1.29876971611339	765.906866028556	-78.8835160959137	3.87603053963172	-3.25564653220944	-0.962222750037731	-0.000417068721909635	-0.00152920716531157
0.72	22.1978309106078	-1.27791155704745	765.968171856091	-78.9528263241388	3.86738186631636	-3.25673843108161	-0.961944850490665	-0.000428528834123841	-0.00144696114830319
0.73	22.1940042199752	-1.25242973084943	766.029880465175	-79.0245705278056	3.85850726467013	-3.25667282092796	-0.960522054008396	-0.000440288758391225	-0.00136163806159195
0.74	22.1898017775966	-1.22258335621714	766.09128267672	-79.0974971246129	3.84924796871297	-3.25537995350403	-0.957899282729922	-0.000452550932784263	-0.00127477746742853
0.75	22.1853959308503	-1.18878689872072	766.151743854949	-79.1703822989432	3.83949047150482	-3.25282230383494	-0.954052759494423	-0.000465459195485727	-0.00118789195108726
0.76	22.1809500368172	-1.15159807750656	766.210702018039	-79.2420612506959	3.82917188493674	-3.24900082926052	-0.948995713859821	-0.000479091793673393	-0.00110242575138537
0.77	22.1766178927614	-1.11169851473341	766.267661919149	-79.3114561805558	3.81828240545397	-3.2439598748952	-0.942782630446456	-0.000493458130933524	-0.00101971711395897
0.78	22.1725453109501	-1.06986814769396	766.322186387401	-79.3776001612155	3.80686484792557	-3.23779023009739	-0.935511583503451	-0.000508499312920731	-0.000940965713564321
0.79	22.1688734558416	-1.02695478411623	766.37388635706	-79.4396562909005	3.79501139486672	-3.23062994501498	-0.927324316367301	-0.000524092311964328	-0.000867206181721342
0.8	22.1657433804733	-0.983840452934028	766.422411027155	-79.4969317790442	3.78285787873252	-3.22266265558678	-0.918403873276205	-0.000540057349733987	-0.000799288431164585
0.81	22.1633010438759	-0.941406368375126	766.467439482793	-79.5488868614908	3.77057605836411	-3.2141133301367	-0.908969763693977	-0.000556167909406443	-0.000737865107959784
0.82	22.1617019765756	-0.900498374897357	766.508674885291	-79.595138673888	3.75836445656191	-3.20524152910419	-0.899270822885597	-0.000572162648610253	-0.000683386144507594
0.83	22.1611147021771	-0.861894673098479	766.545842023701	-79.6354604188517	3.74643838706092	-3.19633244807625	-0.889576111995115	-0.000587758401338507	-0.000636100049769869
0.84	22.1617220345183	-0.826277449414089	766.578688646671	-79.6697763386759	3.73501981251799	-3.1876861790164	-0.880164360600406	-0.000602663435785473	-0.000596061273220663
0.85	22.1637194636161	-0.794209760094826	766.606990597046	-79.6981531457091	3.72432764109273	-3.17960576181661	-0.871312579725052	-0.00061659017532844	-0.000563142730584248
0.86	22.1673100254116	-0.766118673966154	766.630560388631	-79.7207886628213	3.71456899227366	-3.17238469614257	-0.86328455098962	-0.000629266686252058	-0.000537052394220736
0.87	22.1726953178787	-0.742285284825768	766.64925852823	-79.7379984832104	3.7059318506347	-3.16629463302575	-0.856319919204346	-0.000640446378417855	-0.00051735273790593
0.88	22.1800626675172	-0.722841791498855	766.663006621962	-79.7502014695609	3.69857938974358	-3.1615739617017	-0.850624577421166	-0.00064991554046455	-0.000503481790089577
0.89	22.1895688438979	-0.707775440107741	766.671801129321	-79.7579048759941	3.69264609974312	-3.15841794929619	-0.846362937086313	-0.000657498523476571	-0.000494774592915331
0.9	22.2013211351161	-0.696938755321262	766.675726547563	-79.761689792871	3.68823570410358	-3.15697098342065	-0.843652528999407	-0.000663060579604935	-0.000490483983401416
0.91	22.2153569964107	-0.690065177219928	766.674966818816	-79.7621974873749	3.68542071617376	-3.15732131941175	-0.842561196004994	-0.000666508538555623	-0.000489799800658705
0.92	22.2316238270841	-0.686788984062053	766.669813841288	-79.7601170480167	3.684243375451	-3.15949855750034	-0.843106932467078	-0.000667789650688772	-0.000491865866639601
0.93	22.2499606771244	-0.686668227994715	766.660672117051	-79.756174548226	3.68471762559177	-3.16347388590499	-0.845260217754179	-0.000666889029229667	-0.000495794371134048
0.94	22.2700837994737	-0.689209342983571	766.648058763402	-79.7511237357922	3.6868317566803	-3.16916294011757	-0.848948500783532	-0.000663826178272229	-0.000500677594399673
0.95	22.2915779206977	-0.693892097860836	766.632598335013	-79.7457380466822	3.69055133521124	-3.17643096236095	-0.854062338127528	-0.00065865109495753	-0.000505597200282509
0.96	22.313894888479	-0.700193653032578	766.6150121363	-79.7408035511936	3.69582208493756	-3.18509981211456	-0.860462583754977	-0.000651440385420719	-0.000509631605220121
0.97	22.3363609704404	-0.707610623916412	766.596101938889	-79.7371122856477	3.70257245487803	-3.19495628901225	-0.867987983598765	-0.000642293741565652	-0.000511862150949741
0.98	22.358193542892	-0.715678242444872	766.576728254267	-79.7354553211072	3.71071570886627	-3.2057611891702	-0.876462546190576	-0.000631331000400834	-0.000511378960236578
0.99	22.3785272532831	-0.723985924439282	766.557783547501	-79.7366148864522	3.7201514831076	-3.21725852601926	-0.885702138548897	-0.000618689863729757	-0.000507287418773594
1	22.396449012926	-0.732188780791392	766.54016101689	-79.7413549066371	3.7307668719257	-3.22918440302195	-0.895519885226449	-0.000604524209504642	-0.000498716191701873
1.01	22.4110404334061	-0.740014841568974	766.524719808732	-79.7504094420918	3.74243720463244	-3.24127511992982	-0.905730113691508	-0.000589002793513873	-0.000484827546337913
1.02	22.4214256227654	-0.747267984167234	766.512247784504	-79.7644687186951	3.75502675666856	-3.25327421482444	-0.916150773244501	-0.000572308036361391	-0.000464830518399351
1.03	22.4268216678467	-0.753826761676966	766.503423202686	-79.7841627082441	3.7683896864408	-3.26493827742186	-0.9266044380272	-0.000554634528164222	-0.000437997140883647
1.04	22.426588703345	-0.759639510084822	766.498776905523	-79.8100425376157	3.78237149933016	-3.27604150084563	-0.936918168374508	-0.000536186870245042	-0.000403681575140008
1.05	22.4202762515181	-0.764716268729837	766.498656792146	-79.842560344592	3.79681130962221	-3.28637905611093	-0.946922632211775	-0.000517176512653504	-0.000361341572774135
1.06	22.4076625390296	-0.769118174590974	766.503196489479	-79.8820485280801	3.81154510109636	-3.29576946502211	-0.956450966904113	-0.000497817336680652	-0.000310561291084699
1.07	22.3887837699861	-0.772945084886191	766.512290175479	-79.9286996261175	3.82641008316639	-3.30405620543452	-0.965337884621124	-0.000478319865528549	-0.000251074123334416
1.08	22.3639508469937	-0.776322241547355	766.525575442407	-79.9825482631767	3.8412501108311	-3.31110880408262	-0.973419489353576	-0.000458884152193697	-0.000182783927731134
1.09	22.3337517542423	-0.779386812656156	766.542425894114	-80.0434567097815	3.85592199522186	-3.31682365664971	-0.980534185368625	-0.000439691575868864	-0.000105782880799307
1.1	22.2990386985144	-0.782275127134738	766.561954843522	-80.1111055710112	3.87030239114919	-3.32112476645872	-0.986524924368277	-0.00042089595865658	-2.03641688549389e-05
1.11	22.260900080823	-0.785111357638401	766.583031019152	-80.1849909555851	3.88429482350302	-3.32396451934842	-0.991242875232766	-0.000402614573948196	7.29721193747229e-05
1.12	22.2206183688232	-0.787998301780435	766.604306619849	-80.2644291761382	3.89783631992679	-3.3253245226757	-0.994552422051468	-0.000384919737922305	0.000173521224854215
1.13	22.1796158811119	-0.79101076492255	766.62425740403	-80.3485696097092	3.9109030652677	-3.32521644219275	-0.996337220552016	-0.000367831740179376	0.0002803849434517
1.14	22.139391306388	-0.794191863417221	766.641233803291	-80.4364158337101	3.92351449308032	-3.32368268354041	-0.996506887280245	-0.000351313866708776	0.000392492139455261
1.15	22.1014504017717	-0.79755235390588	766.653521356705	-80.5268545855299	3.93573528570083	-3.32079669648636	-0.995003775668911	-0.000335270192108252	0.000508628197402078
1.16	22.0672347008531	-0.801072864635445	766.659408122101	-80.6186915192616	3.94767486663774	-3.31666263943457	-0.991809221329146	-0.000319546669042377	0.000627472397923406
