Time [s]	GRFml [N]	GRFap [N]	GRFv [N]	Mml [N.m]	Map [N.m]	Mv [N.m]	Mfree [N.m]	COPml [m]	COPap [m]
0.01	6.09906352495402	-9.57043989947412	745.873195230006	-11.9492468942494	47.680714663332	-1.04758955941526	1.56167911569109	-0.00119342125380018	0.00425320204894253
0.02	6.16049447701173	-9.62795994984907	745.01331470086	-11.9796570474406	47.6532285557762	-1.08282482090551	1.59960475716184	-0.00125397682428829	0.00428954582690166
0.03	6.22065967330661	-9.67887946757527	744.220076555235	-12.001150431651	47.6187550251236	-1.11441836452701	1.6334233874243	-0.00130098106798093	0.00431068593305983
0.04	6.27937349395077	-9.71927607455047	743.545759026482	-12.0075622465997	47.5720775419165	-1.13971464673966	1.66017714459038	-0.00132491539425061	0.00430504516279506
0.05	6.33832073886362	-9.74921459199153	743.021886251623	-11.997305145667	47.5103966837516	-1.15778849752959	1.67886963980181	-0.00132290650429501	0.0042661094190955
0.06	6.40093336547958	-9.77265639663134	742.65644724842	-11.9737340890312	47.4336439505297	-1.16954402138713	1.69056409113356	-0.00129928716427907	0.0041930962798481
0.07	6.471345033652	-9.79583222753822	742.43695300079	-11.9439436977661	47.3442127692587	-1.17722578911798	1.69781259841012	-0.00126391129731995	0.00409033079923449
0.08	6.55275525637351	-9.82474891708546	742.337723332055	-11.9164588562562	47.2462952700941	-1.18356458203809	1.7036759073344	-0.0012288776982845	0.00396572066980605
0.09	6.64578387169255	-9.86279437814018	742.328608712261	-11.8986162749096	47.1450569961881	-1.19088667660694	1.71071283107771	-0.00120479896389936	0.00382888472051557
0.1	6.7474420691943	-9.90930226411029	742.382323805074	-11.8944813763026	47.0458225992905	-1.20048699302758	1.72028122441572	-0.00119781825548559	0.00368941255078081
0.11	6.85117373804093	-9.95952687979059	742.478549097723	-11.9039136657047	46.953348880974	-1.21243323777812	1.73233573617628	-0.00120824505768002	0.00355551931801729
0.12	6.94808517495681	-10.005954223805	742.604397524977	-11.9229844780374	46.8711936389121	-1.225795830585	1.74570884134512	-0.00123109784965281	0.00343314452193316
0.13	7.02908894757741	-10.0404423827616	742.752124870676	-11.9455081006667	46.8011822908715	-1.23915506459257	1.7587000623506	-0.00125821487106881	0.00332542416356663
0.14	7.08736699903422	-10.0564815112919	742.915658858095	-11.9651130218735	46.7430177053302	-1.25116830254577	1.76972511177192	-0.00128112581248785	0.0032324631925153
0.15	7.12041844522154	-10.0509197957718	743.087517771535	-11.977153562167	46.6941306859286	-1.26099745951814	1.77780201856616	-0.00129370447325117	0.00315140403019409
0.16	7.1310517546728	-10.0247476467865	743.257156824934	-11.9798716828982	46.6498847108964	-1.26848003775198	1.78274827432456	-0.00129378049955697	0.00307685303868016
0.17	7.12698329161986	-9.98284686534422	743.411047749338	-11.974514104131	46.6042047877461	-1.27403585604799	1.78508446538622	-0.00128330275919253	0.00300173007146481
0.18	7.1191165698315	-9.93288132156642	743.534181967115	-11.9644795075294	46.5506024003377	-1.27839420730543	1.78573875160441	-0.00126716021277973	0.00291852754738464
0.19	7.11896417450456	-9.88366738648925	743.612365440835	-11.9538820121711	46.4834467755038	-1.28227257409319	1.78569260811261	-0.00125119499367188	0.00282083049428677
0.2	7.13591503313299	-9.84341117310083	743.634638632418	-11.9460666161634	46.3992286936028	-1.28612918279066	1.78569561452439	-0.00124014620250434	0.00270481356287811
0.21	7.17507628988368	-9.81816752498155	743.595286628242	-11.9425637342397	46.2975156404292	-1.2900600750162	1.78612238723531	-0.0012361949387204	0.00257035688456664
0.22	7.23623705927267	-9.81079889701623	743.49507638158	-11.9427639409238	46.1813304733741	-1.2938439308206	1.78697728875517	-0.00123849883859761	0.00242145261662186
0.23	7.31417897477254	-9.82061050854493	743.341518096873	-11.9443236577441	46.0568012570191	-1.29708360299211	1.78800079219228	-0.00124373509600328	0.00226571442647888
0.24	7.40019677083799	-9.84371556520752	743.148114376531	-11.9440795672088	45.9321029626288	-1.29937105929384	1.78881159645438	-0.00124735214727356	0.00211301929426078
0.25	7.48439050852742	-9.87404570918437	742.932754277956	-11.939123887936	45.8158966858238	-1.3004142005259	1.78903021696058	-0.00124505616777926	0.00197354279436235
0.26	7.55812018986987	-9.90478653123509	742.715590485196	-11.9276931496613	45.7156147058947	-1.30009675162904	1.78835886228894	-0.00123405554051181	0.00185562641642256
0.27	7.61600277380521	-9.92991857807606	742.516815865076	-11.9096239629543	45.6359942161389	-1.29847655034992	1.78662052833388	-0.00121372139194431	0.00176398410423056
0.28	7.65697051806209	-9.94551228953363	742.354665622843	-11.8862821698076	45.5782072728367	-1.29574757696761	1.78377412500322	-0.00118553107534192	0.00169869039005793
0.29	7.68415828199631	-9.95047628488092	742.243750889628	-11.8600284499896	45.539781528117	-1.29219239535649	1.77991964681608	-0.00115237808078705	0.00165520624609827
0.3	7.70368889125043	-9.94658629651305	742.193623885376	-11.833408019759	45.5153000998074	-1.28814061921399	1.77529557877613	-0.00111750466636318	0.0016254381508134
0.31	7.72271447005605	-9.93780119192575	742.207448723677	-11.8083217265045	45.4976724713434	-1.28393665862088	1.77026141882809	-0.00108340826803677	0.00159956203619377
0.32	7.74727992683622	-9.92906161213718	742.280867521281	-11.7854376368645	45.4796404769206	-1.27991441563317	1.76525894106901	-0.0010510705264879	0.00156815161400192
0.33	7.780640547598	-9.92491333161802	742.401496858318	-11.764033024399	45.4551571146469	-1.276378499991	1.76075570402829	-0.001019756642614	0.00152408468529125
0.34	7.82254938055803	-9.92834930704256	742.5497170532	-11.742328006447	45.4203476486405	-1.27359562350368	1.7571854859237	-0.000987453560418627	0.00146377804727804
0.35	7.8697386349708	-9.94019110500092	742.701282229839	-11.7182143512467	45.373898012699	-1.27179999730494	1.75490412508484	-0.000951804567235204	0.00138749593611237
0.36	7.91742444683848	-9.95914586131776	742.831709395337	-11.6901426055502	45.3168672137788	-1.27121078072538	1.75417226974131	-0.000911219844078492	0.00129873007931902
0.37	7.96129648946268	-9.98244314901824	742.921586970368	-11.6578576323729	45.2520459909694	-1.27205128691606	1.75516279652073	-0.000865761049438696	0.00120288821206638
0.38	7.99925981937682	-10.0067691434934	742.961266109943	-11.6227016402468	45.1830587806872	-1.27455494880187	1.75797869887799	-0.000817451954671977	0.00110568617110551
0.39	8.03227261246164	-10.0291503526278	742.95325666026	-11.5873370624618	45.1134253588578	-1.2789466862291	1.762664614436	-0.000769850981510389	0.00101167684799264
0.4	8.06396000420429	-10.0475183138297	742.911221827114	-11.5549415811867	45.0457724113305	-1.28540006396759	1.76920357953615	-0.000726980338672578	0.000923266098440623
0.41	8.09915515278183	-10.0608653463144	742.855595090682	-11.5281251577454	44.9813306836924	-1.29398487661464	1.77750478730226	-0.000691950101944006	0.000840397407450677
0.42	8.1419324897489	-10.0690906062108	742.807093133611	-11.507937628787	44.9197873726596	-1.30462842359189	1.78739887931194	-0.0006657497825866	0.000760893501724591
0.43	8.19388560423065	-10.0727473368798	742.780247972359	-11.493322761593	44.8594987533648	-1.31711091121837	1.79865715052647	-0.000646644785396	0.000681284950105998
0.44	8.25329367790966	-10.0728924908018	742.779157545271	-11.4812273592552	44.7980109231663	-1.33110145658718	1.81103907543435	-0.000630414148393155	0.000597872369117958
0.45	8.31547206786813	-10.0711268976696	742.796898757349	-11.4673437395829	44.7327876941235	-1.34622283592625	1.82435522003745	-0.00061137009115908	0.000507765558862783
0.46	8.37416263042256	-10.0697632551617	742.818744358905	-11.4472384636449	44.6620037648438	-1.36211981803361	1.83851978355592	-0.000583821775743232	0.000409695401355992
0.47	8.42345790770385	-10.0719471121678	742.827979392016	-11.4174869909482	44.5852329620135	-1.37850410459054	1.85356593661377	-0.000543492960090153	0.000304467055995628
0.48	8.45959489632563	-10.0815345717096	742.812235194836	-11.3764428785395	44.5038576120066	-1.39515863132794	1.86960834563342	-0.000488432976358366	0.000194990221548785
0.49	8.48203868194383	-10.1026081001343	742.768158702729	-11.3244134792381	44.421060739828	-1.41189994423116	1.88675545554811	-0.000419156282363775	8.58788782014397e-05
0.5	8.49355491146462	-10.1386563945509	742.702909289429	-11.263232057226	44.3413448649177	-1.42851286210508	1.90499213664043	-0.000338027356884929	-1.73308915590309e-05
0.51	8.49932951553136	-10.1915996399246	742.632134311817	-11.1954240356347	44.2696393799058	-1.44468212190642	1.9240660165394	-0.000248166265265581	-0.000109230765264756
0.52	8.50549914763131	-10.2609484677992	742.575273448135	-11.1232874979933	44.210183060175	-1.45994941920048	1.94341572796106	-0.000152292684304056	-0.000185672677425197
0.53	8.51759926238717	-10.3434000516861	742.549858909669	-11.0482067352334	44.1654580521569	-1.47372066776086	1.96217508976941	-5.19084948497062e-05	-0.000244744548613729
0.54	8.53938022482955	-10.4330844312456	742.56666335046	-10.9704022071246	44.1354699912684	-1.48533692351748	1.97927278155492	5.29412700994714e-05	-0.000287341493267201
0.55	8.57223081352266	-10.522500424852	742.627093457707	-10.889141806071	44.1175995786295	-1.49420377052838	1.99362275255282	0.000163323200372045	-0.000317143475732862
0.56	8.61519149672953	-10.6039751316946	742.723352748699	-10.803268637064	44.1071074332336	-1.49995170824218	2.00437074721389	0.000280694100335932	-0.000339935031986094
0.57	8.6653569852503	-10.6713082292628	742.840949694528	-10.7118044717827	44.0981961707523	-1.50258168269746	2.01113594925757	0.000406124024828869	-0.000362366754041055
0.58	8.71843116783652	-10.7211770431454	742.962452771786	-10.6143974055711	44.0853738913618	-1.50254416721299	2.0141748677348	0.0005397585159026	-0.000390418336459197
0.59	8.76929645432806	-10.7539097562555	743.07121073877	-10.5114826750798	44.0647689932848	-1.50071249176449	2.01440504727579	0.00068067404719252	-0.000427932840981804
0.6	8.8126082147698	-10.7733786654011	743.15407425723	-10.4041639960953	44.0350458613169	-1.49823949729235	2.0132590212752	0.000827097508374952	-0.000475614751187292
0.61	8.84351443138095	-10.7859898854884	743.20277202032	-10.2939339001935	43.9976673382333	-1.49632166614762	2.0123853195838	0.00097682020441936	-0.000530801568644323
0.62	8.85856198617877	-10.7989952539611	743.214187064165	-10.1823901677175	43.9564202766643	-1.49592392147465	2.01325880997144	0.00112759510693006	-0.000588135894955488
0.63	8.85669482834594	-10.8185598157443	743.190061109534	-10.0710663130122	43.9163215296425	-1.49753128751851	2.01679287374566	0.00127736503987819	-0.000641018132449156
0.64	8.84006104225329	-10.8481199032828	743.136531903443	-9.96140902779508	43.882198798771	-1.50098779877387	2.02305216282128	0.00142428397588512	-0.000683474687178998
0.65	8.81424195719113	-10.8875183576884	743.063529936288	-9.85485188424174	43.8573416399068	-1.50546324094835	2.03114619296601	0.00156660166358358	-0.000711913827421806
0.66	8.78758466808733	-10.9331995527096	742.983727537006	-9.75289013384633	43.8426087170385	-1.50956284975093	2.03934647382214	0.00170253718315228	-0.000726229431933567
0.67	8.76957131890543	-10.9794331807456	742.910707855646	-9.65706962502312	43.8362549476592	-1.51157024129797	2.04542159252565	0.00183025576943918	-0.000729876083716607
0.68	8.76851554533662	-11.0202053031071	742.856362107196	-9.56885302253285	43.8345376865304	-1.50979073585888	2.04713378081825	0.00194800079833179	-0.000728840030500222
0.69	8.78919673503773	-11.0511832777213	742.828050135066	-9.48939314447057	43.8329321666236	-1.50293909085706	2.04279510593179	0.00205435075227511	-0.000729778280058435
0.7	8.83118041236871	-11.0711220226408	742.82646175515	-9.41929750479201	43.8276002840704	-1.4904935833977	2.03175161003652	0.00214850323354654	-0.000737878375390411
0.71	8.88844456326585	-11.0822608474033	742.845131280114	-9.35848730467726	43.8166704608364	-1.47292554927837	2.01466169635587	0.00223046133547111	-0.000755107321845694
0.72	8.9505584132523	-11.0896034097624	742.872107966345	-9.30622814928309	43.8009295349176	-1.45172294290738	1.99347073004789	0.0023010245113505	-0.000779423731122109
0.73	9.0051655511797	-11.0993499920313	742.893516727687	-9.2613454538404	43.7836931533531	-1.42916741033101	1.97105695902232	0.00236156005782573	-0.00080524370145596
0.74	9.04108548436528	-11.1170182901232	742.897959715726	-9.22255845601691	43.7698644322591	-1.40789234737894	1.95061820908101	0.00241362565672121	-0.000825062021578116
0.75	9.05112834186635	-11.1458520749173	742.88024517166	-9.18880719207297	43.7644406213032	-1.39032329436461	1.93495392225824	0.00245858722008752	-0.000831758003308924
0.76	9.03379790079199	-11.1859703772859	742.843017586058	-9.15943829115527	43.7709069756446	-1.37815134603962	1.92583946800722	0.00249739038397534	-0.000820881827111375
0.77	8.99340933365248	-11.2344305162342	742.795534150446	-9.13417031467527	43.7900073091757	-1.37199037586198	1.92366849287645	0.00253058186445065	-0.000792204072557035
0.78	8.93864451175208	-11.2860837653671	742.749884971316	-9.11285955419762	43.8192817436365	-1.37131492909729	1.92745809378584	0.00255855926437043	-0.000750028776392908
0.79	8.88003812258618	-11.3348950837993	742.716003601427	-9.09518770166523	43.8535405189976	-1.37468664704577	1.93519921005634	0.00258190909196176	-0.000702152274244028
0.8	8.8271800604483	-11.3753270718131	742.697423172777	-9.0804416533169	43.8861642232296	-1.3801873663152	1.94443185535135	0.00260163582004502	-0.000657772694788838
0.81	8.78645144177189	-11.4034425155887	742.689592081649	-9.06752172178574	43.9108703217903	-1.38591991378734	1.95286723089457	0.00261912715515344	-0.000624979523664027
0.82	8.75989112126448	-11.4175104257853	742.68164676755	-9.055207119308	43.923440718469	-1.39043074741578	1.95888209655066	0.00263582968875842	-0.000608573578918248
0.83	8.74540272314392	-11.4180509362435	742.661160837988	-9.04257592609858	43.9229105594559	-1.39294853248828	1.96176705449755	0.00265276393610892	-0.000608849630430786
0.84	8.73809051477943	-11.4073847360092	742.620101745641	-9.02938720165293	43.911873653561	-1.39339987260754	1.96169480583541	0.00267010808839452	-0.00062166247583495
0.85	8.73219184522193	-11.3888456118004	742.559589540673	-9.01623503724859	43.8958178402452	-1.39223253671882	1.95945737847738	0.00268706760564508	-0.000639700425134448
0.86	8.72295234186182	-11.3658671921651	742.491377644569	-9.00438320820061	43.8816858398266	-1.39012674324643	1.95607904381919	0.00270212083493604	-0.000654537909789976
0.87	8.70789381892227	-11.3411656779891	742.435167464605	-8.99533891088323	43.8760773053384	-1.38769513056175	1.95243178378568	0.00271354876327912	-0.000658839020325319
0.88	8.68719730573099	-11.3162048955705	742.412458702732	-8.99034939334764	43.8835991103998	-1.38526113320932	1.94896256251628	0.00272001367206565	-0.000648088044257256
0.89	8.66324785465327	-11.2910491511144	742.438993268195	-8.99004028086075	43.9058081597865	-1.38277116578692	1.94559619306518	0.00272092544325331	-0.000621414632144768
0.9	8.63963701473034	-11.2646002804657	742.518448962705	-8.99433940780284	43.9409998057592	-1.37985090520391	1.94182045516864	0.00271644401222981	-0.000581384118644612
0.91	8.62001188486303	-11.2351123220743	742.639667094465	-9.00268383737583	43.98484253805	-1.37597379383933	1.93690880698168	0.00270715672529842	-0.000532931268964032
0.92	8.60709367007371	-11.2008167161877	742.778512713296	-9.0143677684252	44.0316294721927	-1.37068168877135	1.93020401832703	0.0026936389044403	-0.00048182967656174
0.93	8.60203191305003	-11.1604898048862	742.903907793031	-9.02882890749409	44.0757773312185	-1.36378887148054	1.9213788908733	0.00267616255534364	-0.000433153645190754
0.94	8.604109567377	-11.1138402689991	742.98619688793	-9.0457206928784	44.1131830149304	-1.35551057874073	1.91060488286924	0.00265472987734772	-0.000390109643235492
0.95	8.61073894035697	-11.0616559904422	743.005268685074	-9.06474868611125	44.1421314507336	-1.34648006936014	1.89858725442456	0.00262942082111239	-0.000353446796357904
0.96	8.61769783700462	-11.0057012758219	742.955995707201	-9.08539092919012	44.1635919020516	-1.33764627435894	1.88645686474975	0.00260085569879709	-0.000321476752347283
0.97	8.61960046346643	-10.9483913407524	742.849490417037	-9.10670008697593	44.1808939980545	-1.33007060575507	1.87553772661372	0.00257048313240915	-0.000290601223658926
0.98	8.61061237013782	-10.8923044521606	742.710055416347	-9.12735967547221	44.1989048099269	-1.32466256488204	1.86703362926714	0.0025404590297301	-0.000256178409923091
0.99	8.5853662854563	-10.8396343492295	742.56902711438	-9.14604901398969	44.2229193523563	-1.32190791921994	1.86169617337127	0.00251306092200188	-0.000213538216724707
1	8.539934687949	-10.7917271023497	742.457513550453	-9.16201636604363	44.25752490818	-1.32164985067692	1.85954870200249	0.00248980332400817	-0.000158950937028612
1.01	8.47262691185305	-10.7488570000903	742.400063484611	-9.17563780452732	44.305699494825	-1.32298143676274	1.85974143015721	0.00247058475954753	-9.03540824380711e-05
1.02	8.38436806516955	-10.710344248519	742.410647373476	-9.18870574126944	44.3683476952778	-1.32429494733641	1.86059701818137	0.00245323260395036	-7.66639048643825e-06
1.03	8.27851134186913	-10.674998949724	742.491332566258	-9.20426295440081	44.4443609984205	-1.32350780599655	1.85987000630084	0.00243370018605615	8.74024841310272e-05
1.04	8.16010817201545	-10.6417287879098	742.633155816708	-9.22594991593935	44.5311354095668	-1.31844732117866	1.85519148839777	0.00240695293538562	0.000191995542305479
1.05	8.03484611288486	-10.6100419236982	742.81828076083	-9.25700985063636	44.625334635472	-1.30733191491172	1.84461373625823	0.00236833657197555	0.000302987852644931
1.06	7.907987375665	-10.5801802148419	743.022644408743	-9.29923389428705	44.72361282301	-1.28924664475847	1.82712581034432	0.00231503654923526	0.000417771741938966
1.07	7.78364717419967	-10.5527569809379	743.218732733198	-9.3521787341672	44.8230479274344	-1.26449001355551	1.80299864956898	0.00224717695664567	0.000534632668872048
1.08	7.66462757431736	-10.5280058212284	743.378537687963	-9.41293149438209	44.9211800246521	-1.23468065154702	1.77384788630365	0.00216819003841273	0.000652563734518219
1.09	7.55280569676024	-10.504970348058	743.476867837554	-9.47654676257667	45.0157408732638	-1.20256154766301	1.74237229342638	0.00208428974034069	0.000770620978975511
1.1	7.44984483399079	-10.4810617902235	743.494958474159	-9.53708391767159	45.104314909152	-1.17151773631883	1.71181714309315	0.00200314281553016	0.000887152296335014
1.11	7.35785126110347	-10.4523115879149	743.423918521342	-9.58899017864086	45.1842121349617	-1.1449085517431	1.68529533688938	0.00193207011478114	0.000999323174567912
1.12	7.27961245550354	-10.4143707716327	743.267226089285	-9.62846296061607	45.2527344960678	-1.12537837443881	1.66514484985817	0.00187625655261736	0.00110325561509816
1.13	7.21823271224705	-10.3639704842648	743.041454450524	-9.65441917603886	45.3078196198094	-1.11432539466045	1.65249090547993	0.00183745696540449	0.00119482980503594
1.14	7.17625765150168	-10.3003134999347	742.774727972831	-9.66880142310161	45.3488392015531	-1.11166748877531	1.64711817041364	0.00181355382270965	0.00127088961165467
1.15	7.15462543868549	-10.2258355107607	742.502955232676	-9.67613104251329	45.3772116029549	-1.11595998796622	1.64766500692402	0.00179909019593227	0.0013303858217914
1.16	7.15188452828027	-10.1459820871063	742.264450520329	-9.6824222046406	45.3965180942613	-1.12482055395423	1.65206160035186	0.00178663597732265	0.00137498331303976
1.17	7.16403005738693	-10.0680086837657	742.093936132258	-9.69373967740198	45.4119814213103	-1.13553487161262	1.65807597396099	0.00176862449597015	0.00140885588287498
1.18	7.18508035778041	-9.99917528376421	742.01701738777	-9.71476836760251	45.4294035986471	-1.14567809442545	1.66382085977816	0.00173918282636409	0.00143770800374787
