Time [s]	GRFml [N]	GRFap [N]	GRFv [N]	Mml [N.m]	Map [N.m]	Mv [N.m]	Mfree [N.m]	COPml [m]	COPap [m]
0.01	6.4663472953503	6.35716693672917	592.83273805168	-46.7385653294266	-10.1000789800592	-1.15028289176976	-0.532018428212049	-0.000507249433959082	0.00639134033504803
0.02	7.00257600809802	6.30177553125992	591.6306997909	-46.3479247727041	-10.229696704556	-1.27413808690935	-0.616510321986462	-0.00076214837163488	0.00587900836424693
0.03	7.52943249759355	6.23968038374966	590.421425340822	-45.9503367701413	-10.3582502328043	-1.39462430838811	-0.699138544035349	-0.00101662884576349	0.00535608894299916
0.04	8.03822177202772	6.16733709410726	589.209690361359	-45.5440374104637	-10.4844641228675	-1.50892806071582	-0.777876979605835	-0.00126840469553736	0.0048187238318301
0.05	8.52100511970121	6.08149410048465	588.000415683908	-45.127437599083	-10.6071655531093	-1.61446412800366	-0.850852070352739	-0.00151533420338225	0.00426332062564681
0.06	8.97090421132505	5.97942986918721	586.798944519022	-44.6993925961335	-10.7253095475867	-1.70899205298985	-0.916426319129542	-0.00175545070928084	0.00368698765774544
0.07	9.38234669752729	5.85915976713008	585.611275752296	-44.2594395521511	-10.8380002398545	-1.79071281448689	-0.973266895651495	-0.00198698679673864	0.00308791952173695
0.08	9.75124097713173	5.71959906563419	584.444227763222	-43.8079851745893	-10.9445077358524	-1.85834039057523	-1.02039618743203	-0.00220839365081693	0.00246570645621519
0.09	10.0750726830894	5.56067205245425	583.305515633785	-43.3464305811624	-11.0442800802042	-1.91114477138935	-1.05722252814494	-0.00241835695969398	0.00182154817719526
0.1	10.3529205863585	5.38336122189565	582.203733556363	-42.8772258189912	-11.1369498321264	-1.94896499190678	-1.08355063765054	-0.00261581018115989	0.00115836058782635
0.11	10.5853946510689	5.18969464443308	581.148242790483	-42.4038519648025	-11.2223348367882	-1.97219272961834	-1.09957245282729	-0.00279994525517355	0.000480771505238273
0.12	10.7745035320221	4.98267359578229	580.148972967007	-41.9307337758706	-11.3004329381792	-1.98172881389656	-1.10583998587331	-0.00297022007792694	-0.000204991334376528
0.13	10.923462602233	4.7661461043498	579.216150438351	-41.4630902350664	-11.3714106094555	-1.97891651121537	-1.10322261457059	-0.00312636143087733	-0.000891310498803935
0.14	11.0364564312951	4.54463506160493	578.359971486762	-41.0067338227971	-11.4355857555333	-1.9654566035443	-1.09285179826674	-0.00326836172100802	-0.00156947265558154
0.15	11.1183713914987	4.32313179585932	577.59024049199	-40.5678318400987	-11.4934052435748	-1.94331002074552	-1.07605663647336	-0.00339646792213364	-0.00223002729668435
0.16	11.1745147218373	4.10686745894093	576.915993755137	-40.1526445674412	-11.5454180110533	-1.91459410930621	-1.05429395013045	-0.00351116152632518	-0.00286318898636075
0.17	11.2103359832626	3.90107519757172	576.345128835394	-39.7672555079568	-11.5922448607848	-1.88147853701002	-1.02907666613592	-0.0036131290618023	-0.00345926021267096
0.18	11.231165510348	3.71075591012248	575.884057321551	-39.417308521165	-11.6345462543702	-1.84608638932207	-1.00190421476775	-0.00370322369105315	-0.00400905165338503
0.19	11.2419823726272	3.54045950372064	575.53739630707	-39.1077654330315	-11.6729895428774	-1.81040527091218	-0.974198397775432	-0.00378241941592935	-0.00450427760499618
0.2	11.2472217024594	3.39409208148708	575.30771083403	-38.8426958649945	-11.7082171166496	-1.77621226040145	-0.94724774977207	-0.00385176032304765	-0.00493790639225351
0.21	11.2506282387956	3.27475754518169	575.195316538899	-38.6251087253394	-11.7408169128526	-1.74501545999798	-0.922162808435645	-0.00391230796270008	-0.00530444864575572
0.22	11.25515978985	3.18463984843008	575.198148918376	-38.4568322186109	-11.7712965949183	-1.71801371633336	-0.899843959285532	-0.00396509027218236	-0.00560017022158289
0.23	11.2629412304379	3.12492973570474	575.311703191137	-38.3384465116063	-11.8000625235165	-1.69607494152735	-0.880962676415495	-0.00401105539271177	-0.00582322100239359
0.24	11.2752667954832	3.0957973997221	575.529046719595	-38.2692704912212	-11.8274043896343	-1.67973240183964	-0.865956104595899	-0.00405103331041065	-0.00597367558785314
0.25	11.292645952628	3.09641021526094	575.840904343427	-38.2474014831019	-11.8534860948287	-1.66919742013881	-0.855034091649979	-0.00408570754921591	-0.00605348665981421
0.26	11.3148861413141	3.12499266752382	576.235815660291	-38.2698044711509	-11.8783431605254	-1.66438619818992	-0.848197052723751	-0.00411559826338952	-0.00606635630757094
0.27	11.341204223259	3.17892386755497	576.700362118288	-38.332445343744	-11.9018866451341	-1.66495793044324	-0.845262488910193	-0.00414105713829709	-0.00601753456573292
0.28	11.3703576330859	3.25486668659356	577.219460590887	-38.4304610481243	-11.9239132602238	-1.67036106252827	-0.845897631734394	-0.00416227362121247	-0.00591355764889762
0.29	11.4007859461884	3.34892156848139	577.776718733352	-38.5583582944593	-11.9441211173649	-1.67988444105602	-0.849655558655047	-0.00417929125639993	-0.00576194072576848
0.3	11.4307538602918	3.45679749252175	578.354845756971	-38.7102316318449	-11.9621303143422	-1.69271019062564	-0.856012214731451	-0.00419203234520219	-0.00557084149338401
0.31	11.4584873570184	3.57399233648495	578.936110255317	-38.8799913204241	-11.9775073887485	-1.70796541346657	-0.864402051852728	-0.00420032881226817	-0.00534871128979252
0.32	11.4822959874596	3.69597499401694	579.502834406803	-39.061591433032	-11.9897925311183	-1.7247702041738	-0.874250413283827	-0.00420395702303389	-0.00510395007931527
0.33	11.5006757124594	3.81836198664535	580.037911374681	-39.2492490103337	-11.9985283592616	-1.74227996926063	-0.885001292988122	-0.00420267433297252	-0.0048445804625581
0.34	11.5123884149359	3.93708192810414	580.525330221084	-39.4376458284384	-12.0032890094961	-1.75972059948177	-0.896139630496439	-0.00419625531224857	-0.00457795403906738
0.35	11.5165159749859	4.04852199843798	580.950690395637	-39.6221053711908	-12.0037082976103	-1.77641562301749	-0.907207812873271	-0.00418452583465824	-0.00431050113737386
0.36	11.5124885475676	4.14965152147857	581.301686133185	-39.7987388765802	-11.9995057410988	-1.79180503283328	-0.917816505737455	-0.00416739350711316	-0.0040475322847332
0.37	11.5000883038043	4.23811877135918	581.568540178787	-39.9645557875116	-11.9905093130627	-1.80545599896991	-0.927650298181299	-0.00414487321542712	-0.00379309697370264
0.38	11.4794312999948	4.31231822724787	581.744366393471	-40.1175355167592	-11.9766739158318	-1.8170661187257	-0.936468907612136	-0.00411710685510596	-0.00354990244139146
0.39	11.4509312505182	4.37142662137807	581.82544215225	-40.2566590673718	-11.958094717218	-1.82646020382508	-0.94410484735968	-0.004084376593646	-0.00331929244148656
0.4	11.4152497508868	4.41540725885951	581.811374099189	-40.3819006666076	-11.9350146819822	-1.8335818403962	-0.950458518783995	-0.00404711127225492	-0.00310128347224874
0.41	11.3732378984798	4.44498320625799	581.705144730022	-40.4941811101445	-11.9078258518565	-1.83848107964398	-0.955491663305928	-0.00400588580258181	-0.00289465371788028
0.42	11.3258742900565	4.46158102782234	581.513032268321	-40.5952859160842	-11.8770641737195	-1.84129962744159	-0.959220014681538	-0.0039614136514384	-0.00269707813539166
0.43	11.274204061491	4.46724777091187	581.244402113106	-40.6877526056203	-11.8433979395004	-1.84225481042527	-0.961705845998713	-0.00391453273557034	-0.00250530171969489
0.44	11.2192830239623	4.46454484105979	580.911374402713	-40.7747324201484	-11.8076101730631	-1.84162342217935	-0.963050927535224	-0.00386618526858111	-0.00231534202696557
0.45	11.1621301087513	4.4564232351999	580.528378544529	-40.8598325261065	-11.7705755667949	-1.83972631870346	-0.963390218378187	-0.00381739230958351	-0.00212271152732477
0.46	11.1036903397335	4.44608528982258	580.111611469369	-40.9469452349669	-11.7332328206956	-1.83691436388635	-0.962886423029458	-0.00376922395237895	-0.001922650267564
0.47	11.0448094948368	4.43683861927839	579.678421473741	-41.0400709754623	-11.6965534559763	-1.83355605056163	-0.961725369114861	-0.00372276625819197	-0.00171035960920127
0.48	10.986220580373	4.43194823929011	579.246643465608	-41.1431417091701	-11.6615083508556	-1.83002686694861	-0.960112016943152	-0.00367908616752212	-0.00148122840860182
0.49	10.9285413024844	4.43449296684454	578.833913974264	-41.2598511999163	-11.62903336771	-1.82670026434738	-0.958266806809446	-0.00363919572167373	-0.00123104385752533
0.5	10.8722809412781	4.44723204149261	578.456995279287	-41.3934980606778	-11.5999955002752	-1.82393992681488	-0.956421993313162	-0.00360401697739639	-0.000956180234952322
0.51	10.8178544606851	4.4724875156471	578.131137433247	-41.5468468421404	-11.5751609632406	-1.8220929572909	-0.954817611438198	-0.00357434900544533	-0.000653759968504572
0.52	10.7656013454098	4.51204731564188	577.869504889742	-41.7220116302122	-11.5551665744572	-1.82148357984246	-0.953696766151641	-0.00355083832334856	-0.000321782609049831
0.53	10.715806549692	4.56709299770774	577.682691093745	-41.920365720479	-11.5404956462449	-1.82240700950242	-0.953300030509021	-0.00353395402255275	4.07814593376549e-05
0.54	10.6687210563464	4.63815514462707	577.578340012803	-42.1424799683123	-11.5314594146592	-1.82512324814278	-0.953858866847683	-0.00352396870940707	0.000433934549949583
0.55	10.6245798483674	4.72509811448914	577.560888498964	-42.3880914030484	-11.5281848044093	-1.82985071033257	-0.955588137915787	-0.00352094618813608	0.000856633250911135
0.56	10.5836155475376	4.82713451943859	577.631437900651	-42.6561026684901	-11.5306090644221	-1.83675974730014	-0.958677933430791	-0.0035247365737885	0.00130680772314988
0.57	10.5460665263288	4.94286844506137	577.787757803862	-42.9446118317501	-11.5384815273152	-1.84596629892916	-0.963285085303301	-0.00353497923852183	0.00178141729413971
0.58	10.5121789000766	5.07036509000992	578.024419445118	-43.2509711077284	-11.5513724574216	-1.8575260431738	-0.969524865115397	-0.00355111367346506	0.00227653985568985
0.59	10.48220240693	5.20724328016393	578.333051418914	-43.5718720960676	-11.5686886676253	-1.87142951239208	-0.977463436474933	-0.00357239800292005	0.00278749154068576
0.6	10.4563807395913	5.35078625628892	578.702705947978	-43.9034542407089	-11.589695315011	-1.88759869447404	-0.987111662683447	-0.00359793453407789	0.00330897216687727
0.61	10.4349373689504	5.49806530335193	579.12032027862	-44.2414324205456	-11.6135430378864	-1.90588562654179	-0.998420841924532	-0.00362670138338309	0.00383523102224538
0.62	10.4180582677463	5.64607022488346	579.571254733779	-44.581238887087	-11.6392993798691	-1.92607341977701	-1.01128085859083	-0.00365758891172344	0.00436024676698001
0.63	10.4058731839214	5.79184039337236	580.039886592194	-44.9181742080268	-11.6659832675459	-1.94788003084758	-1.0255211064651	-0.00368943944620766	0.00487791459391575
0.64	10.398437219113	5.93259013805983	580.510237233377	-45.247561482303	-11.6926011733991	-1.97096492886436	-1.04091436791849	-0.00372108858555584	0.00538223338050402
0.65	10.3957144372352	6.06582255962948	580.966608865811	-45.5648978907243	-11.7181835114856	-1.99493861115579	-1.05718363718795	-0.00375140629381982	0.00586748543746246
0.66	10.3975650689764	6.18942646810774	581.39420662846	-45.8659976620381	-11.7418197852668	-2.01937471323555	-1.07401167122447	-0.00377933599197686	0.00632840165845007
0.67	10.4037376053397	6.30175199471093	581.779721940437	-46.1471207874804	-11.7626910393239	-2.04382425591791	-1.0910528551076	-0.00380392996055726	0.00676030542974985
0.68	10.4138667086891	6.40166148954004	582.111853718679	-46.4050823188041	-11.7800982618736	-2.06783139281991	-1.10794679618581	-0.00382437956318586	0.00715922957302534
0.69	10.427477440159	6.48855353647425	582.381745562435	-46.6373378354059	-11.7934855428022	-2.09094987984709	-1.12433292539786	-0.00384003907812126	0.00752200184387611
0.7	10.4439958387528	6.56235924024636	582.583319301594	-46.8420416513987	-11.8024570089194	-2.11275939715033	-1.1398652961349	-0.00385044226409006	0.0078462960418223
0.71	10.4627654232154	6.62351131042797	582.713488500182	-47.0180755237353	-11.8067868271897	-2.13288082219962	-1.15422673743432	-0.00385531116518805	0.00813064752526556
0.72	10.4830687561111	6.67288782241104	582.772239641035	-47.1650469724086	-11.8064218769908	-2.15098958446713	-1.16714154231556	-0.00385455705229265	0.00837443376908531
0.73	10.504152841595	6.71173381509278	582.762573780727	-47.2832577731425	-11.8014770297279	-2.16682632752637	-1.17838595279604	-0.00384827378009726	0.00857782244087089
0.74	10.5252568507558	6.74156502847597	582.690307365556	-47.3736446593312	-11.792223321421	-2.18020425821533	-1.18779583586134	-0.00383672418634226	0.00874169118802509
0.75	10.545640501302	6.76405903458474	582.563737458987	-47.4376956923019	-11.7790696425165	-2.1910127654419	-1.19527112114692	-0.00382032045383028	0.00886752481054591
0.76	10.5646113738557	6.78093972051638	582.393183571662	-47.4773470427899	-11.7625388800933	-2.19921712981015	-1.20077677992923	-0.00379959958253215	0.00895729664511528
0.77	10.5815495283181	6.7938615002292	582.190425242582	-47.4948659896222	-11.7432397127619	-2.20485440294889	-1.20434035228578	-0.00377519527087487	0.0090133417279506
0.78	10.5959279844849	6.80429973038356	581.968061061915	-47.4927267101004	-11.7218354621783	-2.208025793616	-1.20604625925674	-0.00374780758071776	0.00903822958584223
0.79	10.6073279362755	6.81345356789009	581.738820482542	-47.4734858507078	-11.6990115350688	-2.20888613701703	-1.20602735300087	-0.00371817176355131	0.00903464430575625
0.8	10.6154479558047	6.82216693176881	581.514864071374	-47.4396648860891	-11.6754430383123	-2.20763122577247	-1.20445434408447	-0.00368702756414082	0.00900527886305083
0.81	10.6201068832659	6.83087233627595	581.307110380032	-47.3936458816492	-11.6517641143569	-2.20448392933611	-1.2015238865476	-0.00365509020263199	0.0089527495863993
0.82	10.6212405584967	6.8395611811828	581.124628032035	-47.3375864793344	-11.6285404276844	-2.19968011082826	-1.19744618648507	-0.00362302407834543	0.00887953517081459
0.83	10.6188929959165	6.84778267161722	580.974129719217	-47.2733587624781	-11.6062460428212	-2.19345535845024	-1.19243302081	-0.0035914200491474	0.00878794290856411
0.84	10.6132030027795	6.85467196316937	580.85960051503	-47.2025151846359	-11.5852456825588	-2.18603348073737	-1.18668700681619	-0.00356077692966142	0.00868010289853918
0.85	10.6043875608491	6.85900647040975	580.782086356684	-47.1262830518663	-11.5657830571018	-2.1776175746427	-1.18039285274039	-0.00353148762929462	0.00855798903613006
0.86	10.5927235079825	6.85928763013586	580.739660003168	-47.0455872279936	-11.5479756286008	-2.16838427228611	-1.17371115279091	-0.00350383012658757	0.00842346370024989
0.87	10.5785291495654	6.85384387025443	580.727571683262	-46.961098899127	-11.5318158398015	-2.15848152063102	-1.16677507994332	-0.00347796325970832	0.00827834136112458
0.88	10.5621473891369	6.84094919527036	580.738580583532	-46.8733065022355	-11.5171785089293	-2.14802996674068	-1.15969009283436	-0.00345392711463063	0.00812446494096235
0.89	10.5439317911213	6.81895074612253	580.763451967525	-46.7826034045586	-11.5038337925859	-2.13712773048202	-1.15253652816848	-0.00343164762353397	0.00796378776208366
0.9	10.524236684946	6.78639799791954	580.791593796351	-46.6893857170585	-11.4914648591582	-2.12585806836337	-1.14537471656493	-0.00341094485619782	0.00779845338348063
0.91	10.5034120085012	6.74216597697703	580.811796976442	-46.5941528196326	-11.4796892087371	-2.1142991877003	-1.13825205591015	-0.00339154440401087	0.00763086559983618
0.92	10.4818030999546	6.68556503773975	580.813035486776	-46.4976028290811	-11.4680824301181	-2.10253527839096	-1.13121131757328	-0.00337309122271467	0.00746374136891155
0.93	10.4597551195899	6.61643034341113	580.785277235213	-46.4007153862909	-11.4562031058542	-2.09066770560112	-1.12429935904684	-0.00335516531353045	0.00730014042375215
0.94	10.4376212632115	6.53518521639948	580.720254022973	-46.3048147802115	-11.4436175638927	-2.07882526134035	-1.11757537900071	-0.00333729867416145	0.00714346676302714
0.95	10.4157734639722	6.44287391394883	580.612139742739	-46.2116075354879	-11.4299232272031	-2.06717241156106	-1.11111788001268	-0.00331899302723507	0.00699743901367653
0.96	10.3946139164315	6.34116106397157	580.458089982342	-46.1231901105784	-11.4147694262702	-2.0559145974491	-1.1050295984215	-0.00329973791647368	0.00686602871676001
0.97	10.3745855346621	6.23229686943343	580.258603419268	-46.0420241990235	-11.3978747061276	-2.04529984840627	-1.09943981366925	-0.00327902883198592	0.00675336777219615
0.98	10.3561794036003	6.11904914583529	580.01767542263	-45.9708791907274	-11.3790398702575	-2.03561622751588	-1.09450365122309	-0.00325638506983564	0.00666362845129492
0.99	10.3399374135856	6.00460517770912	579.74272657908	-45.9127435085608	-11.358156246891	-2.02718494058947	-1.09039823049016	-0.00323136703740822	0.00660088140512233
1	10.3264485800033	5.89244814997554	579.444302706444	-45.870708655004	-11.3352089262506	-2.02034927569727	-1.08731576615036	-0.00320359268303039	0.00656893882612448
1.01	10.316338024616	5.78621442081903	579.135557463059	-45.8478317497117	-11.3102749864385	-2.0154598771635	-1.08545399005406	-0.00317275266291139	0.00657119124084962
1.02	10.3102481989274	5.68953906278737	578.831542974946	-45.8469839851269	-11.2835169869476	-2.01285717111717	-1.08500450208405	-0.00313862377647885	0.00661044722899957
1.03	10.308812616694	5.60589783823121	578.548347043534	-45.8706936626822	-11.2551722484996	-2.01285202443946	-1.08613986289629	-0.00310108012465221	0.00668878561668422
1.04	10.3126230776453	5.53845404976225	578.302126567578	-45.9209932088119	-11.2255386434734	-2.01570591374388	-1.08900039128517	-0.00306010139915614	0.00680742935500357
1.05	10.3221920484388	5.48991849961241	578.108095027504	-45.9992797489913	-11.1949577818347	-2.02161198887608	-1.09368170905085	-0.00301577771701839	0.00696664938337664
1.06	10.3379124612267	5.46243011502286	577.979526618676	-46.1061984134702	-11.1637965849815	-2.03067842545153	-1.1002240762428	-0.00296831048816395	0.00716570534277089
1.07	10.3600176415576	5.45746368807322	577.926840474664	-46.2415565696389	-11.1324282892122	-2.04291536942247	-1.10860447512275	-0.00291800894961371	0.00740282813337041
1.08	10.388544341973	5.47576969969019	577.956825231986	-46.4042756676787	-11.1012139099923	-2.05822658742198	-1.11873223482015	-0.00286528220818334	0.00767524711741389
1.09	10.4233019052615	5.5173494314195	578.072057056409	-46.5923854259701	-11.0704851298818	-2.0764066609108	-1.13044875061388	-0.00281062688330457	0.00797926238217821
1.1	10.4638503977615	5.5814666134685	578.270553543386	-46.8030627772148	-11.0405294523823	-2.09714421782688	-1.14353155933156	-0.00275461070242756	0.00831036003977728
1.11	10.5094901420568	5.66669482313501	578.545692231551	-47.032715474754	-11.0115782996859	-2.12003130574883	-1.15770270864588	-0.00269785264037656	0.00866336618729494
1.12	10.5592644617774	5.77099784907987	578.886406647451	-47.2771076658958	-10.9837985354817	-2.1445786024704	-1.17264103004102	-0.00264100038219208	0.00903263301013466
1.13	10.6119766679251	5.89183838844231	579.277655809376	-47.5315222268576	-10.9572876775741	-2.17023576201593	-1.18799762107974	-0.00258470600805822	0.00941224869371284
1.14	10.6662214195333	6.02630885320377	579.70114603153	-47.7909523718463	-10.932072843038	-2.19641583480465	-1.20341358869626	-0.00252960084490511	0.00979626140294691
1.15	10.7204296453118	6.17127682418044	580.136267785038	-48.0503131356505	-10.9081132550617	-2.22252240570435	-1.21853892325501	-0.00247627041293265	0.0101789066615933
1.16	10.7729252862548	6.32353688154848	580.561196338557	-48.3046619047368	-10.8853059488112	-2.24797788447811	-1.23305127768316	-0.0024252303387044	0.0105548270575008
1.17	10.8219912806095	6.47996021212302	580.954093846743	-48.5494163299239	-10.863494155182	-2.27225127495115	-1.2466734232152	-0.00237690403683037	0.010919273336159
