Time [s]	GRFml [N]	GRFap [N]	GRFv [N]	Mml [N.m]	Map [N.m]	Mv [N.m]	Mfree [N.m]	COPml [m]	COPap [m]
0.01	29.2721539560173	-0.947037456054069	695.888717622746	-52.7657273614248	4.3543569530463	-1.72972483547099	0.49630946601888	-0.000136960060264966	0.00125561969650406
0.02	29.6464018815779	-1.13865081299203	694.588083011416	-52.5287199739718	4.35615412048152	-1.87527838567637	0.373964341209085	-0.000117441851980082	0.00103793192853663
0.03	30.0138785392857	-1.32937746751213	693.273558321072	-52.2876273879451	4.35766532891264	-2.01851917395326	0.253162653562796	-9.87670324742304e-05	0.000816980358105818
0.04	30.3678402218053	-1.51710485927935	691.948693898814	-52.0428972605141	4.35893547771848	-2.15702664871307	0.135815636248708	-8.09343979433523e-05	0.000593118385879346
0.05	30.7017921287765	-1.69958050547119	690.621050799291	-51.7955646038053	4.35993446777734	-2.28849508759048	0.0237552683880391	-6.40668001531996e-05	0.000367072752304839
0.06	31.0097157607671	-1.87443267929007	689.302778382331	-51.5473772173903	4.36055263727279	-2.41081205676107	-0.0813229514116564	-4.84249093995557e-05	0.000140066649837983
0.07	31.2862860264973	-2.03921277630946	688.010673708408	-51.3008557225435	4.36060818592517	-2.5221304275612	-0.177912832394197	-3.43996353290845e-05	-8.6093271719101e-05
0.08	31.5270689333965	-2.19145987767574	686.765676299567	-51.0592784635257	4.35986662524742	-2.62093095189156	-0.264744045620897	-2.24825210366512e-05	-0.000308975234815323
0.09	31.7286907355646	-2.32878492380565	685.591814317953	-50.8265893027568	4.35807074591163	-2.70607269352388	-0.340820678017693	-1.3216226796388e-05	-0.000525531114663205
0.1	31.8889699184909	-2.448969044074	684.514679094721	-50.6072340934642	4.35497819427087	-2.77682905367661	-0.405450270676396	-7.12979969746171e-06	-0.000732156602850059
0.11	32.0070044675896	-2.55006829656554	683.559557850812	-50.4059385866473	4.35040266235451	-2.83290770675774	-0.458262107993639	-4.66549231444707e-06	-0.000924799743209762
0.12	32.0832085038531	-2.63051562241985	682.749394197425	-50.2274460863015	4.34425404076862	-2.87445345321013	-0.499213881153586	-6.10522285806117e-06	-0.00109911133256679
0.13	32.1192945271297	-2.68921037507847	682.102768885997	-50.0762368521376	4.33657273350065	-2.90203376768093	-0.528586277493075	-1.1505217836996e-05	-0.00125062776020099
0.14	32.1182000883373	-2.72558639792258	681.632097291679	-49.9562528030906	4.32755370567802	-2.91660763162848	-0.546965536497708	-2.06468952247164e-05	-0.00137497461540671
0.15	32.0839605755637	-2.7396512344512	681.342225044958	-49.8706504405502	4.31755669489622	-2.91947904499037	-0.555214546853871	-3.3010678361237e-05	-0.00146807791675965
0.16	32.0215327705103	-2.73199150036648	681.22957060152	-49.8216022242717	4.30710028074292	-2.91223736528382	-0.554433613369226	-4.77773196103197e-05	-0.00152636921450798
0.17	31.9365767137028	-2.70374247884158	681.28191645642	-49.8101622056002	4.29683905320713	-2.89668727955424	-0.545912566709999	-6.38586790834969e-05	-0.00154697118912839
0.18	31.8352060037182	-2.65652331179209	681.478893530367	-49.8362059999701	4.28752479903168	-2.87477173416546	-0.53107638506908	-7.99570221794435e-05	-0.00152785177093159
0.19	31.7237187493424	-2.59234241599075	681.79314122043	-49.898448707413	4.27995427277098	-2.84849149554376	-0.511426902458375	-9.46490647453129e-05	-0.00146793720117021
0.2	31.6083228201955	-2.5134806235793	682.192064357676	-49.9945377565163	4.27490757524553	-2.81982516682438	-0.4884834497187	-0.00010648848491179	-0.00136717767726183
0.21	31.4948696669338	-2.42236174018601	682.640053402822	-50.1212114398722	4.27308228179163	-2.79065342729389	-0.463725373001258	-0.000114118668035314	-0.00122656296864036
0.22	31.3886107260479	-2.32142150529539	683.10099061445	-50.2745086596238	4.27502913164367	-2.76269099270047	-0.438539274057741	-0.000116386220779166	-0.00104808924569733
0.23	31.2939892690156	-2.21298619189663	683.540836609517	-50.450011544859	4.28109523392868	-2.73742932754463	-0.414173509722998	-0.000112445372754586	-0.000834681885338445
0.24	31.2144785514389	-2.09917126004968	683.930081314123	-50.6431004411077	4.29138033865095	-2.71609250134178	-0.391701990102539	-0.000101843798860482	-0.000590081803018588
0.25	31.1524743817307	-1.98180865012305	684.24585180343	-50.8492004544275	4.30571078673931	-2.69960780769852	-0.371998665166032	-8.45816013777239e-05	-0.000318704637173692
0.26	31.1092469374756	-1.86240863115703	684.473496311923	-51.0640002433961	4.32363436469346	-2.68859190592615	-0.355723345990905	-6.11370984410029e-05	-2.54827754072873e-05
0.27	31.0849530342388	-1.74215885378541	684.607506504266	-51.2836269179432	4.3444375625373	-2.68335235467864	-0.343318739747355	-3.24555468209841e-05	0.000284300157626677
0.28	31.0787063497202	-1.62195969823346	684.651695262869	-51.5047654099473	4.36718481765982	-2.68390354354494	-0.335017858564982	1.00178336600101e-07	0.000605173902411771
0.29	31.0886995888461	-1.50249148764444	684.618610007355	-51.7247161015241	4.39077739067035	-2.68999524816918	-0.330860355668722	3.48348066384107e-05	0.000931638462676451
0.3	31.1123694942391	-1.38430598495975	684.528226473429	-51.941390335063	4.41402773649864	-2.7011513882829	-0.330715895482493	6.98365379145525e-05	0.00125830830785602
0.31	31.1465931808146	-1.26793210524532	684.406029303576	-52.1532491579275	4.43574376767775	-2.71671609748064	-0.334312404201372	0.000103115412607952	0.00158004056291162
0.32	31.1879026720851	-1.15398419302221	684.28063839202	-52.359195765194	4.45481639432105	-2.73590394736553	-0.341266976963395	0.000132753679201824	0.00189204524670665
0.33	31.2327038440414	-1.04326069343945	684.181179094232	-52.5584361477696	4.47030326545024	-2.75785112051119	-0.351117319553793	0.00015705604738337	0.00218997666061116
0.34	31.2774862728228	-0.936821649740475	684.134616732205	-52.7503250817677	4.4815017798341	-2.78166449409973	-0.363351843241933	0.000174687107541444	0.00247000579986142
0.35	31.3190116930571	-0.836035149528334	684.163279337654	-52.9342155877638	4.48800517914446	-2.80646596078269	-0.377436869387798	0.000184783742322489	0.00272887429009536
0.36	31.3544707931518	-0.742585483530298	684.28277694761	-53.1093292718576	4.48973682652993	-2.83142984257096	-0.392839794101897	0.000187032102461468	0.00296393096366465
0.37	31.3816007307012	-0.65843915192442	684.500492334947	-53.2746626130218	4.48695950538994	-2.85581190296583	-0.409047476994444	0.000181701575113312	0.00317315284111311
0.38	31.3987588296353	-0.585768667333753	684.814769701085	-53.4289405064265	4.48025860208717	-2.8789691795495	-0.425579526134191	0.000169631896897684	0.00335515292708682
0.39	31.4049511785571	-0.52683803117878	685.214868754277	-53.5706235584205	4.47050019105312	-2.90037058743032	-0.441996537389835	0.000152173783414911	0.00350917772626626
0.4	31.3998180383266	-0.483857458801368	685.681686847679	-53.6979701975626	4.45876713718014	-2.91959892751693	-0.457903699762819	0.000131087706703918	0.0036350975468188
0.41	31.3835808514277	-0.458818072432534	686.189187041548	-53.809149114166	4.44627818794194	-2.93634552191204	-0.472950489155664	0.000108409282081541	0.00373339232843861
0.42	31.3569580229535	-0.453319587700296	686.706410661267	-53.9023923755285	4.43429648481676	-2.95039915020128	-0.486827427552506	8.62927147067989e-05	0.00380513485419294
0.43	31.3210583570234	-0.468405275439189	687.199904231528	-53.9761752581231	4.42403485188521	-2.96163124576656	-0.499261064049794	6.68456112247768e-05	0.00385197187203344
0.44	31.2772619845147	-0.504418559387638	687.636356724295	-54.0294057874159	4.41656553486484	-2.96997941555086	-0.510008417265106	5.19690417109236e-05	0.00387610209817832
0.45	31.2270987726555	-0.560894483199562	687.985226715479	-54.061605464193	4.41274173410419	-2.9754312702313	-0.51885208723973	4.32160537829403e-05	0.00388024862754084
0.46	31.1721335920183	-0.636497019214888	688.2211416128	-54.0730628288442	4.41313732296252	-2.97801030954715	-0.525597090910706	4.16800343356043e-05	0.00386762227183456
0.47	31.1138665178524	-0.729009964362478	688.325872255685	-54.0649433664784	4.4180096447987	-2.97776522761177	-0.530070205883502	4.7921613359681e-05	0.00384187204167168
0.48	31.0536541955497	-0.835385225512262	688.289723944792	-54.039342630023	4.42728836111725	-2.97476352365629	-0.532122247376641	6.19394837150754e-05	0.00380701949920689
0.49	30.9926563756356	-0.951847949968182	688.112235946448	-53.9992740632897	4.44059114107733	-2.96908976970844	-0.531633292820616	8.31868583413414e-05	0.00376737497713207
0.5	30.9318092146613	-1.07405355594337	687.802141218165	-53.9485884391401	4.45726472304407	-2.96084834580344	-0.528520456799229	0.000110631581651631	0.00372743547933441
0.51	30.8718245430048	-1.19728762033354	687.376601268257	-53.8918276133407	4.47644773464864	-2.95016995178658	-0.522747455793028	0.000142854416100208	0.00369176613826781
0.52	30.8132121075613	-1.31669612296049	686.859792184476	-53.8340209251139	4.497149812934	-2.93722078401974	-0.514334929870493	0.000178176978191136	0.00366486906457808
0.53	30.7563199720923	-1.42753101409275	686.28097165286	-53.7804375571011	4.5183401802013	-2.92221295881227	-0.50337033511296	0.000214808416740007	0.00365104499000768
0.54	30.7013869316715	-1.52539467800487	685.672198633048	-53.7363120639765	4.539038025374	-2.90541459541979	-0.490016196382696	0.000250998395567764	0.00365425408041828
0.55	30.648600058565	-1.60646673018587	685.065903739987	-53.7065627492304	4.55839688717117	-2.88715795165608	-0.474515607720621	0.000285183404425664	0.00367798261732236
0.56	30.5981503855524	-1.66769772771292	684.492517173838	-53.6955233976944	4.57577575051225	-2.86784413412423	-0.457194065974089	0.000316113954099527	0.00372512197406068
0.57	30.5502802400795	-1.70695670515667	683.978351678082	-53.7067079849124	4.5907907102222	-2.84794317064677	-0.43845699303648	0.000342951809162963	0.00379786559602852
0.58	30.505316811622	-1.7231227886531	683.54391153761	-53.7426254607034	4.60334273079112	-2.82798861193822	-0.418782612723935	0.000365328971084307	0.00389762871535888
0.59	30.463688064908	-1.71611522256385	683.202757605757	-53.804657762832	4.61361909580218	-2.80856629145063	-0.39871017309182	0.000383363440145647	0.00402499444615828
0.6	30.4259189674944	-1.68686064016246	682.961006591238	-53.8930091998016	4.62206841946276	-2.79029737884491	-0.378823823807837	0.000397630563815358	0.00417968880672116
0.61	30.3926080209783	-1.63720096250818	682.817485079668	-54.0067296838208	4.62935138997736	-2.77381637243079	-0.359732757293583	0.000409092671521555	0.0043605861116026
0.62	30.3643860976575	-1.56974955543103	682.764500233285	-54.1438084839955	4.63627153237051	-2.75974514753418	-0.342048491571138	0.000418993336573322	0.00456574502349702
0.63	30.3418614163197	-1.48770687795412	682.789135045087	-54.3013297043547	4.6436920335556	-2.74866457222895	-0.326360401872356	0.000428725662432123	0.00479247429507618
0.64	30.3255559839324	-1.39464953648084	682.874931202623	-54.4756760365239	4.65244591228397	-2.74108548611021	-0.313210783970885	0.000439686200712507	0.00503742584466958
0.65	30.3158398528776	-1.29430821619931	683.003790943068	-54.6627638835596	4.66324743235736	-2.73742098706412	-0.303070838434015	0.000453127305216908	0.00529671134938491
0.66	30.3128700018591	-1.19035028777975	683.157913430875	-54.8582909820357	4.67661259394642	-2.73796197097443	-0.296318984171857	0.000470020843935682	0.00556603713438801
0.67	30.3165404935944	-1.0861819797601	683.321582383394	-55.0579773136181	4.69279579839533	-2.74285771734047	-0.293222827997875	0.000490945254574652	0.00584085096754597
0.68	30.3264497945727	-0.984782963127604	683.482639578131	-55.2577813996845	4.71174842839072	-2.75210301926881	-0.293925929366697	0.000516006037046118	0.00611649361751634
0.69	30.3418898131413	-0.888583204917798	683.633511661583	-55.4540768733192	4.73310323306661	-2.76553294016572	-0.298440213621889	0.000544797080285378	0.00638834783550261
0.7	30.3618594221483	-0.799388277592102	683.771702181844	-55.6437782518539	4.75618621520555	-2.78282577266659	-0.306644524400419	0.000576406911907777	0.00665197782551902
0.71	30.3851031237744	-0.718355277533353	683.899712796429	-55.8244097142532	4.78005537358425	-2.80351421658646	-0.318289399477527	0.000609470261422764	0.00690325322625963
0.72	30.4101732620236	-0.646017450275453	684.02441233558	-55.9941159743644	4.80356335937843	-2.82700422538476	-0.333007744264962	0.000642261496307018	0.00713845300721345
0.73	30.4355119869458	-0.582351877846446	684.155924805426	-56.1516195562584	4.82543905870761	-2.85260043949602	-0.350330703586909	0.000672822811291214	0.00735434630156885
0.74	30.4595472219703	-0.526881456749601	684.306152729053	-56.2961334568149	4.84438148958964	-2.87953667218361	-0.36970772911802	0.000699116834533556	0.0075482488717578
0.75	30.4807953660037	-0.478800126180126	684.487086366429	-56.4272419121891	4.85915833960365	-2.9070095756534	-0.390529629591405	0.000719190874504522	0.00771805547406504
0.76	30.4979625284221	-0.437109058221166	684.70906929236	-56.5447644473737	4.86870106034975	-2.93421341920202	-0.412153282730753	0.000731338654595617	0.00786224975175887
0.77	30.5100358543816	-0.400751365903289	684.979194821232	-56.6486193778102	4.87218870972674	-2.96037387271394	-0.433926678377575	0.000734245282176384	0.00797989438841713
0.78	30.5163569977553	-0.368733795437685	685.299995577634	-56.7387023796885	4.86911366734913	-2.98477881024319	-0.455213038758057	0.000727102468873414	0.00807060507601126
0.79	30.5166710213155	-0.340225727707342	685.668561317918	-56.814793721929	4.85932385972559	-3.0068044185417	-0.475412906888727	0.00070968359660764	0.00813451238797755
0.8	30.5111458633216	-0.314628423782504	686.076180450364	-56.876504461205	4.84303808864943	-3.0259352903537	-0.49398329000631	0.000682371877004606	0.0081722158792288
0.81	30.5003598598076	-0.291610552598141	686.508552229886	-56.9232676587357	4.82083328972577	-3.04177766755433	-0.51045317614328	0.000646139197018353	0.00818473463255402
0.82	30.4852574563526	-0.27110934370085	686.946563739072	-56.9543758855029	4.79360486662782	-3.05406553266775	-0.524434995727339	0.000602477798673296	0.00817345800355004
0.83	30.4670759533137	-0.253299914005902	687.367573304572	-56.9690613905337	4.76250345319915	-3.06265978308044	-0.53563186464173	0.000553291198800633	0.00814009947965186
0.84	30.4472486641383	-0.238538143940121	687.747094671365	-56.9666107716534	4.7288533637213	-3.06754121489477	-0.54384070759224	0.000500754263939295	0.00808665541248789
0.85	30.4272919978365	-0.227284688065958	688.06073832143	-56.9465022321347	4.69405944247196	-3.06879845187121	-0.548951604981449	0.000447154785903734	0.0080153690260845
0.86	30.4086855064573	-0.220019124554955	688.286241175589	-56.9085508801445	4.65950989856766	-3.06661224646842	-0.550943913955451	0.000394730083002395	0.00792869872991242
0.87	30.3927547195311	-0.217153779544406	688.405405802136	-56.8530462771209	4.62648294280479	-3.06123773282048	-0.549879865211285	0.000345512069723724	0.00782928859385584
0.88	30.3805665373723	-0.218956391687289	688.405776072422	-56.7808666866765	4.59606461721517	-3.05298621667131	-0.545896414751035	0.000301193017287114	0.00771993807955204
0.89	30.3728460636903	-0.225489574949042	688.281897433926	-56.6935562013437	4.56908416886105	-3.04220794945734	-0.539196124238909	0.00026302208206244	0.00760356791687669
0.9	30.3699220888425	-0.236573131661486	688.036044734642	-56.593353979833	4.54607176222675	-3.02927707054896	-0.530037755379378	0.000231739864543148	0.00748317941518813
0.91	30.3717061208904	-0.251772858014391	687.678345758723	-56.4831689410696	4.52724138755748	-3.01457954212806	-0.518727104789068	0.000207555039215161	0.00736180544175045
0.92	30.3777070928988	-0.270416803834757	687.226280339003	-56.3664980656125	4.51249967438116	-2.99850448291139	-0.50560839880371	0.000190163708769434	0.00724245261702397
0.93	30.3870808838891	-0.291637247752393	686.703588555463	-56.2472915196663	4.50147914480703	-2.98143887265531	-0.491056342659173	0.000178808804200948	0.00712803573349759
0.94	30.3987108315802	-0.314434172436708	686.138672408987	-56.1297726868926	4.49359242457468	-2.96376519290152	-0.475468708475024	0.000172373775532639	0.00702130675110808
0.95	30.411312741413	-0.337753991061988	685.56261902814	-56.0182254299143	4.4881022401112	-2.94586123145404	-0.459259182025797	0.000169502184913701	0.00692478174685951
0.96	30.4235557400431	-0.360575859839881	685.007006112818	-55.9167641231667	4.48420080613666	-2.92810104227821	-0.442850092791918	0.000168732805890126	0.00684066977095264
0.97	30.4341888717443	-0.381997228658005	684.501669099653	-55.8291039070559	4.48109154851058	-2.91085594219682	-0.426664637976334	0.000168638617573671	0.0067708076630329
0.98	30.4421627233229	-0.401310382275127	684.072612819365	-55.758349030715	4.47806605980467	-2.89449445154067	-0.411118279682797	0.000167957797041161	0.00671660458373363
0.99	30.4467356470363	-0.418062588320453	683.740237926967	-55.7068160283864	4.47456974651985	-2.87938024459137	-0.396609134516852	0.000165705536564158	0.00667899945499296
1	30.4475553155761	-0.432094009046772	683.518025218093	-55.6759058992123	4.47025074094965	-2.86586745045706	-0.383507366902603	0.000161257236573298	0.0066584338258328
1.01	30.4447082973368	-0.443549606512987	683.411781475011	-55.6660356464218	4.46498821464608	-2.854293007196	-0.372143816590478	0.00015439623533401	0.00665484199728973
1.02	30.4387329251683	-0.452863685240017	683.419502164865	-55.6766348033112	4.45889810382653	-2.84496618362456	-0.36279831074301	0.000145322505382412	0.00666765958757481
1.03	30.4305937341541	-0.460718253024782	683.531853366036	-55.7062073350493	4.45231627408797	-2.83815580096912	-0.355688306415203	0.000134622355345533	0.00669585105808308
1.04	30.4216189134231	-0.467978810013757	683.733222359366	-55.7524540084348	4.44576113576078	-2.83407606587054	-0.350958657850333	0.000123202751829945	0.00673795596890343
1.05	30.4134052876072	-0.475613278494036	684.003238024427	-55.8124454245143	4.4398794998217	-2.832872226046	-0.348673386092047	0.000112197048563093	0.00679215281028155
1.06	30.4076980564123	-0.48460137012919	684.318622757512	-55.8828318366354	4.43538088443107	-2.83460744634348	-0.348810331475836	0.000102851362932964	0.00685633814219114
1.07	30.4062546463171	-0.495842608242813	684.655210529503	-55.9600729839202	4.43296642325311	-2.8392523528918	-0.351259483315062	9.64023544102804e-05	0.00692821753560074
1.08	30.4107033864943	-0.510071393811524	684.989953295542	-56.0406697102471	4.43325891095256	-2.8466785964457	-0.355825603099607	9.39576338058294e-05	0.00700540360430414
1.09	30.4224081966057	-0.527786905703623	685.302741325015	-56.1213792398507	4.43674032028461	-2.85665754677292	-0.362235494112284	9.63894817367804e-05	0.00708551546084303
1.1	30.4423500273783	-0.549204308429447	685.577881815534	-56.1993976339912	4.44370236243402	-2.86886486569279	-0.370149938007171	0.000104251090208817	0.00716627344151961
1.11	30.4710344648012	-0.574231819906183	685.805112694474	-56.2724960132987	4.4542144107006	-2.88289124702782	-0.379179944119231	0.00011772234136526	0.0072455830829001
1.12	30.5084328097672	-0.602475839011922	685.980071879367	-56.3391013270437	4.4681114832084	-2.89825909673161	-0.38890657469288	0.00013658941886486	0.00732160314985712
1.13	30.5539612568326	-0.633273760484876	686.104192579473	-56.3983174119646	4.48500313149219	-2.91444440138281	-0.398903257698273	0.000160259541947355	0.00739279394265129
1.14	30.6064997479775	-0.665751547547167	686.18404796463	-56.4498873688191	4.50430217622483	-2.93090254575725	-0.408759216624543	0.000187809052991901	0.0074579439636458
1.15	30.6644489290576	-0.698900825907828	686.230218965868	-56.494103424228	4.52527044076193	-2.94709643584717	-0.418102465973167	0.000218060203173819	0.00751617504275887
1.16	30.7258206542824	-0.731668421249652	686.255802559316	-56.5316749805354	4.54707711809854	-2.96252500179386	-0.426620764419284	0.000249679484440821	0.00756692792223319
1.17	30.7883549175596	-0.763050060022286	686.274710671363	-56.5635690825692	4.56886430212504	-2.97675002520843	-0.434078994280392	0.00028128845018799	0.00760993183727368
