Time [s]	GRFml [N]	GRFap [N]	GRFv [N]	Mml [N.m]	Map [N.m]	Mv [N.m]	Mfree [N.m]	COPml [m]	COPap [m]
0.01	-3.25833394466482	0.685531399914236	629.540015703382	-1.21538347856358	-0.812311425623576	0.295956322042115	-0.289050663315012	-0.00374055522553784	0.0190364771836289
0.02	-3.66016425701783	0.780235125768169	623.97012475891	-1.28014744288403	-0.669709477661081	0.271264145261156	-0.263097270800773	-0.00386561112455841	0.0192655245202771
0.03	-4.1394645774794	0.855277435796957	618.915045236328	-1.35146828899863	-0.512986835497636	0.253756865330461	-0.244035370250731	-0.00399989245755938	0.0195173028173639
0.04	-4.75298587735964	0.893584540917203	614.816855372571	-1.43275436512324	-0.325956644651388	0.24924108329391	-0.237474397058594	-0.00414790771283491	0.019816881582745
0.05	-5.50572373962422	0.888844247725138	612.041076691128	-1.5282049179221	-0.10721374007408	0.261034413723269	-0.246658570278029	-0.00431509005718578	0.0201656154474863
0.06	-6.34531329943733	0.848243159087491	610.845134167015	-1.64317479094938	0.126460832470074	0.289441207486541	-0.271947768037063	-0.00450831230559845	0.0205360715016243
0.07	-7.17415552363262	0.791683261298803	611.348485475201	-1.78380474501532	0.341614252688085	0.331859786529233	-0.310894115291893	-0.00473544373159673	0.0208749317955094
0.08	-7.87441595701219	0.747529066539742	613.511548628616	-1.95600388644311	0.493744626075309	0.383451369907949	-0.358858817255113	-0.00500406357607819	0.0211123921701484
0.09	-8.33745281186797	0.745822972685813	617.130129747732	-2.16408304566873	0.535345872730714	0.438181448066025	-0.410001460892528	-0.00531973732781432	0.0211751391536139
0.1	-8.48866061378607	0.810615139707283	621.849073450101	-2.40945370293916	0.42437939303855	0.489979129765809	-0.458407757357305	-0.00568441566658684	0.0209995461933268
0.11	-8.30100293534257	0.953384127910908	627.195099767052	-2.68979288119562	0.131383306252647	0.533755718927749	-0.499108335509827	-0.00609548046344854	0.0205422005257659
0.12	-7.79466137054776	1.16935459602309	632.625498267242	-2.99894061523535	-0.356001382008466	0.566076712801802	-0.528779826417724	-0.00654575666681145	0.0197859630199927
0.13	-7.02479182248056	1.43785145209231	637.586963869598	-3.32759003149804	-1.03157606033693	0.585379209605568	-0.54600289017625	-0.00702451076134292	0.0187410917715772
0.14	-6.06288363724188	1.72680756170361	641.577299940864	-3.66461517123234	-1.87198938899739	0.591747973027499	-0.551064553710626	-0.00751916725411028	0.0174421499641729
0.15	-4.97861279244943	2.00042089135334	644.201847856601	-3.99871823984941	-2.8402738369765	0.586378885832318	-0.545409574268528	-0.00801728123274603	0.0159421905368828
0.16	-3.82804900917901	2.22804598602579	645.216456587719	-4.32000384879868	-3.89053411316024	0.570936750519837	-0.530937066080709	-0.00850825224381579	0.0143059431549768
0.17	-2.65112279948835	2.3919766692831	644.549975633844	-4.62111249609283	-4.97282033756794	0.547031097233367	-0.509376381473666	-0.00898434848647878	0.0126034717153169
0.18	-1.47753357149488	2.49197884335652	642.302017829602	-4.89765507523882	-6.03743193148827	0.51598146890295	-0.48194507990314	-0.00944079204949633	0.0109052007580518
0.19	-0.337171235871059	2.54523164142549	638.71606630929	-5.14785868641648	-7.03821669173072	0.478936917997361	-0.449396865043577	-0.00987488751587884	0.00927855430258151
0.2	0.730261223172123	2.58152534660118	634.133191937842	-5.37153240928992	-7.93476103295628	0.437285812204018	-0.412434456173016	-0.0102844184685664	0.00778590699150611
0.21	1.67099489508026	2.63482866920008	628.93637172765	-5.56865804082921	-8.69364313231998	0.393181613721141	-0.372330730571855	-0.010665758798771	0.00648322942029589
0.22	2.42046297487968	2.73334314883211	623.498065949048	-5.73806387294233	-9.28909843302732	0.349952485337108	-0.331511988658977	-0.0110123107788477	0.00541874343317045
0.23	2.91323096962263	2.89064771981576	618.143060227539	-5.87669575462227	-9.70350353390524	0.312176236853427	-0.293840532436895	-0.0113139308505813	0.00463105396943664
0.24	3.09636130285103	3.10037163871822	613.134245820336	-5.97990455296874	-9.92801006534125	0.285286300682133	-0.2644014129463	-0.0115578656049925	0.00414653070455179
0.25	2.94208433087405	3.33604148421466	608.681857831626	-6.04289696200553	-9.96346165407627	0.27470910544329	-0.248737701078018	-0.0117313505860553	0.00397610987263874
0.26	2.45631347767273	3.55649394655839	604.96873036476	-6.0630852699036	-9.82143995923789	0.284683887826677	-0.251654399987692	-0.0118254616938989	0.00411210443979604
0.27	1.68119442179947	3.71580849196938	602.178011245001	-6.04263928502554	-9.52498460918074	0.317041391047161	-0.275872547130272	-0.0118392063923103	0.00452596082265994
0.28	0.691644351764839	3.77543319131672	600.50793994744	-5.9902653606788	-9.10832629115001	0.370279894546771	-0.320910455454586	-0.0117824430669194	0.00516806805476344
0.29	-0.412970189670438	3.71539226327539	600.161984741104	-5.92127959072693	-8.61497787803841	0.439250311950512	-0.382561198620019	-0.0116762641594805	0.00597059035062769
0.3	-1.520448445114	3.54143660682967	601.311234871755	-5.85547636265462	-8.09381625256127	0.515641884295267	-0.453213960706094	-0.011550087857258	0.00685378449233076
0.31	-2.51917638171347	3.28583146107396	604.036877500028	-5.81303326176883	-7.59333189811755	0.589266376740705	-0.523054154554653	-0.0114357646030535	0.00773542268756883
0.32	-3.31198836768641	3.00104771752128	608.270058147375	-5.80949444604103	-7.15488080723212	0.649916491764023	-0.581926522679463	-0.0113601746360731	0.00854196471273899
0.33	-3.82896619746475	2.74757520750844	613.750749560722	-5.8514132912839	-6.80631401067561	0.689385746288971	-0.621429694785403	-0.0113386012492007	0.00921932519830804
0.34	-4.03733411319499	2.57886896749014	620.024339229428	-5.93424149656843	-6.55755056397644	0.703145953712508	-0.63670220105121	-0.0113712090834069	0.00974079151875801
0.35	-3.94644301308759	2.52750041671199	626.484918520236	-6.04344097666803	-6.39936490799578	0.691227359912344	-0.6274054373768	-0.0114440988011428	0.0101100654125201
0.36	-3.60626615641046	2.59650131950808	632.460662412551	-6.15873100718828	-6.30591583883509	0.658037101394999	-0.597609133937593	-0.0115348753630625	0.0103584887585751
0.37	-3.09901302413337	2.75857841444339	637.323674559318	-6.26023795960432	-6.24056572050119	0.611137260469296	-0.554587904405658	-0.0116209941384685	0.0105369757142509
0.38	-2.52513733101279	2.96366487616831	640.598553823208	-6.33452888323171	-6.16364315718801	0.559300211806303	-0.506852997687417	-0.0116879847404001	0.0107045528932186
0.39	-1.98655765525459	3.15281395671887	642.043322911908	-6.37841127542386	-6.04028905155585	0.510372052725182	-0.461971696753086	-0.0117344879269662	0.0109162614241386
0.4	-1.57068171666503	3.27450123781868	641.683272072263	-6.39904312852251	-5.8465557810219	0.469534535561791	-0.424793918441847	-0.0117719967820192	0.0112132402734371
0.41	-1.33850636430369	3.29860947213778	639.79032320684	-6.41010216589472	-5.57246657871986	0.438442109187827	-0.396589597800821	-0.0118189597964585	0.0116171084283627
0.42	-1.31882897410923	3.22398820629845	636.813973366233	-6.42508981764002	-5.22158305083979	0.415460271752565	-0.375338239876183	-0.0118908631954712	0.012129562782085
0.43	-1.50900260763286	3.07733061910704	633.28105440352	-6.44983883719061	-4.80749813733032	0.396922036997322	-0.357083443498173	-0.0119893860286721	0.0127367949467175
0.44	-1.88129266997155	2.90363818463971	629.687948457328	-6.47663563139932	-4.34833762209732	0.37903926194135	-0.33796357167074	-0.0120942314924875	0.013417248737853
0.45	-2.39306816127905	2.75100076741866	626.409617458846	-6.48197630580349	-3.86069810751734	0.359925253399225	-0.316332820975481	-0.0121606430089072	0.0141505906248878
0.46	-2.99873275729492	2.65408864660768	623.645266164399	-6.42899734311038	-3.35447226587002	0.341141804564631	-0.294339826472906	-0.012124122021138	0.0149255941375125
0.47	-3.6612106060206	2.62115660880858	621.411883546014	-6.27435659234289	-2.82977630104652	0.328282353745715	-0.278443067615164	-0.011911919909267	0.0157449027310594
0.48	-4.36077145041907	2.62839633676138	619.585911775268	-5.97813173279102	-2.27676755801246	0.33032301685445	-0.278591839630361	-0.0114590050752962	0.0166252719946398
0.49	-5.0990959470497	2.62344008724781	617.981806612253	-5.51445271814644	-1.67857073407726	0.357774535438563	-0.30613938520222	-0.0107248834713946	0.0175928393771244
0.5	-5.89703464960023	2.53731925522903	616.44658451984	-4.8802932388086	-1.01687000543656	0.419990856024694	-0.370907761950601	-0.00970720647498213	0.0186741253042773
0.51	-6.78573433445176	2.30193078077491	614.944105741975	-4.10018239797953	-0.279063047700754	0.522257209920975	-0.478102624075526	-0.0084486557974579	0.0198846372713962
0.52	-7.79259270201904	1.86866353488687	613.603882027815	-3.22548294762339	0.534642029014134	0.663411516632275	-0.62589329600088	-0.00703503291892604	0.0212178346467657
0.53	-8.92534317886254	1.22359803579432	612.717299761007	-2.32810286680643	1.40600582386692	0.834689177780861	-0.80437381257752	-0.00558445711604671	0.022637503609399
0.54	-10.158725999017	0.395578127390265	612.677878535262	-1.48976222909894	2.29699564297146	1.02021566803771	-0.99630826736047	-0.00422960101239289	0.0240760884014679
0.55	-11.4280693595276	-0.544860620031432	613.878026547672	-0.788920649932847	3.1523868351117	1.19916375160579	-1.17961431951963	-0.00309646158940335	0.0254402559934152
0.56	-12.6325562064311	-1.49569642600999	616.588076764778	-0.287957351707464	3.90664876164912	1.34915888373174	-1.33108193774511	-0.00228390634380282	0.0266232287499601
0.57	-13.6484341362788	-2.34083639155755	620.850017593127	-0.0231026770542451	4.49399624481389	1.45019107665495	-1.43050117151491	-0.00184801201642903	0.0275216799091394
0.58	-14.3497721088884	-2.97134817156334	626.416059476741	0.000986654143549559	4.85966750657597	1.48817408040628	-1.46428141511007	-0.00179414383454379	0.0280537464028155
0.59	-14.6324264411938	-3.30629944023765	632.751543736198	-0.188939433422623	4.97010684210896	1.45740969070904	-1.42780319090201	-0.00207811219774401	0.0281743163690162
0.6	-14.4361578554603	-3.30894153797841	639.105748792557	-0.540367227233813	4.81987625957152	1.36151157113272	-1.32608472450373	-0.00261597443252015	0.027884278182171
0.61	-13.7603555242237	-2.99471807945875	644.637331497302	-0.985039439215901	4.43374883993465	1.21271065053123	-1.17274888999858	-0.00330047395353106	0.0272316971323062
0.62	-12.6701939124856	-2.4290750879765	648.567859737605	-1.45150214036385	3.86339394074614	1.02978896651954	-0.987619106584721	-0.0040209814770682	0.0263045660380614
0.63	-11.2917666503463	-1.71510598382315	650.330270160907	-1.87790024781854	3.17914037791502	0.83509590456249	-0.793477671436254	-0.00468326124703844	0.0252164590493415
0.64	-9.79643708150566	-0.973306662738575	649.680307097413	-2.22269040525699	2.4582812391374	0.651174754814908	-0.612573828201524	-0.0052254713739105	0.0240877617354016
0.65	-8.37619671220419	-0.317617902727802	646.747290608049	-2.4712764928462	1.77207739850213	0.497502386154916	-0.463411639896449	-0.0056274923370998	0.0230259298243387
0.66	-7.21328030095762	0.167042993017931	642.013649418289	-2.6372743372445	1.17389898632207	0.387773116489452	-0.358239376124147	-0.00591187322046482	0.0221083509294628
0.67	-6.44866173386528	0.44076998975839	636.227482101168	-2.75809997571585	0.690762720806464	0.328077254950275	-0.301547341822359	-0.0061362375380235	0.021370873136847
0.68	-6.15512961742592	0.51465272420013	630.265883285611	-2.8857040753224	0.319905300819938	0.316239861590914	-0.289770221448577	-0.00637866826370637	0.0208040327179926
0.69	-6.32093175040692	0.445609661964183	624.976355191502	-3.07433279843504	0.0310792508330263	0.342472153963592	-0.312263941096862	-0.00671908915870467	0.020357626642184
0.7	-6.84891774149638	0.321576848174625	621.027685132137	-3.36793511154035	-0.225870861446819	0.391318305189488	-0.353461103845389	-0.00722063280903429	0.0199527382702294
0.71	-7.57339406153773	0.240786263143727	618.79957549992	-3.79003143922206	-0.509688599806845	0.444650766305475	-0.395901800753643	-0.00791513018791745	0.0194988788636873
0.72	-8.29282207687395	0.290093044347985	618.332408117487	-4.33837890254726	-0.8750069217919	0.485217714536056	-0.423626356033877	-0.00879601402222874	0.0189128300158414
0.73	-8.81202874134938	0.52725180458201	619.346103928311	-4.98565412411855	-1.36098107490826	0.500054894901191	-0.425274312770444	-0.00982019069520823	0.0181353367825874
0.74	-8.98422688518293	0.970773388564499	621.322341671155	-5.68586936595836	-1.98369339195939	0.483027259778116	-0.396233318004273	-0.0109181892652466	0.0171421969048126
0.75	-8.74225411923361	1.59890989559405	623.630478176226	-6.38475057754853	-2.73389664928814	0.435915359846845	-0.339359201117778	-0.0120097574079771	0.0159475206437444
0.76	-8.11073088388038	2.35701564609241	625.667756190883	-7.03129272237168	-3.58037714233462	0.367791321212444	-0.264116119750866	-0.013020705029348	0.0145987535279854
0.77	-7.19588258481728	3.17064554752959	626.981618742023	-7.58750653495546	-4.4778584333712	0.292850389378895	-0.184370915822211	-0.0138966596903339	0.0131649998426122
0.78	-6.15605077579547	3.96076042508654	627.34735982885	-8.03405965388351	-5.3773160873749	0.227244379313503	-0.115395924092811	-0.0146105559180598	0.0117217137317137
0.79	-5.16134488724317	4.65749714527604	626.786732349648	-8.37086320446836	-6.23613221263155	0.185680856974461	-0.0707870270860471	-0.0151627416327107	0.0103354982140937
0.8	-4.35360469166644	5.2099686015188	625.528996347572	-8.61319812778142	-7.02579126020995	0.178544804015582	-0.0599502434776551	-0.0155748368851122	0.00905240021952464
0.81	-3.81698134304851	5.59104670215771	623.93045477228	-8.78518914225309	-7.73567690560923	0.210089707062496	-0.0865895879169521	-0.0158801574942302	0.00789187637559041
0.82	-3.56546244370713	5.79750757230047	622.377435772211	-8.91293179008069	-8.37266306846403	0.277923431365853	-0.148335975006742	-0.0161140909831879	0.00684696473745344
0.83	-3.54815397066839	5.84684172375568	621.198599128561	-9.01925318719453	-8.95722840437849	0.373697880196998	-0.237396784527328	-0.0163071851042251	0.00588966860140944
0.84	-3.6681340016633	5.77226911403306	620.605865081781	-9.12114141010881	-9.51747150209129	0.48469387836756	-0.341949613480716	-0.0164822270396892	0.00497957451441455
0.85	-3.80786429926903	5.61716039535241	620.672199448494	-9.22972665593747	-10.0825535069523	0.595911254986326	-0.447965781883075	-0.0166548887881114	0.00407346764409505
0.86	-3.85410592769984	5.42946934631087	621.343164058278	-9.35179325241391	-10.6768348554537	0.692305708728786	-0.541192095542527	-0.0168362516755267	0.00313406325262428
0.87	-3.71746189121153	5.25628902317101	622.47127496789	-9.49145897693319	-11.315519781236	0.760898175373791	-0.609083023943664	-0.017035130742231	0.00213663498611749
0.88	-3.34468122521198	5.13849713157375	623.859637610477	-9.65093907871671	-12.0021990932957	0.792557377525289	-0.642511640393993	-0.0172586507578314	0.00107295516913208
0.89	-2.72423911164495	5.1056820171118	625.303540185818	-9.83002466925263	-12.7284092986697	0.783291023683667	-0.637084552147582	-0.0175106665865548	-4.76279466114504e-05
0.9	-1.88660896714176	5.17195994742498	626.623429501323	-10.0247006983916	-13.475183406656	0.73488761389005	-0.59387072811165	-0.017788844432378	-0.00119995571965864
0.91	-0.900166888660379	5.33361809332896	627.687262512448	-10.2258564535806	-14.2164389282651	0.654770759901454	-0.519373029365022	-0.018082008362688	-0.00234750150232571
0.92	0.137316204096322	5.56949063285546	628.422787986001	-10.4190892221118	-14.9238197506175	0.555002801205491	-0.424659280162606	-0.0183693995777654	-0.00344904767676435
0.93	1.11207054190607	5.84450177626334	628.820605751508	-10.5861713973194	-15.5722666718828	0.450515519484547	-0.323725524736167	-0.0186228007825038	-0.00446669336396338
0.94	1.91233331569982	6.11600441811305	628.928000880285	-10.708042679998	-16.145249057315	0.356821581902756	-0.231345410404627	-0.0188113439134264	-0.00537377022096236
0.95	2.44889905117215	6.34168766006843	628.83318327411	-10.7685055433995	-16.6384331403323	0.287609558766137	-0.160801611736148	-0.0189077051069969	-0.00616092295863624
0.96	2.67418176881371	6.4872489171308	628.640766165296	-10.7574237719891	-17.0607461121398	0.252686158276721	-0.121941475232876	-0.018893731715052	-0.00683873102583821
0.97	2.59471491290708	6.5319662788951	628.442001056694	-10.6723009533679	-17.4323492778989	0.25666941539379	-0.119927902786356	-0.0187635956513286	-0.00743590036766872
0.98	2.27269884978678	6.4708212052162	628.286246344072	-10.5176217922045	-17.7798285937365	0.298667602407856	-0.154889050875625	-0.0185233160208319	-0.00799311381950096
0.99	1.81470033010672	6.31276715685253	628.161721465809	-10.3020927199714	-18.1297000176202	0.372949537507092	-0.222458740752344	-0.0181866874567187	-0.00855378839521631
1	1.34920975565038	6.07582789790878	627.992547436571	-10.0346566878855	-18.5018424876533	0.470388243370921	-0.315003912675779	-0.0177688866766775	-0.00915387492052466
1.01	0.998243327268683	5.78060525799676	627.655225645525	-9.72062836704333	-18.904529519638	0.580300940166217	-0.423204462037054	-0.0172798946910815	-0.00981315444049824
1.02	0.850268167830843	5.44420501667385	627.012100079195	-9.35933891718661	-19.332302757678	0.692251807439242	-0.537610456633639	-0.0167200702753225	-0.010530126621591
1.03	0.941610218435561	5.07641752872182	625.953851199261	-8.94426850397029	-19.7671527544143	0.797439251955673	-0.649854599030167	-0.0160796517587002	-0.0112816589034402
1.04	1.25112843227702	4.679263139672	624.439653413421	-8.46589354660978	-20.1825917442285	0.8894379529386	-0.753326018208829	-0.0153427905075117	-0.0120273577945914
1.05	1.7090571087787	4.24994552169119	622.523602681599	-7.91660264916722	-20.5494912130731	0.964265507340329	-0.843280708618598	-0.0144952659403602	-0.0127174944340113
1.06	2.21682196306975	3.78616921067939	620.359524877871	-7.29630210349388	-20.8422151485639	1.01993689952598	-0.916528424566053	-0.0135337361024409	-0.0133025775825738
1.07	2.67169269648309	3.29200073826077	618.182210142291	-6.61697066518842	-21.0436767211257	1.0557989192492	-0.970947373329	-0.0124736556951726	-0.0137424887474394
1.08	2.98929692076721	2.78222221570756	616.269546789136	-5.90456775950447	-21.148403750069	1.07195939773014	-1.00509987076855	-0.0113531124481242	-0.0140134616122883
1.09	3.1184751110505	2.28351215609527	614.894886556693	-5.19733965392524	-21.1633293267391	1.06903479406005	-1.01814423055571	-0.010230817817475	-0.0141119224254204
1.1	3.04605873426854	1.83167866356666	614.280815982107	-4.54054387552257	-21.1066050633055	1.04826784790417	-1.01008618097633	-0.00917809375796119	-0.0140550391378459
1.11	2.79267312007157	1.46531379894945	614.56400474023	-3.97864950764399	-21.0050876511223	1.01188137380837	-0.982243227402078	-0.00826646411992948	-0.0138784916352273
1.12	2.40326801450188	1.21732281448001	615.776792608232	-3.54685928747755	-20.8912021859561	0.963409862390803	-0.937674347432036	-0.0075538450548448	-0.0136323067880595
1.13	1.93685582280355	1.10651556164968	617.846285932105	-3.26408612742817	-20.7996885322587	0.907739318581377	-0.881305160276077	-0.00707288077499779	-0.0133755804819476
1.14	1.45877555724302	1.13162009682191	620.607690876371	-3.12919226118875	-20.7644333510123	0.850693149030008	-0.819566702649298	-0.00682448139003322	-0.0131706548280578
1.15	1.03640446765609	1.26960641937506	623.826568990989	-3.12144163246474	-20.815351018005	0.798183897208214	-0.759532134755695	-0.0067782095383474	-0.0130770319465184
1.16	0.736808630530448	1.47916116702115	627.22484764459	-3.204975760286	-20.9752245532148	0.755133186350328	-0.707718527270593	-0.00687925756559493	-0.0131451722549549
1.17	0.623512538559905	1.70876574030003	630.507030865597	-3.33604806045134	-21.256575836426	0.724473646866365	-0.668854823599396	-0.00705995411533866	-0.0134104329179891
