Time [s]	GRFml [N]	GRFap [N]	GRFv [N]	Mml [N.m]	Map [N.m]	Mv [N.m]	Mfree [N.m]	COPml [m]	COPap [m]
0.01	0.234749270669585	-0.235603922721296	612.330136860771	30.3622878979544	13.7464484561883	0.915785863136336	-0.898881207290178	0.000141783921316585	0.00733914209035214
0.02	0.0187668111790185	-0.191411313029358	611.513571160199	30.3428030050558	13.6350180553839	0.91236893535971	-0.907168872727091	0.00017887724285981	0.00719215542052698
0.03	-0.176195697574332	-0.153851087715685	610.738921797952	30.32612033135	13.5238040095429	0.911911890690243	-0.917226567452844	0.000216973046785363	0.00704391803822285
0.04	-0.328638677183382	-0.131401386760006	610.042400237984	30.316112753903	13.4128738657899	0.916948213069491	-0.93033886203274	0.000259310311514827	0.00689315394139772
0.05	-0.42048433331253	-0.132217976486071	609.460185682367	30.3157659987383	13.3027387300085	0.928891317251257	-0.946850599247159	0.000307730546253326	0.00673935816782273
0.06	-0.439622551340558	-0.162632158940671	609.02527074909	30.3264729456179	13.194578208014	0.947729085498334	-0.966020051921025	0.000361792203305678	0.00658328941375441
0.07	-0.382611771142828	-0.225042145654736	608.762216720831	30.3473761729763	13.0904192583318	0.972001341662874	-0.986173929777438	0.000418122195588122	0.00642744907491366
0.08	-0.256773597787309	-0.315908360117687	608.682237746369	30.3749318294966	12.9932119010331	0.999067362177501	-1.005118475382	0.000470092683080514	0.00627636679783883
0.09	-0.0807949512356745	-0.424766879537692	608.780815029541	30.4029011468923	12.9066950507543	1.02560980171548	-1.02069024826195	0.000507985335236549	0.00613644241035816
0.1	0.116834549582187	-0.534982958277532	609.038675217066	30.4229254204119	12.8349580260381	1.04826691328389	-1.03129096935728	0.000519833966678984	0.00601516559070303
0.11	0.30172943162474	-0.626425662442756	609.425343252237	30.4257075906649	12.7817016583932	1.0642529416446	-1.03625504894914	0.000493050089051095	0.00591975468476003
0.12	0.439404144922543	-0.679556555882279	609.903490011537	30.4026457885087	12.7493508319761	1.07182945280101	-1.03594725036738	0.000416723924107743	0.00585553277129064
0.13	0.501901937145947	-0.679858140501666	610.432393254661	30.3476008748186	12.7382911673195	1.07052984902274	-1.03156855380833	0.000284217479997517	0.00582455114590447
0.14	0.47380870639786	-0.621305119474696	610.969865134487	30.2583909422241	12.7465232762716	1.06110487695583	-1.02473688825844	9.54372518866542e-05	0.00582496419546391
0.15	0.3561517865404	-0.507799276318686	611.473341190597	30.1376286290641	12.7699200945812	1.04522971414692	-1.01697889581571	-0.000141895593739116	0.00585143186480974
0.16	0.167028359158666	-0.352085779188841	611.901699647304	29.9926531536382	12.803070278796	1.02507248679385	-1.00929751599845	-0.000412506405664703	0.00589646070508298
0.17	-0.0614936509874293	-0.172452788631691	612.219246918659	29.8345221456688	12.8404757336063	1.00285324451248	-1.00195798430371	-0.00069552900356995	0.00595224617499562
0.18	-0.289756517732304	0.0117732808653241	612.402130150069	29.6762576816461	12.8777357030777	0.980513401908391	-0.994566831095664	-0.000967869993801829	0.00601239906004097
0.19	-0.478853207364646	0.184535367801032	612.445730314938	29.5307208724237	12.9123514370553	0.959571066210128	-0.986423804948271	-0.00120824911155248	0.0060730041824783
0.2	-0.599009599853088	0.335838303860647	612.370194269396	29.4085701918363	12.9439222333558	0.941170456515392	-0.977033632776112	-0.00140094920131528	0.00613273628541444
0.21	-0.635974202761933	0.462255597723807	612.220973327946	29.3167207754941	12.9737170457491	0.926263970910638	-0.96660231024001	-0.00153835115489853	0.00619212125841079
0.22	-0.593811941284228	0.565206627920761	612.062392844442	29.2575802477038	13.0038099016619	0.915815648791127	-0.956332330350296	-0.00162165373828127	0.00625232688090277
0.23	-0.493381793874295	0.647862965525749	611.964566249639	29.2291359007136	13.0360881510553	0.910902975769094	-0.948379628033741	-0.00165968679741124	0.0063139851597408
0.24	-0.366878653902789	0.71201241692405	611.986512429779	29.22576843969	13.0714478644608	0.912628009861771	-0.945431819216865	-0.00166625113596419	0.00637646579462914
0.25	-0.249833759318858	0.756163308535147	612.160083727764	29.2395251778822	13.1093970910916	0.921821527730106	-0.949986980935248	-0.00165678519728518	0.00643780182288067
0.26	-0.172614581432558	0.775633241183438	612.479509872929	29.2615338235232	13.1481446834639	0.938612815619672	-0.963519600675922	-0.00164525497078083	0.00649522269309383
0.27	-0.153569138785765	0.764558031960559	612.899892549767	29.2832769816278	13.1851147920956	0.962010964036567	-0.985780239365641	-0.00164198097858648	0.00654607236765326
0.28	-0.195499503604685	0.719002470497514	613.3453978955	29.297547449052	13.2177311757027	0.989671079688073	-1.01446412221616	-0.00165274767894574	0.00658882208726452
0.29	-0.286256810104444	0.639944561908893	613.725144670112	29.2990210380929	13.2442700377156	1.01798499559208	-1.0453982829448	-0.0016791339133182	0.00662391108091998
0.3	-0.403168286703976	0.534977118612566	613.952808855975	29.2844776146474	13.2645744690786	1.04254706313929	-1.07325786964858	-0.00171969589193466	0.0066542132059908
0.31	-0.520019483559305	0.41806462040229	613.965304902172	29.2527517214384	13.2804442435238	1.05892862556548	-1.09266914656124	-0.00177150260922132	0.00668499064556233
0.32	-0.614671927700351	0.307389332286869	613.736557611597	29.2045030589924	13.2955590485149	1.06358853479294	-1.09943541496538	-0.00183156435822174	0.00672325094732029
0.33	-0.675254644723835	0.221941704765713	613.283901753498	29.1418806525635	13.3148701514893	1.05468789288304	-1.09157020700555	-0.00189784565115536	0.00677649888089826
0.34	-0.703258069964719	0.177839692435018	612.666420981352	29.0681320137951	13.3435120813679	1.03258605077289	-1.0698572927495	-0.00196973346617613	0.00685100184996479
0.35	-0.712682912621459	0.185324974706356	611.976054416981	28.987191951881	13.385429543249	0.99987051634728	-1.03777156293833	-0.00204797987264616	0.00694986442635087
0.36	-0.725451834574206	0.247059034244666	611.323318987033	28.9032765045036	13.4420454491626	0.960893514827782	-1.00075827471398	-0.00213423247204403	0.00707137860628654
0.37	-0.764314618275147	0.357902128759967	610.820038157554	28.8205015929101	13.5113576316458	0.92091732771471	-0.965036389932703	-0.00223031468129564	0.00720819179448368
0.38	-0.84520000428313	0.505981925970046	610.5616754575	28.7425406715144	13.5877988538061	0.885072568476764	-0.936219293466741	-0.00233743684479304	0.00734773688778517
0.39	-0.971181928357597	0.674652923904364	610.611851535657	28.6723324978428	13.663018497349	0.857380609218991	-0.918098042152794	-0.00245551564283364	0.00747408145064882
0.4	-1.12984840931889	0.844919236437796	610.991371664796	28.6118520011148	13.7274852419069	0.840071488792731	-0.911892845626304	-0.00258275046584877	0.00757094196104818
0.41	-1.29496341377915	0.997971985927854	611.67352844597	28.5619624068002	13.772548280312	0.833347464220776	-0.916155779323263	-0.00271555011956071	0.00762520687476514
0.42	-1.43212994212315	1.11758694830148	612.586531146471	28.5223678923037	13.7924226902028	0.835621277935632	-0.927332532929387	-0.00284883154707427	0.00763006960013579
0.43	-1.50703213861737	1.19217769029558	613.622741812729	28.4916756147718	13.7855525546633	0.844129575221575	-0.940810372604103	-0.00297664341598414	0.00758689872172841
0.44	-1.49409316068281	1.21629919129957	614.653208757035	28.467553952346	13.7549711740834	0.855722072135674	-0.952145562055479	-0.00309301829009867	0.0075052873526526
0.45	-1.38326348365023	1.19138714789665	615.545081607016	28.4469499796866	13.7075746377047	0.867587130856317	-0.958118768854066	-0.00319293255116027	0.00740123896753836
0.46	-1.18319148585516	1.12555196124835	616.17910287153	28.4263176239917	13.6525543933561	0.877709782852493	-0.957329572651377	-0.00327324605021573	0.00729399425055594
0.47	-0.920054477863483	1.03235649478942	616.464571716637	28.4018180916188	13.5994805870063	0.88496052356793	-0.950194985405428	-0.00333349262663007	0.00720239212219803
0.48	-0.632515420504574	0.928687664302928	616.349865757844	28.3694850692193	13.5566032280014	0.888849089519016	-0.938412787073161	-0.00337639230513731	0.00714175060477973
0.49	-0.36424428921445	0.832042203054184	615.827570119937	28.3253876922828	13.5298187345562	0.889098413056879	-0.924121444822573	-0.00340795947591677	0.00712202021254443
0.5	-0.155917877848749	0.757723516022262	614.934247196942	28.2658568468253	13.5224848836872	0.885254527377059	-0.909074289359299	-0.00343709999493536	0.00714749586286939
0.51	-0.0384935738110517	0.716524503720502	613.745658000095	28.1878460686204	13.5359606159136	0.876524812011281	-0.894117325912554	-0.00347463917736068	0.0072178495253713
0.52	-0.0289634086914958	0.71340447463852	612.368657302682	28.0894626108072	13.5705130803938	0.861938314638146	-0.879131203026364	-0.00353181425383808	0.00732985664812386
0.53	-0.129006205164562	0.747448801075858	610.930978378638	27.9706252066888	13.6261539578366	0.840785420927945	-0.863418648202503	-0.0036183975873576	0.00747906708083079
0.54	-0.326261390853167	0.813070277168155	609.569789811051	27.8337011692467	13.7030585423647	0.813171175015672	-0.846355229592405	-0.00374076574506355	0.00766083935435535
0.55	-0.597536573324148	0.902061188729321	608.419477995352	27.6838868919059	13.8014359905868	0.78045297417051	-0.82803047264928	-0.00390034425817964	0.00787052627732376
0.56	-0.913153207829807	1.0058499003298	607.598882640019	27.5290728682572	13.9209659372296	0.745353665446409	-0.809616335964502	-0.00409287732422681	0.00810300828303107
0.57	-1.24171422078031	1.11725709338717	607.198412627244	27.3790144712839	14.0600988015849	0.711640466008749	-0.793302966262961	-0.00430885110427159	0.00835205326574417
0.58	-1.55468905406945	1.23123089938726	607.268103474661	27.243813289401	14.2155700197441	0.683406126272168	-0.78179872365757	-0.00453513958434248	0.00861003371641905
0.59	-1.8302658980339	1.34442737002085	607.808481558933	27.1319533066698	14.3823905952523	0.664131431136143	-0.777547347480794	-0.00475760307635253	0.00886834726537084
0.6	-2.05594217691923	1.45396528620629	608.766622036287	27.0483480794796	14.5543887308741	0.65579673006545	-0.781916717604409	-0.00496405643504272	0.00911855189449745
0.61	-2.22941541409481	1.55604312932817	610.039583682219	26.9929512718312	14.7251644011896	0.658311641017721	-0.79462800030149	-0.00514684969595502	0.00935388298452006
0.62	-2.35758741791275	1.64520021997354	611.486263925026	26.9604079631561	14.8891598180983	0.669444505965552	-0.813619329367411	-0.00530434406993829	0.00957060504638391
0.63	-2.45389710300655	1.71476651467313	612.946807546476	26.940980416337	15.0424995216169	0.685287384911187	-0.835403553523742	-0.00544082925359668	0.00976865123231602
0.64	-2.53462448707689	1.75854593703904	614.266558591186	26.9226331122895	15.1833280314734	0.701139246956053	-0.855832171469749	-0.00556484812610303	0.00995121893144107
0.65	-2.61507771580744	1.77320526537351	615.319900508479	26.8938133585096	15.3115400653218	0.712579187111831	-0.871063742998596	-0.0056863516332748	0.0101233388145934
0.66	-2.70655364777183	1.76042950063064	616.028840791207	26.8462286304151	15.4279970820715	0.716462179409815	-0.878484084778313	-0.00581346135217498	0.0102897886112986
0.67	-2.81464911395617	1.72784053363961	616.372173227325	26.7768825429201	15.5334859572889	0.711603453700161	-0.877343448372951	-0.00594975580632928	0.0104529546871637
0.68	-2.93902959316549	1.68801738115721	616.383305971846	26.6888111176926	15.6277491519698	0.699003785533337	-0.868949879625588	-0.00609286656114016	0.010611275114421
0.69	-3.07433382210336	1.65560675023671	616.137727667701	26.5903130480356	15.708881746681	0.681578361660773	-0.856366044833722	-0.00623480077155281	0.0107587220925927
0.7	-3.21166624023018	1.64324867395752	615.73369796141	26.4928874758009	15.7732670699735	0.663461161076619	-0.843675119042517	-0.00636390490235583	0.0108854662148958
0.71	-3.34015162670102	1.65758786444134	615.271259265877	26.4084508196388	15.8160557047583	0.649046673763576	-0.834986613832459	-0.00646790298397859	0.0109795222919389
0.72	-3.44822929002828	1.69676894272464	614.834608621867	26.3465891851204	15.832039066532	0.641987775762088	-0.833422822168783	-0.00653713201599349	0.0110289205539821
0.73	-3.52461903677258	1.7504329896902	614.48132447431	26.3125605164272	15.8166744027091	0.644381625603014	-0.84034166935425	-0.00656705291530846	0.0110238518496149
0.74	-3.55908077778726	1.80244054098507	614.239519462101	26.3065117697772	15.7670029086023	0.656337548456586	-0.855002322976861	-0.00655934759229571	0.0109583096608929
0.75	-3.54315321639434	1.83560534625647	614.111584735828	26.3240073443919	15.6822577098109	0.676034327368438	-0.874772168149836	-0.00652134424943052	0.0108309434651511
0.76	-3.47099532245423	1.83697516723571	614.081636778054	26.3575951299419	15.5640548061052	0.700255209766522	-0.895832530877362	-0.00646400771095823	0.0106450643144353
0.77	-3.34031067914309	1.80193103483713	614.123511845314	26.398876985912	15.4161637285474	0.725266371495557	-0.914204362583462	-0.00639913840807116	0.010407929104965
0.78	-3.15317353951889	1.73571545012025	614.207062853614	26.4404700846551	15.2439393179842	0.747813213746202	-0.926824676151197	-0.00633662154492787	0.0101295348549573
0.79	-2.91646457436799	1.65183808328426	614.302024562393	26.4773536090539	15.0535484978732	0.765977039603163	-0.932388617074333	-0.00628250061469038	0.00982117943111327
0.8	-2.64161871276241	1.56784966138254	614.380075173737	26.5073430834088	14.8511442926184	0.779673274239536	-0.931736531421723	-0.00623834285734826	0.00949401813530687
0.81	-2.34350913344353	1.49985085173918	614.416354113263	26.5307326465492	14.6421278510981	0.790669942225451	-0.927690309942563	-0.00620192310144507	0.00915779781989751
0.82	-2.03851541588236	1.45751077097734	614.391429494061	26.5493920383006	14.4306045463487	0.802131518420568	-0.924389809645571	-0.00616883098662357	0.00881990068050115
0.83	-1.74208234305301	1.4411834292141	614.293833097193	26.5657197178298	14.2190915825567	0.81781112182332	-0.926304772707085	-0.00613435636312754	0.00848478311282219
0.84	-1.46628218422475	1.4420134890553	614.122364454348	26.5818075562368	14.0084851162095	0.841092006361383	-0.937167488564735	-0.00609501633074638	0.00815385011294656
0.85	-1.21797384492693	1.44496168742727	613.886951779227	26.5990018718027	13.7982593844848	0.874101763273087	-0.95907394190256	-0.00604933518890738	0.00782576464402801
0.86	-0.998070509534219	1.43376911492011	613.607179880133	26.6178374050651	13.5868571837103	0.917091815194528	-0.991944910447317	-0.00599785024969457	0.00749715797392358
0.87	-0.802191957008471	1.39629666681988	613.308468591772	26.638174086177	13.3722344645519	0.9682060919191	-1.03344603106475	-0.0059426178216615	0.00716367855063521
0.88	-0.622638283003191	1.32858581185958	613.01683278265	26.6593430231734	13.1525222689761	1.02367699458961	-1.07936384706099	-0.00588660000960739	0.00682128055509518
0.89	-0.451259541375756	1.23640193454609	612.753699155106	26.6802012696055	12.926745990885	1.07840297194477	-1.12434567586497	-0.00583320123059972	0.00646759455104223
0.9	-0.282509317908893	1.13380714614951	612.532187131564	26.6991346380981	12.6954907230203	1.12679391384261	-1.16284899082549	-0.00578599228523746	0.00610314369421461
0.91	-0.115851519860227	1.03922507937989	612.355714996657	26.7141424353526	12.4613444535426	1.16372601675811	-1.1901168658425	-0.00574846775002824	0.00573210080240921
0.92	0.0432074692344222	0.970227135970186	612.21909341095	26.7231272954961	12.2289300407592	1.1854307006479	-1.20299984001918	-0.00572365008763887	0.00536227865831823
0.93	0.18387457528627	0.938650340345756	612.11168930847	26.7244017048994	12.0043914693304	1.19015424366897	-1.20047773336013	-0.00571349327728521	0.00500415926534054
0.94	0.292575594202729	0.947527159035428	612.021860088578	26.7172744144289	11.7943395923744	1.17846548707491	-1.18379163939811	-0.00571825136583248	0.00466900817058291
0.95	0.356697402113126	0.990702301485583	611.94160076207	26.7024806416178	11.6044519609922	1.15315352633831	-1.15616826296225	-0.00573611894187254	0.00436643203445847
0.96	0.368672660790331	1.05512566950381	611.870168714933	26.6822307773351	11.4380870444785	1.11873518518083	-1.12219473691116	-0.00576341923102452	0.00410200584678688
0.97	0.329324290116258	1.12494495678151	611.815450060424	26.6597790325688	11.2953345102405	1.08066785957741	-1.08696853660193	-0.0057954092546687	0.00387568966712759
0.98	0.249459989154181	1.18597962460429	611.792204881502	26.6386050192833	11.1728334665488	1.0444207230773	-1.05519069804653	-0.00582748739255146	0.00368159392443196
0.99	0.14906718330914	1.22912856710347	611.817179553965	26.6214733461892	11.0644664384756	1.01458386167177	-1.03038110011133	-0.00585637092363767	0.0035092621794342
1	0.0540602013947522	1.25173866770338	611.902227120813	26.6097080777215	10.9627582966073	0.994184975801708	-1.0143679721886	-0.00588077817329147	0.00334615545000611
1.01	-0.00876719790589006	1.25673747595205	612.047565599945	26.6029489494292	10.8605856446163	0.984338288461457	-1.00714352840487	-0.00590133543491522	0.00318063270827812
1.02	-0.0173515251712606	1.25010243176743	612.237591023357	26.5994650953449	10.7527211957672	0.984278125345875	-1.00709526706481	-0.00591976074981992	0.00300458518626923
1.03	0.0409316660553037	1.23772515768185	612.440968365229	26.5968698329484	10.6368254292147	0.991744373580479	-1.01153666204376	-0.00593770458966048	0.00281504696689522
1.04	0.166683701631645	1.22279947096042	612.615254786154	26.5929141649857	10.513708774126	1.00360833528571	-1.01739413976519	-0.00595579146283143	0.00261449044795192
1.05	0.348600539996457	1.20455829009812	612.714699597281	26.5860193647132	10.3869293843038	1.01657716339785	-1.02187928684074	-0.00597331803489343	0.00240995419342943
1.06	0.566054087804252	1.17867246618973	612.698851601886	26.5753516494999	10.2619693938985	1.02780957827003	-1.0229954843462	-0.0059887570799172	0.00221146734987909
1.07	0.793224862611967	1.13909700800741	612.539625012806	26.5604746726794	10.1452900316461	1.03531731342829	-1.01978929508014	-0.00600083788799344	0.00203032554879473
1.08	1.00357892152862	1.08075145588124	612.22543361463	26.5408222799493	10.0435044144558	1.03810010997659	-1.01233580933198	-0.00600970520566291	0.00187764348604919
1.09	1.17362646875478	1.00222075539663	611.762342583298	26.515313915622	9.96277636089581	1.03603905677144	-1.00151444625561	-0.00601762497220992	0.0017633571249262
1.1	1.28535625715906	0.90767243283228	611.173214759188	26.4823547233	9.9084241445026	1.02962663388526	-0.988665969680079	-0.00602891104247449	0.00169560783882788
1.11	1.32727778037586	0.807384824516619	610.496084136634	26.4402685427811	9.88463626230121	1.0196291939431	-0.975219334907831	-0.0060490834755178	0.001680317274809
1.12	1.29440844096447	0.716627079924453	609.782462494287	26.3880022500259	9.8942125608057	1.00676486335889	-0.962352754493549	-0.00608357551627092	0.0017207892955402
1.13	1.18770631868958	0.653054311243537	609.095372168605	26.325810822911	9.93830937713415	0.991454873399772	-0.950728338752964	-0.00613645344787039	0.00181731159627546
1.14	1.01338246880763	0.633180604477073	608.506165735926	26.2556347363995	10.0162469440217	0.973685650018207	-0.940328172396613	-0.00620955851507621	0.0019668847463013
1.15	0.782318071210629	0.668757555970017	608.089083403941	26.1810022321857	10.1254838543101	0.953007232637226	-0.930420857957649	-0.00630227470192124	0.00216328953797779
1.16	0.509566327557764	0.763931822490895	607.913119773948	26.1064671701323	10.2618489266595	0.92868249950449	-0.919687422697834	-0.00641187810355637	0.00239766445780115
1.17	0.213721578771411	0.913861754194628	608.0318651844	26.0367518216281	10.4200487466931	0.899978828312968	-0.906517849625992	-0.00653423977837986	0.00265961546945814
1.18	-0.0841542216923532	1.10510065574503	608.473068614765	25.9758455122815	10.5943717526045	0.866554644621454	-0.889448433793723	-0.00666459418428267	0.0029386862159253
