Time [s]	GRFml [N]	GRFap [N]	GRFv [N]	Mml [N.m]	Map [N.m]	Mv [N.m]	Mfree [N.m]	COPml [m]	COPap [m]
0.01	-3.35794573610532	0.190545276193087	596.785365925203	9.32858221326879	18.6700886323355	0.631369675634033	-0.689923949032447	-0.00650352682244082	0.00751264329715007
0.02	-3.61091818452767	0.609645305765497	598.52281171884	9.38148990731392	18.7269062512624	0.61640287039132	-0.691935114157825	-0.00646851344279598	0.00752142256942645
0.03	-3.82171690215721	0.964874381445412	600.362864238545	9.44962738643682	18.7548412056246	0.607058716106045	-0.696983325229664	-0.00641123244941233	0.0074781360202183
0.04	-3.95125786365722	1.19960218633039	602.398673984106	9.54411970241997	18.7303079801806	0.60840268774912	-0.707824168277474	-0.0063160374339668	0.00734014090650936
0.05	-3.97185534280368	1.27766010373535	604.631580375777	9.66845649670229	18.6363714725188	0.622972619155352	-0.725482660374757	-0.00617740487191831	0.00708012116183065
0.06	-3.87120424901652	1.18959758262624	606.952061747711	9.81749315420664	18.4647234496631	0.650138942682869	-0.748861824429219	-0.0060010161802263	0.00669011211865173
0.07	-3.65443504378547	0.954194737896633	609.151661332143	9.978859357395	18.2166899470024	0.686173540999521	-0.774884323660067	-0.00580168690345262	0.00618240655526242
0.08	-3.34406488577225	0.614914807533558	610.961337532778	10.1362018978027	17.9030547987594	0.724962901028758	-0.799091517709238	-0.00559899179848267	0.00558727294882588
0.09	-2.9776746944441	0.23192708772902	612.106340704219	10.2732588154622	17.5425915710537	0.75918892458506	-0.81654203338318	-0.00541200289163668	0.00494785850634488
0.1	-2.60310998921679	-0.128851261164799	612.365524736926	10.3776900510755	17.159372515157	0.781750242847644	-0.822826303310073	-0.00525460780220433	0.00431302173215353
0.11	-2.27117676590315	-0.407726592603368	611.623304580893	10.4438044937464	16.7791434043968	0.787188869777317	-0.81502324593165	-0.00513251125318848	0.00372913964524951
0.12	-2.02636027404515	-0.562076970888921	609.904393379775	10.4736878337762	16.4252723568444	0.772895496823132	-0.79244546320083	-0.00504245225101352	0.00323214835986535
0.13	-1.89697618108318	-0.574100288862162	607.38438846011	10.4766203631849	16.1149433958776	0.739879241470384	-0.757038028830474	-0.00497359743524572	0.00284115947812147
0.14	-1.8870299043141	-0.453940377667277	604.372999420271	10.4670001405282	15.8563164621606	0.69291458299469	-0.713320279021476	-0.00491062666544262	0.00255488369133999
0.15	-1.97241534895877	-0.23740645455909	601.271156847001	10.4612305664306	15.6472740073564	0.63994539029503	-0.667809603347806	-0.00483775048882784	0.0023517291857022
0.16	-2.10352813963168	0.0215113968906702	598.508123332167	10.4741954479012	15.476110299665	0.590753532626892	-0.62795651573293	-0.00474277698582237	0.00219381893168125
0.17	-2.21484126682371	0.262013395799577	596.469287248962	10.5160262455211	15.3241289045873	0.555078903844655	-0.600745121721052	-0.00462035752032774	0.00203437029819276
0.18	-2.23988123446221	0.429436139278407	595.428365503756	10.5898425669603	15.169680347233	0.540561736015209	-0.59123795898218	-0.00447368638818935	0.0018270806818389
0.19	-2.12807849227686	0.486905295762106	595.498059641341	10.6909891158948	14.9928102311024	0.550994913100959	-0.601416776972337	-0.00431421635179174	0.00153559449072871
0.2	-1.85892767252689	0.422965660349411	596.610137887892	10.8079956301981	14.779507882508	0.585359246189167	-0.629645622310906	-0.00415936466876743	0.00114099132779044
0.21	-1.44927326979486	0.253354455466637	598.529806039424	10.9250956709014	14.524611708954	0.637946497646801	-0.670946810674183	-0.00402865562556076	0.00064561908964289
0.22	-0.951306743862713	0.0165335988104176	600.901525547763	11.0257506750195	14.2327325721127	0.699592031801011	-0.718066425222077	-0.00393915955608837	7.24225494037611e-05
0.23	-0.44146454120122	-0.235812306979816	603.316258352956	11.0963545635844	13.9170208451676	0.759729997525854	-0.763082186155889	-0.00390131482011002	-0.000540033790886352
0.24	-0.00298872257876648	-0.450853259354799	605.385510082148	11.1292337376557	13.5961019204676	0.808752461377456	-0.799149471517376	-0.00391616909404657	-0.00114566866108734
0.25	0.293373075372967	-0.586262947173001	606.806723012127	11.1242336001987	13.2899125298299	0.840075759278842	-0.821943674685632	-0.00397474665457354	-0.00170027073862827
0.26	0.405673935219488	-0.618725677515504	607.40752909351	11.0885426093704	13.0153967220536	0.851411695292321	-0.8304474198906	-0.00405973073983756	-0.00217012027475988
0.27	0.330185494452304	-0.547563445991966	607.162001619307	11.0348392370888	12.783029942463	0.844968309952021	-0.826914256102386	-0.00414909432077859	-0.00253804573303368
0.28	0.101920250281215	-0.393065412667388	606.17864834873	10.9782364903633	12.5949446825484	0.826588051091995	-0.816056121519145	-0.00422086639212738	-0.00280571978747729
0.29	-0.213542946227728	-0.190369079435296	604.665799090303	10.9327538035069	12.4450751821818	0.804088663344826	-0.803689472978033	-0.00425798029983304	-0.00299181414594457
0.3	-0.534787730099706	0.0193558266210391	602.884037621971	10.9081263366799	12.3212844842142	0.785243172496435	-0.795191583938164	-0.00425214458258227	-0.00312650958806693
0.31	-0.782415033901133	0.198284611699914	601.0968016049	10.9076681269166	12.2089656130498	0.775891029050842	-0.79414530619815	-0.00420588334234473	-0.00324364984267378
0.32	-0.896132188896115	0.319859633056497	599.529199632015	10.9276656331394	12.0952195183735	0.778613843980315	-0.801490297307152	-0.00413226478263995	-0.00337238489512087
0.33	-0.847514722186416	0.373742338258146	598.341942644003	10.9584369362416	11.9725125312572	0.792259533990413	-0.815370122110543	-0.0040523122557683	-0.00353032670616799
0.34	-0.645851873208376	0.366997212824553	597.622917772052	10.9868122889902	11.8407886241942	0.812395536339516	-0.831697626643172	-0.00399059256806489	-0.00371994203705767
0.35	-0.335893575602656	0.321483627107222	597.394441879826	10.9994551534132	11.7073765807854	0.832559298297277	-0.845291865889715	-0.00396989877380594	-0.0039291428889201
0.36	0.0120736413302947	0.268140207211074	597.630722717398	10.9862355456616	11.5846190554154	0.845996302147694	-0.851305434769009	-0.00400617886058519	-0.0041359568684729
0.37	0.317828414013236	0.239400862954099	598.278362820941	10.9428526318428	11.4858054286776	0.847468482837718	-0.846591300997038	-0.00410482823794645	-0.00431604372937255
0.38	0.509243486607735	0.261315671817499	599.273195464549	10.8720926098358	11.4205181709528	0.834701029618927	-0.830669667479715	-0.00425915530431253	-0.00445099495493101
0.39	0.538813922690528	0.34701242287595	600.549065475433	10.7834499246073	11.3907311587385	0.809117202915812	-0.80604691337718	-0.00445132470312259	-0.0045350763012289
0.4	0.394885961200493	0.492898310792295	602.037555514311	10.6912364420743	11.3888402119513	0.775673393951631	-0.777791004258332	-0.00465552403564984	-0.00457846002373291
0.41	0.104821574382103	0.678482926370717	603.661027035287	10.6116439177769	11.3982913157351	0.74181645313074	-0.752446570883572	-0.00484263910566407	-0.00460595477066911
0.42	-0.270851001965476	0.869982316422673	605.323671891352	10.5594261245442	11.3967440685883	0.715795367586752	-0.736535538472068	-0.00498546807202116	-0.00465150713572443
0.43	-0.652038211823547	1.02707714335348	606.905910108644	10.5448961364691	11.3609814391149	0.704719056657965	-0.734994940259005	-0.0050634874222022	-0.00474994936151829
0.44	-0.957147788131668	1.11151153212132	608.266336710296	10.5718128765713	11.2722716876186	0.712820014205554	-0.749924526738475	-0.00506636015162099	-0.00492824513930229
0.45	-1.12111869309882	1.09578122564959	609.252976624976	10.636515235644	11.1207599156363	0.740340223934058	-0.779946746059491	-0.00499566553635356	-0.00519860644720527
0.46	-1.10892684103605	0.970063976352084	609.722666298272	10.7284151505297	10.90775527033	0.783310434123313	-0.820338310064627	-0.00486464763636707	-0.00555528492340801
0.47	-0.921375241306261	0.745818314285161	609.564828971113	10.8317312878087	10.6453942047019	0.834282295885827	-0.863912034344305	-0.00469607343509038	-0.00597576122159488
0.48	-0.592180569655748	0.455084230239824	608.724439186075	10.928157457285	10.3539051157196	0.883847239425813	-0.90245391862753	-0.00451854434552046	-0.00642580469678028
0.49	-0.177793452521464	0.145372207646788	607.218910135196	11.0000221500254	10.0573397457611	0.922591243296761	-0.928394098365724	-0.00436181949350778	-0.00686684347011945
0.5	0.256725961981961	-0.129017292697756	605.144904625143	11.0334108991429	9.77897633310885	0.943035770700785	-0.936340114183586	-0.00425188290428435	-0.00726358161967855
0.51	0.651687756767654	-0.317537762003124	602.6732389245	11.0207014581056	9.53754988596961	0.941126843156017	-0.924138501903474	-0.00420659246182542	-0.00758995184187611
0.52	0.963053871128903	-0.383546546436096	600.032486528007	10.9620209707846	9.3450728211504	0.916953955629314	-0.893247199547971	-0.00423273625986453	-0.00783220024557274
0.53	1.16704311455246	-0.311754803513089	597.483949684141	10.8652897098735	9.20643526283906	0.874576492525548	-0.848367361134035	-0.00432514218602464	-0.00798888445118628
0.54	1.25907962025374	-0.111209500348352	595.29188281483	10.7447638933022	9.12043026550609	0.82105299442086	-0.796454754318762	-0.0044681252037555	-0.0080684718755778
0.55	1.24879829176578	0.186918711439252	593.693075386006	10.6182955775882	9.08151752487567	0.764947154511908	-0.74536188683947	-0.00463906223494293	-0.00808575580728771
0.56	1.15365178949906	0.536178627372229	592.869335547345	10.503825164063	9.08160669269593	0.714677242415519	-0.702419923202164	-0.00481336946497757	-0.00805833191141353
0.57	0.993456332342429	0.88458168381603	592.925507285831	10.4158316248871	9.1113737659085	0.677066381892302	-0.673246645881828	-0.0049697690973094	-0.00800396929378733
0.58	0.787215179288091	1.18482982197588	593.874872305623	10.3625181743444	9.16098897397672	0.656356620045941	-0.660980841959805	-0.00509460515969329	-0.00793909759598116
0.59	0.552293512312272	1.40263099368572	595.633378811451	10.3443737751037	9.2204634969764	0.653809533980493	-0.666027591006968	-0.00518416859303006	-0.00787809477952295
0.6	0.305034846633692	1.52140970695637	598.023985995355	10.3544420650801	9.27998120473308	0.667874774870368	-0.686287047950963	-0.00524449089238488	-0.00783281115344708
0.61	0.0615459817692345	1.54285368905718	600.792101679897	10.3802198785989	9.33052182399316	0.694799599984224	-0.717755347070034	-0.00528873517291162	-0.00781186788809307
0.62	-0.162343476665531	1.48389887596775	603.632165417234	10.4067054460227	9.36485234915281	0.729493599883592	-0.755340136110958	-0.00533296041376863	-0.00781962762240906
0.63	-0.352267520723482	1.37155381320895	606.223703878141	10.4198366829694	9.3786824801854	0.766453758679378	-0.7937238915817	-0.00539145972337041	-0.00785515108026186
0.64	-0.497272193633745	1.23717496197695	608.272931063313	10.4094874133604	9.37158202900978	0.800585769812114	-0.828128985310329	-0.00547294101766171	-0.0079117144675982
0.65	-0.591715563148246	1.11144500436156	609.553861641772	10.3713460699106	9.34723789549842	0.827813812486236	-0.854881209758909	-0.00557850879308186	-0.00797743318683336
0.66	-0.636299755507958	1.02062006609004	609.941772048288	10.3073353337565	9.31280110950735	0.845436847573922	-0.871723590252336	-0.00570182694629517	-0.00803721591269285
0.67	-0.637771613897545	0.983953070154052	609.432299837595	10.2246330308714	9.27737250689904	0.852248452848296	-0.877887813302967	-0.005831192810689	-0.00807578863908431
0.68	-0.607357606048713	1.01187486354855	608.141675696294	10.1336980117716	9.24997711529459	0.848474571998183	-0.873972832596318	-0.00595274528812917	-0.00808108560302934
0.69	-0.558464214257315	1.10463926983037	606.287153733928	10.0458927502747	9.23755993716157	0.835591321525911	-0.861698512152628	-0.00605381497999002	-0.00804709427278466
0.7	-0.504390121243569	1.25158421781511	604.150824943105	9.97129248569064	9.24352897480767	0.816066996923207	-0.84359484085544	-0.00612553615622147	-0.00797535969827112
0.71	-0.456686217439853	1.43161424035171	602.033630742568	9.91711273675284	9.2671840393008	0.793044552699801	-0.822664028464411	-0.00616419531747192	-0.00787475809028343
0.72	-0.424420640071618	1.61562707629204	600.208562592628	9.88695323487389	9.30408226625455	0.769964067471401	-0.802030537024426	-0.00617123052367696	-0.00775968356539808
0.73	-0.414125401328913	1.77120254921122	598.882092948244	9.88083513208183	9.34711603448601	0.750133275355416	-0.784587389612294	-0.00615215729308916	-0.00764725292317381
0.74	-0.429839597109185	1.86903503143875	598.170724044379	9.8958594579935	9.38791310435348	0.736286027615919	-0.772659317431706	-0.00611488067833488	-0.00755435732712884
0.75	-0.472616428928016	1.88967176509959	598.095686133786	9.92725093131675	9.41815792475733	0.730204339728544	-0.767724154161585	-0.00606785362258822	-0.00749531290436478
0.76	-0.539207278409613	1.82857610376497	598.594332552351	9.96954578601625	9.43056110810579	0.732493072838615	-0.770245325425968	-0.0060184322932828	-0.0074805362755837
0.77	-0.620276217969898	1.69771253935892	599.542987549142	10.0176976473476	9.41940656532364	0.74256950365013	-0.779655889407336	-0.00597165708569536	-0.00751623495496728
0.78	-0.699154052677201	1.52279944140068	600.784045730115	10.0678936448195	9.38079723880027	0.758866607584751	-0.794497611556713	-0.00592961223834898	-0.00760472755277108
0.79	-0.752448192872173	1.33679775692909	602.150530194453	10.1179074665322	9.31282500691742	0.77917515314129	-0.812672273109386	-0.00589147684590696	-0.00774483640412937
0.8	-0.75350274796243	1.17155851612428	603.483781538183	10.1668967250631	9.21586815844393	0.801002745319098	-0.831730668351698	-0.00585431559924243	-0.00793188796811978
0.81	-0.678728396943243	1.0502781213982	604.643425704703	10.2146924068892	9.0930813634832	0.821835582094092	-0.849126419519997	-0.00581451701866564	-0.00815717358112283
0.82	-0.515504125594834	0.98317242907068	605.511879437998	10.2608008715883	8.95094736486594	0.83925254759428	-0.862398855188301	-0.00576957925152755	-0.00840713343641281
0.83	-0.269248128268078	0.967624659403722	605.997239902871	10.3034784341085	8.79959387337783	0.850933004859589	-0.869303877674193	-0.00571974799944297	-0.00866285434600284
0.84	0.0330753295364914	0.99241214634038	606.037981425815	10.3392729257412	8.65252500325349	0.854673137427003	-0.867954165747732	-0.00566893694023518	-0.00890056470336426
0.85	0.345014592772639	1.04410858310435	605.610791349601	10.3633176295921	8.52551513350586	0.848539641621913	-0.85703366324394	-0.00562448298419993	-0.00909360299320311
0.86	0.608620779210666	1.11298306248425	604.740109446353	10.3704312348111	8.43464393013919	0.831229250683419	-0.836107588834449	-0.00559560024596106	-0.00921588355624925
0.87	0.766763074616595	1.19598434574605	603.505688922678	10.3567970046533	8.39373716570407	0.802589365464163	-0.805974363242656	-0.00559080620578278	-0.00924634231787019
0.88	0.776594061515625	1.29561382102952	602.043691973865	10.3217620377445	8.41171536487595	0.764138597135486	-0.768935160024654	-0.00561496295195762	-0.00917341400940497
0.89	0.620420866493543	1.41519339444242	600.537794372459	10.2691948275383	8.49045441273994	0.719361905194627	-0.728828473521144	-0.00566677640215352	-0.00899842987886917
0.9	0.31087784535423	1.55257605448582	599.199183976128	10.2079049898719	8.62369335745874	0.673579047910261	-0.690713468487395	-0.00573755232091155	-0.00873698983257593
0.91	-0.111091755029617	1.69513091882326	598.237419311647	10.150850157607	8.7973090587194	0.633296659650163	-0.660181417394036	-0.00581172007544417	-0.0084178004763471
0.92	-0.584911704040611	1.81853563012982	597.826917249585	10.113173946473	8.99098244979839	0.605116524307446	-0.642397085675289	-0.00586917543434773	-0.00807904498833278
0.93	-1.04337945149756	1.89059318781219	598.075526266476	10.1094485822376	9.18098726017352	0.594427928178452	-0.64107612455716	-0.00588898732457888	-0.00776290245898487
0.94	-1.42662857536223	1.87940399450302	599.00171395801	10.1507408191356	9.34360582632201	0.604204851466764	-0.657650524666537	-0.00585360839758076	-0.00750923102937723
0.95	-1.69360935862005	1.76344995987382	600.525328831529	10.2422021952435	9.45855855494074	0.634225811748697	-0.690843095690951	-0.00575255593005042	-0.00734959435324134
0.96	-1.82850872264051	1.54016818561035	602.474147226963	10.3817713975663	9.51183768192695	0.680934780439709	-0.736772381676589	-0.00558465444809997	-0.00730272823799183
0.97	-1.84099655402974	1.22983007946696	604.605286019357	10.5602978131146	9.4974546415011	0.737997083347488	-0.789573720860864	-0.00535832239906453	-0.00737224792791641
0.98	-1.76080169257625	0.87297740127168	606.637909366112	10.7630402665343	9.41781834233145	0.797426784055672	-0.842394377691268	-0.00508991251162194	-0.00754695735757666
0.99	-1.62842868875252	0.52181295859427	608.292083590659	10.9721782193145	9.28271844302751	0.851026606598992	-0.888540448882771	-0.00480060004554728	-0.00780363270836359
1	-1.4845060630518	0.228015669103175	609.328265382776	11.1697858423601	9.10714316562302	0.891825631299302	-0.922540886824926	-0.00451260364318473	-0.00811170984141241
1.01	-1.36022585102007	0.0306714889415785	609.582402952173	11.3406924471824	8.90836643834791	0.915230586548634	-0.940943174159155	-0.00424556142730914	-0.00843898614385313
1.02	-1.27075419779415	-0.0520678126916153	608.992419057786	11.4747504274897	8.70285892061708	0.919699371221168	-0.942737702359811	-0.00401371805850148	-0.00875729472782322
1.03	-1.212666216606	-0.0253110994052697	607.612503366331	11.5681860159371	8.50359628386932	0.906859903619778	-0.929389120249187	-0.003824315545779	-0.00904712991468837
1.04	-1.16566330159194	0.086504692515365	605.612178314678	11.6238636290457	8.31825793413017	0.881097934692815	-0.904509697459304	-0.00367732188378866	-0.00930038293347568
1.05	-1.09818662959709	0.248058118507624	603.257987680629	11.6504361976062	8.14864273833039	0.848709019483375	-0.87324014628294	-0.00356642185585809	-0.00952066487974462
1.06	-0.975990402457903	0.423101513990633	600.877532232515	11.6604988871383	7.99139536321122	0.816758271718732	-0.841422169425719	-0.00348102532175265	-0.00972112467774416
1.07	-0.772169793746169	0.582796899623827	598.808775841866	11.6680285475918	7.83986884497664	0.791829763435774	-0.814670514535214	-0.00340889883459672	-0.00992016772300358
1.08	-0.476556647571262	0.710195292398842	597.341677277989	11.6855599332241	7.68669341271694	0.778878237448092	-0.7974829002265	-0.00333890404954762	-0.0101359635656624
1.09	-0.102021663419391	0.800157711603775	596.663054877291	11.7216667080023	7.52643913081072	0.780404295917359	-0.792547804331526	-0.0032632774095559	-0.0103809801195199
1.1	0.314581697114143	0.855603635820165	596.817476852709	11.7793109196426	7.35770957038469	0.796136257747135	-0.800397931496806	-0.00317896612634916	-0.0106578736881001
1.11	0.718055732159274	0.882091121092014	597.69543716766	11.8554584537697	7.18411947989385	0.823303318955724	-0.81949526753883	-0.00308776358971086	-0.0109578203577722
1.12	1.04649233693439	0.883065963846565	599.054684614465	11.9420530674017	7.01387988514117	0.857438772981578	-0.846729416650485	-0.00299531087424199	-0.0112618102368901
1.13	1.24625647962379	0.857624459479881	600.572349973099	12.0280873790603	6.85807607129936	0.893502312103276	-0.878196839268901	-0.00290933753838629	-0.0115446685870854
1.14	1.28618335719934	0.801532520862066	601.916815393403	12.1022269630439	6.72807659910598	0.927014579507267	-0.910048971210978	-0.00283768349123958	-0.0117808290394936
1.15	1.16666449378622	0.710926864796441	602.82199034619	12.155331694638	6.63274819440351	0.954899542296131	-0.93918680188049	-0.00278660999009395	-0.0119503926341916
1.16	0.920663383793824	0.587042383154329	603.145134278652	12.1823067089283	6.5761980746867	0.975837282328014	-0.963645317239752	-0.00275970193759045	-0.0120439235797
1.17	0.606203812870054	0.439837224951964	602.893404598517	12.1829549688849	6.55660954875288	0.990102553677538	-0.98262730141522	-0.00275739525501428	-0.0120647876465395
