Time [s]	GRFml [N]	GRFap [N]	GRFv [N]	Mml [N.m]	Map [N.m]	Mv [N.m]	Mfree [N.m]	COPml [m]	COPap [m]
0.01	-3.89765987144836	1.64386452189909	780.389477988524	12.9737098034241	25.8629561231201	0.92906984984384	-1.04832410133999	1.74407856268211e-07	0.00208395731835792
0.02	-3.7760901404518	1.53950181981658	780.311443077523	13.0207913045431	25.603186497317	0.93394838421849	-1.04751870705043	6.21246179929313e-05	0.00175693451935355
0.03	-3.655992836076	1.44348425675874	780.237086631296	13.0719424769594	25.3443891220032	0.939188358875792	-1.04739247192123	0.000129050556113119	0.0014309452231801
0.04	-3.53982416979512	1.36282523508168	780.17281340211	13.1299430115576	25.0903386795449	0.944935988906896	-1.04837983157841	0.000204254665231884	0.00111053988687454
0.05	-3.42963732414674	1.30167437061269	780.128800812806	13.195447730378	24.8453351827409	0.951322810703854	-1.05079031393445	0.000288301436244032	0.000800842363082199
0.06	-3.32665910356986	1.26074534371036	780.119652859467	13.2668777891369	24.6132748463338	0.958520075935865	-1.05483518394882	0.000378871395093516	0.000506334212617865
0.07	-3.23097146033079	1.23753730980171	780.162646321834	13.3409501801767	24.3964834894807	0.966780255464994	-1.06067207292921	0.000471464376925357	0.000229410133272712
0.08	-3.14140189939133	1.22721662011599	780.273233090503	13.4135686496444	24.1948115724121	0.976439800152968	-1.06843859188876	0.000560610419326646	-3.06363405296328e-05
0.09	-3.05570650194157	1.22387336701619	780.45858914285	13.4807277178607	24.0054187972752	0.987859184344757	-1.07824178724994	0.000641134974416868	-0.000277669214544696
0.1	-2.97106919495662	1.22181744616638	780.711184638437	13.5391580228015	23.8234115222777	1.00129245124504	-1.09008359696387	0.000709097890041921	-0.000517666065334932
0.11	-2.88484933558297	1.21662384436931	781.005025185417	13.5866050597113	23.6431784189766	1.01670908972085	-1.10373323432864	0.000762217583892277	-0.000756867673064709
0.12	-2.79541475755938	1.20574493725103	781.296942468523	13.6218016268192	23.460030878248	1.03362551398457	-1.11859436583765	0.00079980793979606	-0.000999715248598487
0.13	-2.7028370299519	1.18864013198671	781.533998314496	13.6442972543314	23.2716699615135	1.05102336021262	-1.13363885959746	0.000822410736704859	-0.00124723156044404
0.14	-2.60922953933053	1.16649417985013	781.666040157695	13.6543139542585	23.0790761503993	1.06742076765813	-1.14747236957608	0.000831355059719319	-0.00149633233929569
0.15	-2.51858393878811	1.14167651122962	781.660375333623	13.6527208482992	22.886601249859	1.08111690041108	-1.1585552808991	0.000828421507826138	-0.00174024205234163
0.16	-2.43608659475936	1.11711876810496	781.514192580539	13.6411093184591	22.7012584746304	1.09056308719089	-1.16553861734077	0.000815678241589679	-0.00196985922973408
0.17	-2.36703593921431	1.09575638226186	781.260347303742	13.6218638566179	22.5313897717193	1.09475356485676	-1.16761532210263	0.000795448764007944	-0.00217567991952078
0.18	-2.31559370817182	1.08011014740447	780.96361826578	13.5981028808372	22.3850009058715	1.09350389919749	-1.1647618629731	0.000770315074733907	-0.00234979901021037
0.19	-2.2836590063285	1.07200605555721	780.70719456577	13.5734146986247	22.2680904921957	1.0875120499768	-1.15777027825188	0.000743068849554551	-0.0024875609378005
0.2	-2.27014278878362	1.07238005373195	780.572184989255	13.5514079507306	22.1832774081183	1.0781698962331	-1.14804160933816	0.000716577636874494	-0.00258857116971889
0.21	-2.27084642577985	1.08111217958418	780.615386708964	13.5351858760019	22.1289750930905	1.06718418546969	-1.13720127735747	0.000693593674777171	-0.00265694196077038
0.22	-2.27902654775134	1.09688271168721	780.85156676009	13.5268964261503	22.0992849190194	1.05613698236691	-1.12666726842402	0.000676563705363509	-0.00270078133804341
0.23	-2.28658024745639	1.11711573805569	781.245679000226	13.5274860491211	22.0846847767155	1.04613526829641	-1.11732106058414	0.000667483945044789	-0.00273102669768027
0.24	-2.28563577431435	1.13812824272377	781.717920945695	13.5367061312799	22.073468417274	1.0376582115934	-1.10938902072628	0.00066779785118376	-0.00275978602482407
0.25	-2.2702155152829	1.15559220385707	782.161030871423	13.5533257625283	22.0537485913938	1.03062717473507	-1.1025562235842	0.000678289069813154	-0.00279840330177372
0.26	-2.23758469912625	1.16532703179963	782.465763336071	13.5754382028457	22.0156931001753	1.02463529861322	-1.0962430148509	0.000698913630620468	-0.00285552208649936
0.27	-2.18893882624913	1.16429730160112	782.548088677095	13.6007412144528	21.9535559956361	1.01921901917813	-1.08991695773468	0.000728559716928312	-0.00293547118163395
0.28	-2.12922250202233	1.15156054964731	782.371043863958	13.6267224521699	21.867040828109	1.01405418721488	-1.08331206416563	0.000764803269175829	-0.00303730753053422
0.29	-2.06608677249516	1.1288614695545	781.955488521986	13.6507600163318	21.7616196510755	1.00900938272016	-1.07647969389677	0.000803800219990047	-0.0031547904619128
0.3	-2.00822304987121	1.10063710247047	781.376893102318	13.6702122336891	21.6476296206875	1.00406189249546	-1.06967445861668	0.000840474804373326	-0.0032774138809723
0.31	-1.9634844541175	1.0733615849167	780.748885178115	13.6825867570241	21.5382405945706	0.999144120680309	-1.06314841410026	0.000869103809448046	-0.00339240673662256
0.32	-1.93725745031795	1.05435343774264	780.197619037086	13.6858389618476	21.4466665756312	0.994015023384086	-1.0569599275605	0.000884270283924127	-0.0034873747881804
0.33	-1.93145774054052	1.05031963863477	779.833245885203	13.6787712161522	21.383207370668	0.988235019354567	-1.05089000661247	0.000882009737028344	-0.00355306161649493
0.34	-1.94433005039228	1.06597222227566	779.725326908958	13.661422365672	21.3527936795157	0.981273612802077	-1.04450783124061	0.000860853597108413	-0.00358561373224936
0.35	-1.9710088332197	1.10301976596739	779.887891949719	13.6352884043728	21.3536374708614	0.972717673792133	-1.03736100363085	0.000822438681599591	-0.00358778274928817
0.36	-2.00462652090944	1.15973536299064	780.277384164467	13.6032286058904	21.3773657138719	0.962498774527355	-1.02921065179843	0.000771424697678325	-0.00356869390968528
0.37	-2.03768165230421	1.23117422505894	780.803619485642	13.568992926654	21.4106821479187	0.951039313784906	-1.02020800327605	0.00071463705642838	-0.00354212442267016
0.38	-2.06339220996694	1.30999121750309	781.350892585824	13.5364347058261	21.438231520154	0.939238207319338	-1.01092695700202	0.000659584003881108	-0.00352360146034031
0.39	-2.07681617641749	1.38770957523981	781.804149066128	13.5086011774057	21.446023310565	0.928272929232349	-1.00222146671045	0.000612710233006575	-0.00352695751169152
0.4	-2.07557970096579	1.45622121362015	782.074168353319	13.4869683960818	21.4245952902188	0.919267341700297	-0.994948242535012	0.000577863710834237	-0.00356117388264882
0.41	-2.06010099241987	1.50925543732881	782.11612444233	13.471068838912	21.3711234465451	0.912936699070265	-0.989656791720422	0.000555416958822774	-0.00362832753815279
0.42	-2.03325345127117	1.54353937770302	781.937560082352	13.4586480793065	21.2899261964426	0.909345335479987	-0.986373486935901	0.000542301624157027	-0.003723210336047
0.43	-1.99949949110937	1.55940083062022	781.594298944033	13.4463203833014	21.1912161697575	0.907883607403771	-0.984579734958285	0.000532946066242213	-0.00383476223856161
0.44	-1.96364874503482	1.56064510258671	781.175542889038	13.4305337040137	21.0884144774074	0.907494265519724	-0.983412436625619	0.00052084240790129	-0.00394896699454672
0.45	-1.9295172157473	1.55367412175478	780.781763814415	13.4085594365106	20.9947269394348	0.907081782333972	-0.98202441674618	0.000500297837641495	-0.0040524488501576
0.46	-1.89883254895633	1.5459887681657	780.500534294278	13.3792205784354	20.9198748401873	0.905960485583542	-0.979970976047588	0.000467891506132356	-0.00413581213111952
0.47	-1.87070062845336	1.54438231075616	780.38587419479	13.3431575856681	20.8678187241259	0.904173050659917	-0.977468544775796	0.000423260378927259	-0.0041958448887584
0.48	-1.84181416814752	1.55324281569697	780.445949048609	13.3025718296265	20.8360335765657	0.902553218858067	-0.975414265950905	0.000369034356311859	-0.00423603565889147
0.49	-1.80738373466219	1.57339462535824	780.642159424311	13.2605392359696	20.8164747423892	0.902500093791247	-0.975145370061577	0.000309975226939097	-0.00426532304219041
0.5	-1.7625713306268	1.60180944392421	780.900114928672	13.2201106971066	20.7979375159411	0.905537800580553	-0.978017082499489	0.000251587159599054	-0.00429546769959388
0.51	-1.70406863643275	1.63232391507102	781.130170842688	13.1834789407549	20.7691753974327	0.912809910314318	-0.984945486162536	0.00019860724418197	-0.00433777381085965
0.52	-1.63142077348233	1.65725563242787	781.252718723483	13.1514737900883	20.721980446612	0.924673881213198	-0.996070158532804	0.00015381493925537	-0.00440001217631242
0.53	-1.54775215023422	1.66956854220503	781.221878952572	13.1235475544164	20.6534677921376	0.940515682143074	-1.01064086990019	0.000117503924001783	-0.00448429910632947
0.54	-1.45968001989926	1.66505804477842	781.041131248277	13.0982525129462	20.5670176722045	0.958824015852449	-1.02714949168294	8.77574902520273e-05	-0.00458641436827845
0.55	-1.37637310026463	1.64395570994834	780.765952863649	13.0740402606217	20.4716506361521	0.977483941802965	-1.04365002007837	6.14149927757879e-05	-0.00469668288191688
0.56	-1.30789818301922	1.61142924957993	780.491539935538	13.0500881165685	20.3799704156053	0.994200012184417	-1.05816543437891	3.53927198845083e-05	-0.00480218727003207
0.57	-1.26316802414157	1.57668493787006	780.327569961919	13.0268326274429	20.305134259478	1.00694751926195	-1.06907791722739	7.90711402498534e-06	-0.00488979172404319
0.58	-1.24792533801984	1.55073653186739	780.365789314686	13.0059849853018	20.2575436742731	1.01436571928192	-1.07542596311857	-2.08120028022396e-05	-0.0049492860934896
0.59	-1.26323670602315	1.54330973909291	780.648911648692	12.9899930517949	20.2420444363868	1.01603007438189	-1.07706657561108	-4.85447758433732e-05	-0.00497592526956525
0.6	-1.30490546303642	1.55969067640953	781.149971374966	12.98113231354	20.2563547967293	1.01255940071133	-1.07468745984161	-7.18028642390234e-05	-0.00497174921876042
0.61	-1.36404574585089	1.59847879171726	781.769407656001	12.9805662813383	20.2912008816474	1.00552942729735	-1.06967072682106	-8.69683436188762e-05	-0.0049453127753073
0.62	-1.42881577300556	1.65107970628241	782.352929820205	12.9877443259838	20.3322592538625	0.997186937825224	-1.06382447657812	-9.14441237636066e-05	-0.00490979782810042
0.63	-1.487029354944	1.70335406064138	782.727533045346	13.0003810943121	20.3635592187937	0.989996664942289	-1.05902033085521	-8.44478848502916e-05	-0.00487986326344908
0.64	-1.52910637874661	1.73920614142813	782.747387104364	13.0150322424617	20.3715852528921	0.986102627747414	-1.05680297953234	-6.72550898013213e-05	-0.00486792738463421
0.65	-1.5506533553325	1.74522819589299	782.337442702659	13.0280431882689	20.3490576098926	0.986828861064917	-1.05806030602338	-4.2918397979208e-05	-0.00488078453093665
0.66	-1.55395403416223	1.71504343729891	781.521935348348	13.0365061016779	20.2973507690096	0.99235772178792	-1.06284330066866	-1.56568974054583e-05	-0.00491746001432569
0.67	-1.54784352210173	1.65191786458119	780.428133688197	13.0388779698996	20.2267748445163	1.0016910403998	-1.07039381991391	9.84762210931578e-06	-0.00496897440412125
0.68	-1.54582529339565	1.56862870876029	779.262117795793	13.0350773834321	20.1544568148747	1.01292305330892	-1.07938009625496	2.90847619034418e-05	-0.00502024845152677
0.69	-1.56278005380253	1.48440146125374	778.261370572407	13.0261088922993	20.1001991328664	1.02375789409693	-1.08827439363654	3.82429848434507e-05	-0.00505382618559008
0.7	-1.61105864052198	1.41970275600435	777.63611202337	13.0134522168251	20.0812899367001	1.03212393258022	-1.09576033336123	3.4681479033849e-05	-0.00505456705607443
0.71	-1.69698905017413	1.39045509897023	777.515263599191	12.9985158894059	20.1076101373721	1.0367042603784	-1.10104902302482	1.73912097897189e-05	-0.00501411348096736
0.72	-1.81875968459738	1.40351226444718	777.912255791015	12.9823728210677	20.178395780339	1.03723097366667	-1.1040171975658	-1.2602465108591e-05	-0.00493389992540105
0.73	-1.96627411925093	1.4548628408158	778.720604015914	12.9658205820491	20.2816356916387	1.03447033305933	-1.10514347048989	-5.20553203916529e-05	-0.00482577783039967
0.74	-2.12302597749642	1.5311211976632	779.740816426026	12.9496337483632	20.3964012185953	1.02992654502746	-1.1052856870106	-9.57442124079888e-05	-0.00470992764265982
0.75	-2.26949906342585	1.61374711187322	780.731332321982	12.9347845381281	20.4976049166181	1.02537701212695	-1.10538837304302	-0.000137264771660095	-0.00461045915208474
0.76	-2.38722911063634	1.68452855687001	781.469542092733	12.922439845961	20.562001530969	1.02239251931375	-1.10621957030386	-0.000170336447537722	-0.00454975570377997
0.77	-2.46256180094604	1.73050606965989	781.80645858794	12.9136759333741	20.5738813063073	1.02198170573306	-1.1082112101233	-0.000190339864645117	-0.00454300043118255
0.78	-2.48929537624372	1.74682549330456	781.700862869564	12.909018531842	20.5289710856239	1.02444132787628	-1.11143036372694	-0.0001956451619195	-0.00459431361742546
0.79	-2.46971459650011	1.73682623223159	781.224832338832	12.9080349351827	20.43553322102	1.0294181802034	-1.11566048539898	-0.000188266640763546	-0.00469552521301908
0.8	-2.41389229675921	1.70966378842633	780.540516027808	12.9092177972645	20.3123976362259	1.03612381866745	-1.12053982777455	-0.000173531141464012	-0.00482791759747259
0.81	-2.33746983244877	1.67655251628024	779.855528799162	12.9102972132218	20.1844670701006	1.04360899318426	-1.12569666084653	-0.000158739308164124	-0.00496649398244092
0.82	-2.25838936198243	1.64703757772528	779.369412821702	12.9089388514893	20.0768790997933	1.05100552311994	-1.13083479233211	-0.000151136348900405	-0.00508567313995867
0.83	-2.19322928540014	1.62650489004523	779.225114548266	12.9036059518495	20.0093224407872	1.05767121005769	-1.13574840978379	-0.000155772394928588	-0.00516495844038517
0.84	-2.1538778306483	1.61555069182124	779.477235009043	12.8942596671082	19.9919150022697	1.0632147240013	-1.140272352449	-0.000173920038448516	-0.00519316972906986
0.85	-2.1452419669014	1.61111289373698	780.083772153289	12.8825945871055	20.0235931129647	1.06741935475853	-1.14419605144875	-0.000202582651523953	-0.00517024313513526
0.86	-2.16450216555155	1.60868053710523	780.921693293881	12.8716540506176	20.0932693653416	1.07011708800119	-1.14718316903949	-0.000235303394394482	-0.00510627607148761
0.87	-2.20209190612616	1.60462800372399	781.820699891209	12.8648921009015	20.1832862416639	1.07107990400757	-1.14874159398288	-0.000264073215074045	-0.00501823116275923
0.88	-2.24416404551998	1.59781478908764	782.605493552926	12.8649630516593	20.2741265293169	1.06998802302467	-1.14827668955075	-0.000281774623430264	-0.00492530513732053
0.89	-2.27591744551955	1.58996608081065	783.135615690353	12.872643174809	20.3490897249244	1.06650423041055	-1.14523341426045	-0.000284411598044598	-0.00484425344039491
0.9	-2.28492796960371	1.58483867710074	783.333579836447	12.8862718609521	20.3977593449829	1.06043661501942	-1.13929516618023	-0.000272430972318549	-0.00478587103866851
0.91	-2.26365147779757	1.58660322013065	783.195830885174	12.9019433409751	20.4175120353618	1.05192513995584	-1.13057189513207	-0.000250720458468856	-0.00475341265304619
0.92	-2.21054805243683	1.59810675971078	782.785828600349	12.9144375110981	20.4129114273837	1.04156125391848	-1.11969465221876	-0.000227279864813301	-0.00474313477671379
0.93	-2.12971974158184	1.61966686520754	782.212931645818	12.9186337227515	20.393407385711	1.03036084625446	-1.10775193314766	-0.000210968965482672	-0.00474654454533735
0.94	-2.02939566855296	1.6488173904024	781.603688359357	12.9109889450139	20.3701647332293	1.01956176950471	-1.09605547452586	-0.000209006963384772	-0.0047535176135346
0.95	-1.91987955806144	1.68106640328399	781.073072990047	12.8906355637394	20.3529786371834	1.01029134478352	-1.08579274568586	-0.000224953252323745	-0.0047553051278269
0.96	-1.81160948932571	1.71136254742113	780.702180195633	12.8597694243912	20.3480846688555	1.00321540135022	-1.07768070157349	-0.000257731047271559	-0.00474660633655888
0.97	-1.71378662625687	1.73572015934158	780.526440233323	12.8232119212899	20.3573093703966	0.998305849633155	-1.0717512684689	-0.000301931283749113	-0.00472626744383742
0.98	-1.63371461536479	1.75241040217888	780.535366508988	12.7872670716552	20.378559327804	0.994831320540287	-1.06736022793413	-0.000349265866437243	-0.00469664240102408
0.99	-1.57669399275655	1.7623006471509	780.682055887915	12.7581807355331	20.4072593860058	0.991594057025698	-1.06342940301469	-0.000390740880839791	-0.00466205754563553
1	-1.54614991400887	1.7682523082997	780.898788966661	12.7405959643473	20.4381411762841	0.987339182900846	-1.05884074388581	-0.000418968017827259	-0.00462702969957984
1.01	-1.54368382013451	1.7738427867241	781.11442159285	12.7363769417262	20.4667993834052	0.981191739913891	-1.05283966401055	-0.000430044484816317	-0.00459484468183902
1.02	-1.56890094040397	1.78192152995537	781.269725532628	12.7440691501715	20.4906371302676	0.972963136305647	-1.04530035935355	-0.000424574692891033	-0.004566855893746
1.03	-1.61908887286118	1.79354943431229	781.328032321164	12.7591152567868	20.5091087970591	0.963217076420159	-1.03675907764097	-0.000407622027325694	-0.00454253242424252
1.04	-1.68900080551997	1.8076965674761	781.279955340814	12.7747898176513	20.5234153757073	0.953074358219551	-1.02820899971118	-0.000387610599907995	-0.00452001486340159
1.05	-1.77104625116669	1.82176552653833	781.14219873046	12.7836723094835	20.5359274239269	0.943829659468515	-1.02073668427101	-0.000374408909285751	-0.00449682286451986
1.06	-1.8560857325078	1.83269676804686	780.95132515542	12.7793595654037	20.5495876858523	0.936516440756142	-1.01513273331656	-0.000376999165499048	-0.00447041663252273
1.07	-1.93480559950399	1.83821822597278	780.753905460712	12.7580414656291	20.5674304172171	0.931568122321292	-1.01161217988489	-0.000401247309598896	-0.00443848172679434
1.08	-1.99940761960841	1.83778503845638	780.59488931494	12.7195533830121	20.5922294410251	0.928684873065055	-1.00973654452534	-0.000448309832686955	-0.00439898320542914
1.09	-2.04518707751083	1.83290053772361	780.50642484374	12.6676012294281	20.6262189522007	0.926943052251644	-1.00855839014688	-0.000514113953362427	-0.0043501380644354
1.1	-2.07155924971967	1.82674356074413	780.499610839684	12.6090353183521	20.6708409916535	0.925104658132504	-1.00693587067837	-0.000590119662779998	-0.00429045273318013
1.11	-2.08223161824997	1.82325718069768	780.561479736714	12.5522954383105	20.7265339938653	0.922022519343568	-1.00391222500625	-0.000665251710373904	-0.00421888896706646
1.12	-2.08445361346914	1.82600580180617	780.658572122361	12.5053927811476	20.7926351429364	0.917011219462956	-0.99903812444976	-0.000728559012497465	-0.00413511373396713
1.13	-2.08752215419712	1.83714632363944	780.746745188317	12.4739521922721	20.8674797051229	0.910070210460877	-0.992536956438526	-0.000771922967336303	-0.00403971470484804
1.14	-2.10090108557267	1.85679119788971	780.784788240629	12.4598485189703	20.9487290667444	0.901897931292029	-0.98526682835583	-0.000792082133660443	-0.00393425603788838
1.15	-2.13238068946208	1.88290258223315	780.747792978423	12.4608199341911	21.0338695563009	0.893706302588525	-0.978500714693752	-0.000791401519574797	-0.0038211068265685
1.16	-2.18665751976612	1.91169698913677	780.635845522283	12.471171411404	21.1207432967583	0.886909195968485	-0.973604599906138	-0.000777151986750102	-0.00370306449733726
1.17	-2.26458735181464	1.93840818940786	780.474844219437	12.4833757232981	21.2079447908977	0.882793180139043	-0.971721587705743	-0.000759481028542175	-0.00358287363503856
1.18	-2.36320314591905	1.95818965752056	780.308795446634	12.4901299837959	21.2949610393196	0.882271546793764	-0.973557361122567	-0.000748626404435848	-0.00346277317381899
