Time [s]	GRFml [N]	GRFap [N]	GRFv [N]	Mml [N.m]	Map [N.m]	Mv [N.m]	Mfree [N.m]	COPml [m]	COPap [m]
0.01	0.929435026251867	17.2996726716513	766.790477939716	-7.20106974388092	-9.62609895489705	2.7608358131696	-2.55243814008453	0.000425549742802067	-3.3962488317385e-05
0.02	0.684353115119334	17.218963706539	767.294054687403	-7.28755146774414	-9.4967662170727	2.71910407246838	-2.51237417146522	0.000318198756125154	0.000150343794471985
0.03	0.467965758037728	17.1369344068757	767.835166173565	-7.35188450650583	-9.3627636699533	2.68680712694702	-2.48212741659034	0.000240359415369373	0.000341166205083621
0.04	0.292961376515464	17.0552073364608	768.435420583868	-7.37736759442665	-9.21764426513141	2.67051858766077	-2.46851435699799	0.000214249997642968	0.000547019018549144
0.05	0.155782802289128	16.9762790154762	769.109995482551	-7.35437652899979	-9.05947143761384	2.67227695758147	-2.47356563771047	0.000252652707032786	0.000770487386118957
0.06	0.0382959316126391	16.9026670049485	769.873747937685	-7.28127794435657	-8.89275811053197	2.68926205641675	-2.49418603189035	0.000357755256211512	0.00100584849829355
0.07	-0.0838185271721341	16.8355977199786	770.74715299016	-7.16351284403775	-8.72915592799869	2.7150010523878	-2.52343433592171	0.000522422577015735	0.00123831805121843
0.08	-0.228947876557887	16.7737264493106	771.756767316383	-7.01135434393943	-8.5866055878021	2.74161837375429	-2.55291080953431	0.000733179305313136	0.00144519711570046
0.09	-0.398461584896767	16.7124733687374	772.926570332684	-6.83717110234591	-8.48687869035563	2.76231992288913	-2.57539540414783	0.00097376594819476	0.00159893296245284
0.1	-0.571287359747871	16.6444025152384	774.260814829762	-6.65301107926535	-8.45180232639577	2.7732884502202	-2.58686272249779	0.00122819469168844	0.00167171254347709
0.11	-0.706740243811117	16.5607064219621	775.724060213978	-6.46900479770735	-8.49889895616846	2.77444106548956	-2.58728735141854	0.00148269564216386	0.00164072716778318
0.12	-0.755017345041997	16.4534132608861	777.227384292209	-6.29264336982147	-8.6375325488035	2.7689361953397	-2.58011513262658	0.00172656164751539	0.00149284964053809
0.13	-0.67172782160561	16.3175844429754	778.629424751736	-6.12862868258632	-8.86672845128467	2.76174455172077	-2.57073156727832	0.00195236842167035	0.00122737188554634
0.14	-0.431178211189591	16.1526874334755	779.756432640746	-5.97888264387283	-9.17549776037109	2.75786657764103	-2.56454767095255	0.00215615059087837	0.00085581971373544
0.15	-0.0335888107234384	15.9625904259155	780.438322635873	-5.84247255084789	-9.54577387525726	2.76081074333893	-2.56536245065545	0.00233782393930271	0.000398677546385728
0.16	0.49617903679772	15.7541629399796	780.550584500412	-5.71554790138643	-9.95717178065827	2.77176098236806	-2.57446608428773	0.00250163439479678	-0.000120108427345833
0.17	1.11743913136309	15.5350636732998	780.04797863131	-5.59168396571384	-10.3920456021017	2.7895541592924	-2.590619845725	0.00265598499269859	-0.00067910492640505
0.18	1.78617938729585	15.3116760008938	778.977228142717	-5.46309035840778	-10.8390724175508	2.81129059154403	-2.6107271697979	0.00281192266830887	-0.00126376724573302
0.19	2.46614193825184	15.0881093081208	777.462453231564	-5.3228813506314	-11.2939940426998	2.833223063457	-2.63081476519173	0.00297997162646813	-0.00186755600911365
0.2	3.13430376330283	14.8667109625679	775.666682142899	-5.16809754719773	-11.7571125504734	2.85156152290024	-2.64692815805959	0.00316575579849965	-0.00248922066914353
0.21	3.77919860332356	14.6498355126144	773.741823275155	-5.00263611966249	-12.2283296848934	2.86296650725597	-2.65568763985937	0.00336563784221422	-0.00312706674315083
0.22	4.39365747310142	14.4420210730584	771.784431803562	-4.83895562296002	-12.7015000139137	2.86470398456096	-2.65446360954029	0.00356403360467317	-0.00377221067259859
0.23	4.96584333986703	14.251508309356	769.813377929669	-4.69756105130566	-13.1602510818049	2.85460228031302	-2.64131293150081	0.00373386975480416	-0.00440335386668433
0.24	5.47300027017842	14.0902993487031	767.778388741564	-4.60386244002827	-13.5770470282479	2.83101930296055	-2.61489617435545	0.00384081550067594	-0.00498525789758486
0.25	5.88101866382388	13.9725637645835	765.597884360684	-4.58285867329966	-13.9162525166103	2.79297904589728	-2.57455092149914	0.0038506897636239	-0.00547197795837251
0.26	6.15040965984949	13.911880465846	763.214288846854	-4.65291826372481	-14.140641553911	2.7405071400275	-2.52056632428686	0.00373826174292613	-0.00581439039915749
0.27	6.24667649281703	13.9182693913542	760.648605804922	-4.82039273571022	-14.2196387420952	2.67505382534758	-2.45455878650875	0.00349497791259124	-0.00597014300289417
0.28	6.15138200279116	13.9960363563698	758.035595294991	-5.07670790624585	-14.1369610795809	2.5998049943366	-2.37975629677774	0.00313324710308049	-0.00591332222625152
0.29	5.86998109369687	14.1431184282805	755.626378205828	-5.39893625016473	-13.8954361950216	2.51968418885743	-2.30099704021004	0.00268580157103715	-0.00564112506848458
0.3	5.43364889047427	14.3520241516151	753.754811538068	-5.75386271650087	-13.5175550054237	2.44093598417899	-2.22433217575867	0.00220004706744537	-0.00517562700252266
0.31	4.89434493349472	14.6118547779452	752.774483103096	-6.10454318545011	-13.0415142691193	2.37031627862192	-2.15625491862753	0.00172876300123503	-0.00456008763055782
0.32	4.3144660309358	14.910512947238	752.981563744382	-6.41764789319063	-12.513749519157	2.31404645355814	-2.10270672041439	0.00131954937758749	-0.00385072146574528
0.33	3.75399416937091	15.2362065691821	754.542792505294	-6.66969668616099	-11.9798928657497	2.27677234540333	-2.06809252913028	0.00100572747989724	-0.00310605544913528
0.34	3.25865014053197	15.5777363857412	757.446710791244	-6.85066350837646	-11.476464703281	2.2607818173038	-2.0545477944772	0.000800922539833548	-0.00237657522259038
0.35	2.85215269362007	15.9236548750572	761.490495605463	-6.96421163622633	-11.0253437354697	2.26567565324529	-2.06164045118407	0.000698474353610701	-0.0016971917243967
0.36	2.53446579245946	16.2609449160347	766.306052709059	-7.02476255669992	-10.6322533188646	2.28857390283703	-2.08658109910819	0.000675487245025974	-0.00108421194679581
0.37	2.28626963380476	16.5741466744234	771.419658545684	-7.05242079847847	-10.2893915433881	2.32480525207426	-2.12488585460697	0.00070013690087356	-0.000537227008220065
0.38	2.07824637925297	16.8457379667834	776.331633551295	-7.06725592576766	-9.98122724213858	2.36890782776087	-2.17132503305545	0.000740115818066212	-4.49979327557526e-05
0.39	1.88252503845393	17.0580924963505	780.598088808908	-7.08447715896068	-9.69168276248655	2.41569938569085	-2.22092781862422	0.000769984942399105	0.000406607701377015
0.4	1.6830761493625	17.1966890830827	783.896725688155	-7.11165274234847	-9.41063558047074	2.46117163665229	-2.26981425449007	0.000775687858281526	0.000827023503888913
0.41	1.48212979123392	17.2536717270201	786.062994955328	-7.14846524477311	-9.13795831911721	2.50302429781272	-2.3156863534211	0.000755394865873948	0.001215897409232
0.42	1.300764937384	17.2305811548319	787.09058935813	-7.18876177872321	-8.88408282307479	2.54075581831757	-2.35790647761142	0.000716895231371861	0.00156184632340817
0.43	1.1734336512217	17.1392064001962	787.099311151392	-7.22406382244071	-8.66708935176226	2.5753363149333	-2.39719172801868	0.000672648976634105	0.00184522954969646
0.44	1.13791553326726	17.00001759843	786.281421665468	-7.2473951821716	-8.50729289324988	2.60857491846745	-2.43503116159528	0.000634117871876061	0.00204396797638146
0.45	1.22354595932673	16.8383873741509	784.842426511762	-7.25632058701932	-8.42095233761548	2.64234327669967	-2.47297525471661	0.00060702214607844	0.00214062072847399
0.46	1.44110253545187	16.6795479983349	782.952530069379	-7.25441142791136	-8.41489213663881	2.67782916486009	-2.51195550723604	0.00058876131829122	0.00212866638302872
0.47	1.77727567515135	16.5437047815883	780.720705765841	-7.25084775452651	-8.48347667028369	2.71497714238889	-2.55177536552125	0.000568550083229868	0.00201626687538797
0.48	2.19531772366961	16.4427407618918	778.195873268341	-7.2583815344639	-8.60864447206495	2.75223491729447	-2.59087970268661	0.000530057224041314	0.00182658543039926
0.49	2.64167613099132	16.3794623436777	775.391408753131	-7.2902986048791	-8.76283154878482	2.78666816066883	-2.62646161248831	0.00045568966653764	0.00159472090882173
0.5	3.05673243672349	16.3494979312572	772.322667437018	-7.35724014521382	-8.91385988755039	2.81443497869197	-2.65490226639328	0.000331278158148596	0.00136220261490433
0.51	3.38670261478235	16.3450691301455	769.044218115985	-7.4647386166536	-9.03045172334242	2.83153142001881	-2.67246665372021	0.000149873950300861	0.00117051187086753
0.52	3.59359689408359	16.3592402483356	765.674671777507	-7.61209206934107	-9.08704154896179	2.83464854497301	-2.67611000474918	-8.6335657323966e-05	0.00105514513774541
0.53	3.66087887930946	16.3891460212555	762.401572430115	-7.79279751842486	-9.06694021539031	2.82194371342812	-2.66420966041841	-0.000366413668138721	0.00104135767080837
0.54	3.59382223429005	16.4371273032013	759.465083229179	-7.99629484585472	-8.9634888169512	2.7935433205281	-2.63704579039769	-0.000673093184514917	0.00114210792381519
0.55	3.41509376981287	16.5094901747841	757.125130765081	-8.21038234626844	-8.77941189147303	2.75166314270783	-2.59691645480496	-0.000986367471602967	0.00135809491992361
0.56	3.15733398349945	16.6134434546392	755.620639000352	-8.4234933034103	-8.52496572263223	2.70033472875471	-2.54787002156123	-0.00128709154793216	0.0016793381653718
0.57	2.85511980459506	16.753366601107	755.130680359991	-8.62614289240339	-8.21559872149306	2.64482553085085	-2.49513610405855	-0.00155955150467502	0.00208758344623955
0.58	2.53855112169337	16.9277320408927	755.745880852908	-8.81122818430412	-7.86972284876146	2.59090214183911	-2.44439990560198	-0.0017924405111156	0.00255890309950269
0.59	2.22991030571934	17.1277319132363	757.455025691959	-8.97334619622722	-7.50693660908038	2.54409369192277	-2.40107582925721	-0.0019783396959514	0.00306609247731054
0.6	1.94369849931635	17.3380628331779	760.147676569602	-9.10769128006751	-7.14675984495879	2.50907390043122	-2.36970012958445	-0.00211237402080611	0.00358072345186539
0.61	1.68923442793425	17.5396153645764	763.6299091187	-9.20924330095483	-6.8077305639492	2.4892201434635	-2.35350282930937	-0.00219097367811205	0.00407491109368563
0.62	1.47425140811545	17.7132266857659	767.647922312907	-9.27280454409522	-6.50661908826926	2.4863533041366	-2.35416335777447	-0.00221152912099198	0.00452294257453445
0.63	1.30774586391225	17.8433654647591	771.913717312136	-9.29405294066426	-6.25753691008347	2.50063028790954	-2.37172045373023	-0.00217325591299922	0.00490290984938246
0.64	1.20073101423528	17.9207066224536	776.12821826983	-9.27131106147864	-6.07083276282077	2.53055502198909	-2.40459893312187	-0.00207898361121861	0.00519840012141493
0.65	1.1643811397828	17.9429749078312	779.999559773862	-9.2073686337681	-5.95183945469744	2.57308652934677	-2.4497277492687	-0.00193709101632566	0.00540015663561871
0.66	1.20605502557891	17.9140340760932	783.256920911173	-9.11057972381079	-5.89971484684777	2.62384385008098	-2.50274544590233	-0.0017626171275652	0.00550746189081203
0.67	1.32456068843809	17.8417605955328	785.662285156482	-8.99462982544834	-5.90675203019502	2.67742722531233	-2.55831083109361	-0.00157675687980752	0.00552886728157742
0.68	1.50649020918855	17.7355741628871	787.023091258289	-8.87677442656265	-5.95855881953124	2.72788364541942	-2.6105486781949	-0.00140444362675274	0.00548186103701265
0.69	1.72532805978912	17.6044965715708	787.207639608581	-8.77485058132096	-6.03538608425571	2.76933314553406	-2.6536519785445	-0.00127035889501037	0.00539118247616155
0.7	1.94429528568656	17.456293526908	786.162708627299	-8.70378619320721	-6.11462356483797	2.79673341694798	-2.68262557416624	-0.001194276396285	0.00528576337353975
0.71	2.12272048009203	17.2977526063068	783.930077059357	-8.67253336777285	-6.17414384071525	2.80669712577432	-2.69409243529158	-0.00118694597170244	0.00519464881555942
0.72	2.22450026833956	17.1356616913178	780.656743984206	-8.68226236802697	-6.19586914216472	2.79820694694059	-2.68701139409863	-0.00124764677600608	0.00514260337313899
0.73	2.22637528065881	16.9777665826723	776.593530883714	-8.72630066920383	-6.16877854860472	2.77303001612209	-2.66310716108471	-0.0013641071333087	0.00514630811580286
0.74	2.12364546132608	16.8330167190521	772.078690415391	-8.79180565301004	-6.0906394443811	2.73565050294193	-2.62682604276631	-0.00151484209266117	0.00521200420323537
0.75	1.93165371754581	16.7107407074039	767.506567432764	-8.86268376130299	-5.96803256287195	2.69263302068837	-2.58472240787801	-0.00167331043846253	0.00533513122312307
0.76	1.68262591722303	16.6188888767105	763.285118942508	-8.92296333383759	-5.81465811715843	2.65148391310191	-2.54433567405079	-0.00181284530592851	0.00550203224086987
0.77	1.41879114769182	16.5619265338392	759.788976755095	-8.95977576475463	-5.64832775901772	2.61924150833947	-2.51278429324812	-0.00191119106064674	0.00569330345813962
0.78	1.18363692365794	16.5391670984614	757.315903174723	-8.96529228647093	-5.48733802826129	2.60113454879046	-2.49541488284747	-0.00195369066147422	0.00588800343687773
0.79	1.01341191660548	16.5442136837018	756.053768637606	-8.93731670101209	-5.34701584953903	2.59964977313365	-2.49484952249723	-0.00193461340900336	0.00606779463092455
0.8	0.930618676597757	16.5657909933879	756.062985539398	-8.87862536434264	-5.23712840381005	2.61423566824673	-2.51066231001551	-0.00185663687810211	0.00622017504239214
0.81	0.940524946026524	16.5897710966033	757.276393019937	-8.79545950528039	-5.16061631340342	2.64167842223917	-2.53972637160923	-0.00172894458258244	0.00634021068093921
0.82	1.03099988477082	16.6018309871342	759.515624647164	-8.69573451879437	-5.11381762009089	2.67698917104017	-2.57707609664289	-0.00156466255724896	0.0064305145691419
0.83	1.17545586820223	16.5900634541298	762.520514939661	-8.58750921849013	-5.08806524654364	2.71451143933917	-2.6169991349178	-0.00137838637179533	0.00649955995170676
0.84	1.33835308288763	16.5470026465623	765.986376718496	-8.47807700160729	-5.07230254667203	2.74893770939732	-2.65405167741771	-0.00118436166596425	0.00655871401883384
0.85	1.48247815704788	16.4708056189132	769.603116860837	-8.37376360033326	-5.05619164021749	2.77601178704391	-2.6837757406809	-0.000995548513530342	0.00661860297093259
0.86	1.57692664000002	16.3655847349964	773.090208249716	-8.28023303544808	-5.03310280740974	2.79284429743498	-2.70304394738443	-0.000823434361647557	0.006685545076904
0.87	1.60441449001996	16.2409957556126	776.222537158956	-8.20290927019245	-5.00238515020235	2.79791639567323	-2.71010082156809	-0.000678183890968076	0.0067587923388811
0.88	1.56636666396945	16.1111500311261	778.844049687278	-8.14708534157297	-4.97043801341448	2.79093306453674	-2.70445292223755	-0.000568621692902171	0.00682918933026755
0.89	1.4843825089517	15.9928392007265	780.868676434184	-8.11743244478525	-4.95032135861629	2.77268433316861	-2.68675676465817	-0.000501668835754865	0.00687959800726812
0.9	1.39727783646751	15.9030690966331	782.270697259279	-8.11689403733368	-4.9599290612158	2.74499280775109	-2.65877633593728	-0.000481153870984241	0.00688708875316479
0.91	1.35389365241647	15.8560640025728	783.068798539848	-8.14525843466076	-5.01904736401064	2.71071449332275	-2.62337578922643	-0.000506283205320535	0.00682652701472836
0.92	1.40299292615518	15.8601761123765	783.308902736144	-8.19793128416816	-5.14586556207178	2.6736747484288	-2.58443359239596	-0.000570345313892773	0.00667487258941452
0.93	1.58248217875566	15.9153792442416	783.050105920913	-8.26548197369305	-5.35363580799374	2.63840653206637	-2.54655411801058	-0.000660317424157175	0.00641533260531552
0.94	1.91056368328202	16.012089299198	782.356008192164	-8.33437947204039	-5.64815284656282	2.60962414763291	-2.51452007461481	-0.000757886705868405	0.00604052463653409
0.95	2.38107284023261	16.1318580786267	781.291159806545	-8.38900369642422	-6.02653631562499	2.59148332475843	-2.49254465062316	-0.000842025404787505	0.005554027776281
0.96	2.96423620736073	16.2500679907551	779.920289055915	-8.41462387181582	-6.47748405820265	2.58679200303451	-2.48349079750027	-0.000892787311503107	0.0049700885266421
0.97	3.61266393224599	16.3402435439807	778.307230362258	-8.40070822589976	-6.98280046281462	2.59638957032725	-2.48827234780267	-0.000895578268720776	0.00431171327314045
0.98	4.27096291576973	16.3791552973275	776.511282860559	-8.34377907503155	-7.51969016619189	2.61887662036007	-2.50561065991784	-0.000844933792716107	0.00360779024309749
0.99	4.8863403314947	16.3516556771071	774.580711878979	-8.24909872885565	-8.06314509796844	2.65076570646689	-2.53220601895898	-0.000746879379441401	0.00289010620082553
1	5.41728602385597	16.2542146757689	772.545415385055	-8.13073202947294	-8.58780912923088	2.68698631423821	-2.56324627116453	-0.000619230049235475	0.00219106124822444
1.01	5.83801772445583	16.0963978479883	770.412456364091	-8.00989099415791	-9.06898168477947	2.7215780762816	-2.59307998907308	-0.000489610625205361	0.00154252831777091
1.02	6.13773813565731	15.8999667328456	768.16846829225	-7.91182057688274	-9.48283959996398	2.7483908562712	-2.61587296767699	-0.000391428184891462	0.0009757521768472
1.03	6.31551818421227	15.6957676857585	765.791568595648	-7.86175183581246	-9.8063654582614	2.76168211592917	-2.6261469482984	-0.00035840689064337	0.000521632274952777
1.04	6.37321800153128	15.51899604481	763.272583856104	-7.88059606185577	-10.01769771445	2.75661745943141	-2.61922233368461	-0.000418554135345417	0.000210416232627852
1.05	6.3096797458529	15.4036968209257	760.641821052147	-7.98108841299531	-10.0975356952071	2.7297689115476	-2.59167889752167	-0.00058855792138568	6.99218883179475e-05
1.06	6.11905623318157	15.3774547975175	757.994393562945	-8.16503791745898	-10.0318222560408	2.67970613762352	-2.54194641921504	-0.000869625281227471	0.000121939914820735
1.07	5.7945595169413	15.4571427699687	755.505405900954	-8.42221942400852	-9.81530544060484	2.60767197711063	-2.47102357157457	-0.00124565430749712	0.000377299701610323
1.08	5.33659781198391	15.6463713464356	753.427022521328	-8.73124753367692	-9.45497419958725	2.51816894322366	-2.38314394014691	-0.00168436136948835	0.000830912583001164
1.09	4.76207253678178	15.9349657214783	752.062865759862	-9.06248583368094	-8.97203045787789	2.41914634533498	-2.28605621667006	-0.00214153387483351	0.00145859257309372
1.1	4.11046637636898	16.3004403285429	751.72073604002	-9.38266713258185	-8.40118919412193	2.32146133566448	-2.19056042733674	-0.002567963543051	0.00221733432608545
1.11	3.44289848978516	16.7111147623383	752.650970691346	-9.66048187662795	-7.78672199773501	2.23744045459734	-2.10909736995371	-0.00291793392779227	0.00304994261710978
1.12	2.83256421230395	17.1302792969797	754.983058822938	-9.87204291306908	-7.17562076719274	2.17866379092627	-2.05349795667141	-0.00315757399406369	0.00389365057139246
1.13	2.34821637435558	17.5207258673017	758.675695154335	-10.0049972188334	-6.60925121969701	2.1534292932816	-2.032356579586	-0.00327116801933203	0.00469103148247851
1.14	2.03538812521472	17.8490214481805	763.494205855082	-10.0602401350829	-6.11554058184677	2.16459045777202	-2.04875034409988	-0.00326379395001475	0.0054005658027394
1.15	1.90165798476271	18.0890725958999	769.024159590354	-10.0507086134448	-5.70383466169184	2.20847924433837	-2.09905767053915	-0.00315945879144897	0.00600403223122115
1.16	1.91163448371404	18.2247272560426	774.722054827898	-9.99747088143405	-5.36398808220732	2.27538681498325	-2.17338830271547	-0.00299502915571814	0.00650856966212132
1.17	1.99452692007747	18.251294542982	779.995196126652	-9.92407084235915	-5.07016124475115	2.35163660993901	-2.25768089340716	-0.00281138652268187	0.0069426335786188
1.18	2.06306614714881	18.1758935755933	784.295538164569	-9.85058044332289	-4.78850863673581	2.42278831003939	-2.337001145846	-0.00264400436363099	0.00734673920478091
