Time [s]	GRFml [N]	GRFap [N]	GRFv [N]	Mml [N.m]	Map [N.m]	Mv [N.m]	Mfree [N.m]	COPml [m]	COPap [m]
0.01	18.7106019692208	-3.75501477573414	638.013044429426	-50.5253118401811	0.673232201002488	-0.425116943356593	1.06067958615472	9.25416167257897e-05	0.0112730201245469
0.02	18.6945278679162	-3.93115326338436	638.25979926982	-50.596711406419	0.70876802458557	-0.327479208386589	1.15898626728684	0.000147080092754513	0.0113535411800497
0.03	18.6795722108909	-4.10231859279027	638.501180468758	-50.6680014761637	0.743640688880401	-0.2312404602836	1.25599797470012	0.0002005988758359	0.0114345149034475
0.04	18.6662636878564	-4.26487243041397	638.731609938161	-50.7385308309143	0.777370747189455	-0.137943185145588	1.35019906850049	0.000252361551592916	0.0115155925952549
0.05	18.6550825262192	-4.41560960916625	638.945794954604	-50.8076413083642	0.809534011978236	-0.0490342304761943	1.4401648387822	0.000301718293240244	0.0115963820768337
0.06	18.6464317470233	-4.55191471265562	639.138939879602	-50.8746756496967	0.839779672958617	0.0341836364233568	1.52460803180804	0.000348133577698592	0.0116764343826525
0.07	18.6406099030286	-4.67188090454831	639.3069321362	-50.938989672932	0.867845715780383	0.110592965032707	1.6024184483781	0.000391209646318325	0.0117552402126432
0.08	18.6377869516825	-4.77438356229866	639.446493555703	-50.9999692374165	0.893570922019382	0.179293854600512	1.67269391321977	0.000430704620602949	0.0118322379426538
0.09	18.6379849428059	-4.85910484504688	639.555290692299	-51.0570518565747	0.916902886243214	0.239625921975199	1.73476144241873	0.000466544428649222	0.0119068337474878
0.1	18.6410650997762	-4.92650901548917	639.632000498792	-51.1097522023007	0.93790166749319	0.291179337659081	1.78818801957884	0.000498827982854258	0.0119784331046488
0.11	18.6467226345311	-4.97777183377828	639.676330647449	-51.157690184181	0.956738889610357	0.333794875707029	1.8327809872986	0.000527825355794898	0.0120464817347356
0.12	18.6544902676293	-5.01467038965997	639.688996550049	-51.2006198280772	0.97369230623001	0.367553512207202	1.86857862584205	0.000553969010768958	0.0121105129947863
0.13	18.6637509460732	-5.03944214206639	639.671659580733	-51.2384568568854	0.989136041349898	0.392756636329822	1.89583198741553	0.000577838439508419	0.0121701979504288
0.14	18.6737596963673	-5.05462356705801	639.626832965371	-51.2713027139916	1.0035268957853	0.409898376986586	1.91497945222344	0.000600138828030081	0.0122253938646259
0.15	18.6836739591673	-5.06287961849014	639.55776314653	-51.299462776669	1.01738726588912	0.419631874976141	1.92661575182421	0.000621674601943475	0.0122761866841167
0.16	18.6925911698284	-5.06683518958496	639.468295090674	-51.3234566800109	1.03128534786534	0.422731532295519	1.93145735780799	0.000643318887776976	0.0123229232845747
0.17	18.6995918213975	-5.06891899366873	639.362729958005	-51.3440189988815	1.0458133950056	0.420053343543477	1.93030616175117	0.000665980063102952	0.0123662297350083
0.18	18.7037858148279	-5.0712288711992	639.245682846585	-51.3620889939019	1.06156485426111	0.412495364070493	1.92401328714143	0.000690566653973713	0.0124070126241934
0.19	18.7043596004294	-5.07542562413012	639.121947045659	-51.3787886890831	1.07911123246306	0.400960208091564	1.91344469361682	0.000717951873693335	0.012446441503746
0.2	18.7006214704447	-5.08266024403298	638.996369527968	-51.395389180363	1.09897953248353	0.386321215416232	1.89944998058271	0.000748939083731734	0.0124859116781335
0.21	18.6920423895632	-5.09353701030069	638.873740450883	-51.4132657407193	1.12163105823439	0.369393599739486	1.88283549469617	0.000784229398074966	0.0125269878377311
0.22	18.6782899501681	-5.10811255661288	638.758697414878	-51.433842953083	1.1474423182328	0.350911518733831	1.8643425167901	0.000824392549914777	0.0125713303094056
0.23	18.6592534014925	-5.12592878885008	638.6556433436	-51.4585317324507	1.17668866490204	0.331511611217113	1.84463096929429	0.000869841998915986	0.012620606912922
0.24	18.6350582037453	-5.14607561251606	638.568675289459	-51.4886606611593	1.20953119573046	0.311723153349969	1.82426876279229	0.000920815084428001	0.0126763944877245
0.25	18.6060691660338	-5.16727788899844	638.501520392123	-51.525404527094	1.24600731803979	0.29196461606454	1.80372660443996	0.000977358832599449	0.012740075027872
0.26	18.5728818984788	-5.18799995099955	638.45747474289	-51.5697132982755	1.28602524658453	0.272546078755949	1.78337783288719	0.00103932181256569	0.012812731978068
0.27	18.5363029969851	-5.20656039788481	638.439341100808	-51.6222449678808	1.32936256746617	0.253676685069394	1.7635026327207	0.00110635221885581	0.0128950525587327
0.28	18.4973200349313	-5.22124975937978	638.449362270197	-51.6833057455475	1.37566886745051	0.235476126635452	1.74429582261074	0.00117790214423542	0.0129872419759564
0.29	18.4570630133385	-5.23044393067481	638.489148422336	-51.7528009441352	1.42447229875784	0.21798901660849	1.72587730950826	0.00125323780883654	0.0130889550227155
0.3	18.4167593800957	-5.23270698998267	638.559598601044	-51.8301996132866	1.47518982923267	0.20120096896641	1.70830425843247	0.00133145533522891	0.0131992498986979
0.31	18.3776850395132	-5.22687803972275	638.660818910202	-51.9145155073198	1.52714081943305	0.185055229227378	1.69158404316029	0.00141150150998036	0.0133165680936807
0.32	18.3411139180509	-5.21213798177346	638.792042213542	-52.0043063588312	1.57956347408632	0.169468800619991	1.67568711413639	0.00149219885211085	0.0134387429381529
0.33	18.3082686262787	-5.18805355651779	638.951556328457	-52.0976926831615	1.63163363762322	0.154347165937899	1.66055903960001	0.00157227421665579	0.0135630379863919
0.34	18.2802745703991	-5.1545974546768	639.136649405187	-52.192396493116	1.6824853438689	0.139596905173546	1.64613113439935	0.00165039009415183	0.0136862148379965
0.35	18.2581195408711	-5.11214476385297	639.343582207265	-52.2857993957633	1.73123248983529	0.125135736059933	1.632329275393	0.00172517772006179	0.0138046284119325
0.36	18.2426203729209	-5.06144735956364	639.567597148182	-52.3750186170067	1.77699098390971	0.11089974113398	1.61908069770206	0.00179527107813817	0.0139143461572716
0.37	18.2343977731125	-5.00358902536509	639.802973058103	-52.4569986014759	1.81890072003344	0.096847773209415	1.60631875641356	0.00185934086626951	0.014011286312936
0.38	18.2338598800806	-4.93992503362782	640.043132704115	-52.5286150123093	1.85614675152074	0.0829632349476924	1.5939858082503	0.00191612749271515	0.0140913692052911
0.39	18.241194617723	-4.87201059760234	640.280807117347	-52.5867872527339	1.88797908003089	0.069253593948383	1.58203450396809	0.00196447218774297	0.014150674775151
0.4	18.2563704428145	-4.80152299235644	640.508256944128	-52.628595089263	1.91373053510787	0.0557481125949844	1.57042787511694	0.00200334535560296	0.0141855991128675
0.41	18.2791447155739	-4.73018222884526	640.717546588747	-52.6513946078175	1.93283229509697	0.0424943364308399	1.55913864314838	0.00203187136041579	0.0141930027842317
0.42	18.3090786503515	-4.65967495961456	640.90086218972	-52.6529286026659	1.94482668792039	0.0295538955717132	1.54814817449126	0.00204934904199199	0.0141703441535446
0.43	18.3455576419815	-4.59158581950693	641.050859866469	-52.6314265963837	1.94937700645891	0.0169981347499399	1.5374454567948	0.00205526739619215	0.0141157917243083
0.44	18.3878157075672	-4.52733969734732	641.161026612813	-52.5856900177451	1.94627417421178	0.00490400729896345	1.52702638778001	0.00204931602737168	0.014028310663041
0.45	18.4349628194556	-4.46815754430231	641.226033110373	-52.5151586121594	1.9354401985436	-0.0066494418786992	1.51689356070229	0.00203139018092079	0.013907720062447
0.46	18.4860140110391	-4.41502731071096	641.242055950651	-52.4199549028494	1.91692844740492	-0.0175838062946556	1.50705661247512	0.00200159038024904	0.0137547190331642
0.47	18.5399192864538	-4.36869053183707	641.207046562423	-52.3009044268177	1.8909208774566	-0.0278231926681212	1.49753308525957	0.00196021690936931	0.0135708812770176
0.48	18.5955935310182	-4.32964402360227	641.120925694171	-52.1595304952817	1.85772242392961	-0.0372952923404609	1.48834965173609	0.00190775958226776	0.0133586192804408
0.49	18.6519457767771	-4.29815517039128	640.985685610303	-51.9980233245655	1.81775283259694	-0.0459318001994776	1.47954347795118	0.00184488340681891	0.0131211205793375
0.5	18.7079073077651	-4.27428845150181	640.805387084052	-51.819184497105	1.77153626963804	-0.053668402224852	1.47116345209451	0.00177241087041181	0.0128622596132895
0.51	18.7624581809892	-4.25794021388961	640.586044520574	-51.6263487884769	1.71968908415188	-0.0604445896289753	1.46327099586228	0.00169130163800197	0.0125864894629149
0.52	18.8146517884005	-4.24887829584992	640.335399703256	-51.4232863817474	1.66290611947565	-0.0662035602159484	1.45594019675188	0.00160263045858382	0.0122987182347092
0.53	18.8636370968397	-4.24678296166054	640.062592208315	-51.214089335664	1.6019459729624	-0.0708924385972336	1.44925705106602	0.0015075640272691	0.0120041750365873
0.54	18.9086781880848	-4.25128572490195	639.777741903659	-51.0030468358189	1.53761559016743	-0.0744629917385737	1.4433176823324	0.00140733745731751	0.0117082704115081
0.55	18.9491706947493	-4.26200300329369	639.491465553702	-50.7945142047582	1.47075455037357	-0.0768729424668185	1.43822549020999	0.00130323089396674	0.0114164558185026
0.56	18.9846547063642	-4.27856212805404	639.214354848038	-50.5927808562586	1.40221935916698	-0.0780878996139219	1.43408728180114	0.0011965466662945	0.0111340863294554
0.57	19.0148237187974	-4.30061797871825	638.956446701372	-50.401942341566	1.33286801458543	-0.0780838381192636	1.43100853166295	0.00108858724102828	0.010866290203742
0.58	19.0395292311349	-4.32785937154111	638.726718106211	-50.2257813557202	1.26354506126242	-0.0768499836646119	1.4290880005464	0.000980634127444889	0.0106178484603593
0.59	19.0587806644096	-4.36000523073697	638.532636988822	-50.0676620679689	1.19506729743601	-0.0743918910296684	1.42841200920824	0.000873927795895808	0.0103930870247146
0.6	19.0727403879669	-4.3967914494729	638.379797430119	-49.9304414419759	1.12821025799183	-0.0707344584978115	1.42904870754207	0.000769648620380242	0.0101957835068225
0.61	19.0817137886698	-4.43795013701406	638.271662452646	-49.8164003599278	1.06369556742328	-0.0659245957851973	1.43104269773949	0.00066889884002584	0.0100290901787916
0.62	19.0861344983312	-4.4831835921909	638.209430695301	-49.7271964087367	1.00217924293557	-0.0600332619084262	1.4344103622324	0.000572685553676817	0.00989547426264545
0.63	19.0865450955879	-4.53213579503999	638.192035190804	-49.6638391802641	0.944241031243571	-0.0531566123265479	1.43913621376857	0.00048190481144079	0.00979667621062831
0.64	19.0835738081335	-4.58436443610253	638.216273719097	-49.6266879362558	0.89037488204313	-0.0454160402100511	1.44517052896398	0.000397326940214518	0.00973368625465663
0.65	19.0779079474296	-4.63931649124868	638.277061477866	-49.6154705457589	0.840980693444582	-0.0369569619054757	1.45242845249663	0.000319583328413616	0.00970673911723414
0.66	19.0702649985343	-4.69631010181515	638.367788734759	-49.6293217659291	0.79635750441885	-0.0279462772470974	1.46079067247439	0.000249154988525212	0.00971532641397257
0.67	19.0613624509736	-4.75452505597325	638.480759299803	-49.6668382455391	0.756698349346156	-0.0185685257188964	1.47010567495878	0.000186363303670289	0.00975822594137345
0.68	19.0518875819505	-4.81300352461031	638.607680577911	-49.7261471125402	0.722087021861736	-0.00902085303162337	1.48019349394089	0.000131363434249585	0.00983354673686331
0.69	19.04246848092	-4.87066193405577	638.740172990337	-49.8049846787223	0.692497011031591	0.00049300761692006	1.490850788657	8.41409008503085e-05	0.00993878852387652
0.7	19.0336476260964	-4.92631401845938	638.870265886482	-49.9007816590658	0.667792865022712	0.00976945649102923	1.50185700843845	4.45118585570921e-05	0.0100709139126946
0.71	19.0258592818021	-4.97870425065782	638.990848720902	-50.0107513515953	0.647734200312858	0.0186121057110438	1.51298135030744	1.21275263743378e-05	0.0102264315142135
0.72	19.0194118759401	-5.02655006518864	639.096050084636	-50.1319774353993	0.631982505324864	0.026838830893857	1.5239901785338	-1.35168720334518e-05	0.0104014879331622
0.73	19.0144763376912	-5.06859061799483	639.181522831429	-50.2614983913076	0.620110786751766	0.0342883979374818	1.53465455890825	-3.30684642958408e-05	0.0105919664339559
0.74	19.0110811292811	-5.10363932116455	639.244620569417	-50.396385997033	0.611615978987356	0.0408262797786709	1.54475756263336	-4.72984055792142e-05	0.0107935899133941
0.75	19.0091143997724	-5.13063708083987	639.284458641768	-50.5338158592421	0.605933889733688	0.0463493169829435	1.55410101349917	-5.70791539439122e-05	0.0110020256717411
0.76	19.0083333359944	-5.14870306945972	639.301860789382	-50.6711284821895	0.602456298744229	0.0507889385285278	1.56251138487188	-6.33579009378559e-05	0.0112129893554
0.77	19.0083804037936	-5.15717998063773	639.299200368	-50.8058799025932	0.600549674558753	0.0541127409000633	1.56984459738023	-6.71269907290389e-05	0.0114223453645794
0.78	19.0088057839515	-5.15567103153926	639.280151721979	-50.9358814150556	0.599574839618843	0.0563243191846329	1.57598952167337	-6.93924134026976e-05	0.0116262009968277
0.79	19.0090949365097	-5.14406646547584	639.249372631565	-51.0592283502109	0.598906810415397	0.0574613470389321	1.58087005123472	-7.1141660699115e-05	0.0118209916529522
0.8	19.0086999010564	-5.12255792797754	639.212142311719	-51.1743182352426	0.597953977497724	0.0575920065755943	1.58444567621722	-7.33123632477566e-05	0.012003554585292
0.81	19.0070726838333	-5.09163979729925	639.173981062977	-51.2798589575235	0.596175778334828	0.0568099678353755	1.58671055888951	-7.67631702376046e-05	0.0121711889345089
0.82	19.0036989170158	-5.05209729637533	639.140277335256	-51.3748677678914	0.593098058226548	0.0552282044285807	1.58769118256291	-8.22482756778495e-05	0.0123217001871261
0.83	18.9981299174811	-5.00498194912342	639.115945798941	-51.458662107215	0.58832541029695	0.0529720017892343	1.58744271631999	-9.03968388088377e-05	0.0124534276889271
0.84	18.9900113309723	-4.95157562456567	639.105136299034	-51.530843329187	0.581549930171992	0.0501715630453934	1.58604430439218	-0.000101698297758056	0.0125652544547128
0.85	18.9791067237341	-4.89334499835741	639.111008682425	-51.5912744366931	0.572556005321253	0.0469546418902282	1.58359354799752	-0.000116494251679964	0.0126565991973754
0.86	18.9653147696939	-4.83188872194997	639.13558289162	-51.6400529620806	0.56122097109014	0.0434396306840478	1.5802004948956	-0.000134977210883559	0.0127273912239608
0.87	18.9486790609091	-4.7688799032588	639.179667894429	-51.6774801155211	0.547511690889852	0.0397295055316684	1.5759814839482	-0.000157196115083303	0.0127780295718928
0.88	18.9293900185436	-4.70600665817178	639.242867435903	-51.7040273103877	0.531477341653886	0.035906979955023	1.57105320519299	-0.000183068127056553	0.0128093284404892
0.89	18.9077788712802	-4.64491348873936	639.323655668364	-51.7203011568601	0.513238892618809	0.0320311480329032	1.5655273279029	-0.000212395851724325	0.0128224515680232
0.9	18.8843041639675	-4.58714609049691	639.419511761903	-51.727007997774	0.492975942270359	0.0281358106191555	1.55950601872513	-0.000244888834229063	0.0128188386744945
0.91	18.859531725962	-4.53410190578901	639.527099836013	-51.7249190430902	0.470911713781522	0.0242295794237581	1.55307861980325	-0.000280187974219515	0.0128001274045793
0.92	18.8341094316091	-4.48698834686153	639.642479078663	-51.7148371366974	0.447297095326352	0.0202977488536087	1.54631968504127	-0.000317891369257715	0.0127680743437369
0.93	18.8087383939932	-4.4467901414305	639.761328710272	-51.6975661540819	0.422394643549548	0.016305820344287	1.53928848526473	-0.000357580072393268	0.0127244786342835
0.94	18.7841424233407	-4.41424673662367	639.879173380321	-51.6738839723298	0.396463444997877	0.0122044642485605	1.5320299952376	-0.000398842314735618	0.0126711114899857
0.95	18.761037637974	-4.38984016713912	639.991596443704	-51.6445198651646	0.369745653714325	0.00793561568302237	1.52457727354211	-0.000441294894495245	0.0126096545107233
0.96	18.7401040337345	-4.37379328083302	640.094431085691	-51.6101370466265	0.3424553988797	0.00343932804221436	1.51695504695212	-0.000484600656060511	0.0125416491558598
0.97	18.7219606039367	-4.36607774667447	640.183922154671	-51.571320911761	0.314770592578519	-0.00133904461450496	1.50918422085665	-0.000528481259686662	0.0124684590768238
0.98	18.7071452740142	-4.36643086786851	640.256854528499	-51.5285732998667	0.286827974974265	-0.00644179415055002	1.50128696278858	-0.00057272475591838	0.0123912462728014
0.99	18.6961005007894	-4.37437990264614	640.310646619294	-51.4823128395345	0.258721524597568	-0.011892395217972	1.49329195259182	-0.000617187809778807	0.0123109612593088
1	18.6891649210957	-4.38927236592501	640.343409997839	-51.43288113506	0.230504148251157	-0.0176900706805588	1.48523936445492	-0.000661792748914506	0.0122283466709227
1.01	18.6865709581421	-4.41031064944576	640.353977941337	-51.3805542369027	0.202192361572866	-0.0238057748436514	1.47718514576037	-0.000706519918911136	0.0121439529998797
1.02	18.6884478472559	-4.43658925274417	640.341906897876	-51.3255585256744	0.173773490268722	-0.030179910599064	1.46920418666179	-0.000751396100920468	0.0120581645426915
1.03	18.694829163185	-4.46713295392463	640.307455410855	-51.2680898537838	0.145214774625334	-0.0367220026322579	1.46139203200748	-0.000796479966707985	0.0119712331238006
1.04	18.7056636501172	-4.50093435523724	640.25154501684	-51.2083345562995	0.116473655068173	-0.0433124386411998	1.45386487142477	-0.000841845702227419	0.0118833168179742
1.05	18.7208279945068	-4.53698939916347	640.175707135748	-51.1464907859261	0.0875084603107013	-0.0498062697570748	1.44675765008505	-0.000887566014399898	0.0117945207216296
1.06	18.7401401496385	-4.57432965069417	640.082019166755	-51.0827885649229	0.0582887148317326	-0.0560389365181945	1.44022026628857	-0.000933695742653709	0.0117049368365472
1.07	18.7633719172084	-4.61205036635758	639.973032060405	-51.0175069912486	0.0288043283837638	-0.0618336647779153	1.43441195553313	-0.000980257227299967	0.0116146803242223
1.08	18.7902597008233	-4.64933360821188	639.851690730195	-50.9509871907463	-0.00092697701579425	-0.0670101638743069	1.42949409603084	-0.00102722844606932	0.0115239197499198
1.09	18.8205126449256	-4.68546590224335	639.721247948643	-50.8836398660971	-0.0308545146539068	-0.0713941640478264	1.42562179884827	-0.00107453472776494	0.0114328994354199
1.1	18.8538177285859	-4.71985017902615	639.585171960156	-50.8159466418827	-0.0608921045810504	-0.0748272576733909	1.42293475784751	-0.0011220446016545	0.0113419526422554
1.11	18.8898417612694	-4.75201196583236	639.447048003088	-50.7484548208173	-0.090918336729974	-0.0771764647010059	1.42154792158615	-0.00116957005969334	0.0112515049703484
1.12	18.9282305911576	-4.78160002038434	639.310474277404	-50.6817656205302	-0.120779605419006	-0.0783429309306894	1.42154260342829	-0.0012168712146285	0.011162068034957
1.13	18.9686061531887	-4.80838180374686	639.178953576435	-50.6165164212278	-0.150295712896057	-0.0782691910772219	1.42295866108405	-0.00126366504974821	0.0110742241332833
1.14	19.0105622271005	-4.83223437910388	639.055782724856	-50.5533579893924	-0.179267675171651	-0.0769444879326194	1.42578834868937	-0.00130963769397548	0.0109886031907937
1.15	19.053659927148	-4.85313148860815	638.943942995185	-50.4929280204568	-0.207487226755532	-0.0744077331575078	1.42997237230457	-0.00135445943554126	0.0109058537530862
1.16	19.0974239957985	-4.87112769516237	638.845995654887	-50.4358226372687	-0.234747419942121	-0.0707478208431949	1.43539856558738	-0.00139780152182562	0.0108266101374976
1.17	19.1413409237467	-4.88634057235538	638.763987566826	-50.3825676701094	-0.260853654196087	-0.0661011560361654	1.4419034520694	-0.00143935369135071	0.0107514580644923
1.18	19.1848597763046	-4.89893197675612	638.699372186113	-50.3335916141481	-0.285634454255469	-0.060646428560916	1.44927678288064	-0.0014788413510565	0.0106809011464379
