Time [s]	GRFml [N]	GRFap [N]	GRFv [N]	Mml [N.m]	Map [N.m]	Mv [N.m]	Mfree [N.m]	COPml [m]	COPap [m]
0.01	18.129887461215	-4.20415163495105	572.043721587338	-6.41000292526237	-11.0333493453451	4.48328024877919	-4.76744188018245	0.00102138667247431	-0.00139705348154556
0.02	17.9396858229393	-4.09458264028466	570.04003985345	-6.37069577208688	-10.9274809874049	4.45854219107747	-4.73749623798894	0.00105012363298229	-0.00127699449347013
0.03	17.7409676165883	-3.97024974649654	568.209870244698	-6.32921838191997	-10.8270469394065	4.43238362760405	-4.70567032181627	0.00108618892773082	-0.00116074583061282
0.04	17.5269530520438	-3.81857956011667	566.698569932753	-6.28414631568669	-10.7366024632595	4.40388555829039	-4.67066920433034	0.00113503996026953	-0.00105154075726005
0.05	17.3011979439031	-3.63768510047664	565.619917117116	-6.23457128560737	-10.6616297714541	4.37386658973348	-4.63327428269636	0.00120052502794588	-0.000955284445986693
0.06	17.0799072637058	-3.43825444698453	565.046008424183	-6.18013346116107	-10.6085286430101	4.34508466548145	-4.5966090458727	0.00128460792136842	-0.000880852388778608
0.07	16.8903708268244	-3.24187011876861	565.000851112494	-6.12100748917733	-10.583895408026	4.32175882013268	-4.5656117246393	0.00138727490431578	-0.00083901370596251
0.08	16.7656684106041	-3.07644649381821	565.458981145271	-6.05788156585015	-10.5932571292219	4.3085584010774	-4.54587847531758	0.00150657949570543	-0.000840238709708396
0.09	16.7367291499533	-2.97014689853233	566.349690720046	-5.99194578964999	-10.6396085928199	4.30935688116074	-4.54221287731408	0.00163880011131534	-0.00089199242880672
0.1	16.823622162386	-2.94533831632903	567.566354362523	-5.92487616043671	-10.7221749200266	4.32610222679292	-4.55728365630626	0.00177871216130465	-0.000996278870679823
0.11	17.0284023607623	-3.01389992488632	568.979329936031	-5.85878064448489	-10.8357783530443	4.35811130362166	-4.59074745143267	0.0019199894853541	-0.00114814773222105
0.12	17.3317154699772	-3.17468429128171	570.450321400877	-5.79607034562912	-10.9710402481406	4.4019713029188	-4.63905755019044	0.00205574550616716	-0.00133562670206
0.13	17.6945632388392	-3.4133489627979	571.846089957939	-5.73923178541505	-11.115442626297	4.45206479898753	-4.69599390194346	0.00217920588158493	-0.00154117429114597
0.14	18.0652571951465	-3.70431044409486	573.049924941089	-5.69050268070198	-11.2550665874926	4.50157492055019	-4.7537670659777	0.0022844749900256	-0.00174436835772795
0.15	18.390021512877	-4.01430675274292	573.970073223747	-5.65148786067752	-11.376671765986	4.54371789054606	-4.80441901089204	0.00236732150948826	-0.00192525834739637
0.16	18.6244773094046	-4.3069667642529	574.545044846783	-5.62278431980461	-11.4697151779681	4.57291882835285	-4.84119857240943	0.00242587229851321	-0.00206768175679461
0.17	18.7428407552106	-4.54778668355818	574.746124156943	-5.60370257370022	-11.5279351648074	4.58569363937087	-4.85963227059581	0.00246108360212882	-0.00216189123825422
0.18	18.7423150961174	-4.70891994023652	574.577471530394	-5.59216645361088	-11.550228886911	4.58109998233353	-4.85811741059105	0.00247686789253343	-0.0022060239690519
0.19	18.6416717562075	-4.77316536769759	574.07402896558	-5.58484506111393	-11.5406984082934	4.56073440605524	-4.83799235069002	0.00247979637594076	-0.00220620706024627
0.2	18.4748595934372	-4.73652836898576	573.297253278847	-5.57752760644738	-11.5078958085191	4.52834384103623	-4.80314727721843	0.0024783616379086	-0.00217536376165234
0.21	18.2819691109117	-4.60881372782674	572.32867689895	-5.56570599592735	-11.463431338495	4.48916750019723	-4.75930264260875	0.00248185754806729	-0.00213100839677943
0.22	18.1004665596063	-4.4119624757642	571.261522551003	-5.54528891694811	-11.4201991359953	4.44913185231172	-4.71309966613791	0.0024990050026511	-0.00209245795375856
0.23	17.9591270774811	-4.17628210101407	570.191031249878	-5.51333678323056	-11.3905127041428	4.41400515165925	-4.67113472946368	0.00253651924378839	-0.00207793365013481
0.24	17.8757931207701	-3.93525460282365	569.204644028632	-5.4686813043575	-11.3844282942173	4.38860093467786	-4.63904968134059	0.00259787051377192	-0.00210198573140091
0.25	17.8585276566449	-3.72006339541573	568.373482666179	-5.41228592520601	-11.4084776568279	4.37611416351721	-4.62077745882033	0.00268251283079379	-0.00217357186595807
0.26	17.9085469850831	-3.55514747188861	567.746502194833	-5.34723010805815	-11.4649468524559	4.37767578491312	-4.6180361049185	0.00278581185175542	-0.00229498280470886
0.27	18.0229433054606	-3.45582555663743	567.348163044582	-5.27827287397973	-11.5517430015205	4.39220594446786	-4.63015086223454	0.00289976913613488	-0.0024616687166456
0.28	18.1957311916127	-3.42835456929447	567.179614271583	-5.21106055775429	-11.6628050082734	4.41661672050743	-4.65424870282904	0.00301443324235717	-0.00266290190338903
0.29	18.4168977734081	-3.47191837876047	567.222493407336	-5.15115595665841	-11.78895251802	4.4463568025944	-4.68580817529064	0.00311967392434676	-0.0028831315263213
0.3	18.6703804572973	-3.58134509094933	567.443898433344	-5.10313312010321	-11.9190355004466	4.47621446611751	-4.71947196232971	0.00320686556231886	-0.00310384245896417
0.31	18.9326789904676	-3.74916171142773	567.80112356755	-5.06996814838476	-12.0412396001439	4.50122577282297	-4.74996439334803	0.00327004822577115	-0.00330570838590039
0.32	19.1737605326136	-3.96604497089803	568.245361237827	-5.05286030412599	-12.14440739776	4.51749853925824	-4.77292638538176	0.00330631241542312	-0.00347081086829332
0.33	19.3610176763815	-4.21964045343587	568.724460140771	-5.05147662998286	-12.2192417848096	4.52277610653627	-4.7854997805932	0.00331541675734459	-0.00358467438491383
0.34	19.4656503687684	-4.49267482608303	569.185540233974	-5.06448446446129	-12.2592622722442	4.51662873796662	-4.78655869361864	0.00329888818211099	-0.00363785424744312
0.35	19.469571783697	-4.76180988946893	569.578419849575	-5.09016808556398	-12.2613967109865	4.50025840864848	-4.77657903382387	0.00325897946199194	-0.00362683637592243
0.36	19.3703849048347	-4.99851065549543	569.860307984813	-5.12693529124763	-12.2261242147244	4.47600698382816	-4.75723204300488	0.00319783673513174	-0.0035540914279707
0.37	19.1824520330602	-5.17238810958672	570.001303313908	-5.17359024591979	-12.1571501844667	4.44673630273801	-4.73085568444926	0.00311709251115699	-0.00342727685449623
0.38	18.9334398194388	-5.25639959718552	569.989398716281	-5.22934463538136	-12.0606855826009	4.41527444555309	-4.69997733899991	0.00301791773950422	-0.00325777061006133
0.39	18.6574124962782	-5.23243424543264	569.833382158315	-5.29362521504011	-11.9444940095729	4.38408319025474	-4.66702385366807	0.0029014086786826	-0.00305888763693013
0.4	18.3868436604922	-5.09555305020952	569.562460664534	-5.3657903150934	-11.816923508733	4.35520734095224	-4.63427034378333	0.00276909287237992	-0.00284420237037791
0.41	18.1462633170359	-4.85559000627589	569.222446877337	-5.44488267298126	-11.6861241795017	4.33044977257964	-4.60397575053693	0.00262332579790825	-0.00262633119591249
0.42	17.9495089338905	-4.53573965851997	568.869464989325	-5.52952216010956	-11.5595633575002	4.31162186134068	-4.57857013146644	0.00246740690356306	-0.00241632938374237
0.43	17.8010358663251	-4.16874559237946	568.562809673436	-5.61798711858071	-11.4438178956186	4.3006872346258	-4.56073067328929	0.00230534916052649	-0.00222360117077497
0.44	17.7001081727182	-3.79194471355636	568.358493659743	-5.70846217568359	-11.344503026529	4.29966352342447	-4.55322485707536	0.00214135827299156	-0.00205601699939961
0.45	17.6456104042586	-3.44247737254145	568.304212751076	-5.79936648394861	-11.2661445381471	4.31025503992418	-4.55849589308601	0.00197917721900809	-0.00191987115495446
0.46	17.6391188292961	-3.15349166260086	568.435397588826	-5.88964463632582	-11.2118444691871	4.33331447439786	-4.57807913211771	0.00182149201173076	-0.00181942920621625
0.47	17.6847612178453	-2.95145244235006	568.771336010831	-5.97891892247533	-11.1827180263925	4.36832072546431	-4.61202237988294	0.00166955807205604	-0.00175606355124558
0.48	17.7858942354731	-2.8541139484586	569.31050853313	-6.06746126085297	-11.1772408613864	4.41307514818179	-4.65850418567733	0.00152310975052605	-0.00172725303289289
0.49	17.9401175296111	-2.86862947247306	570.025324907242	-6.15601871456791	-11.1907727258707	4.46375439070295	-4.71379549501824	0.00138050656293043	-0.00172590845064741
0.5	18.1350111591347	-2.98969124795062	570.857921360428	-6.24558027968418	-11.2155560062912	4.51534276130417	-4.77261287070614	0.00123900575706692	-0.00174049198618331
0.51	18.3468577940116	-3.19826246843239	571.719786706826	-6.33717734232932	-11.2413988614525	4.56234804266419	-4.82880333286412	0.00109506444429197	-0.00175620572675028
0.52	18.5435154541012	-3.46195182960395	572.497976894527	-6.43176560602949	-11.2570616363351	4.59962640594866	-4.87621821819703	0.00094465120144871	-0.00175719143185071
0.53	18.6909627824769	-3.73801432934624	573.069228594082	-6.5301703764283	-11.2521327774143	4.62312827749862	-4.90959828514315	0.000783630982876149	-0.00172932711518253
0.54	18.7615145245566	-3.97923949103043	573.320728615613	-6.63303035388652	-11.2189886040954	4.6304237861375	-4.92530741802956	0.000608313745918743	-0.00166295684998169
0.55	18.740938608586	-4.14186850414706	573.1735511187	-6.7406770550598	-11.1543522401698	4.62094770038421	-4.92180462290319	0.000416193077925509	-0.00155484312732612
0.56	18.6320257590961	-4.19367545790808	572.602960637048	-6.85293856690863	-11.0600349393365	4.59598432849614	-4.89981171803126	0.000206768288057546	-0.00140880796330617
0.57	18.4534324016445	-4.11996384363823	571.649738515257	-6.96892808642944	-10.9426407238666	4.55846294754778	-4.8621945340511	-1.7787725072882e-05	-0.00123487210491008
0.58	18.2343007769786	-3.92571343885788	570.418616358263	-7.08692542673889	-10.8122813826901	4.512640858482	-4.81361242462372	-0.000252398711523938	-0.00104709886672982
0.59	18.0065701039	-3.63331685576969	569.063244732657	-7.20444975721965	-10.6806017487945	4.46372183771948	-4.76000026332018	-0.000489489568972323	-0.000860677336810667
0.6	17.7975035911677	-3.27679165409711	567.760803633133	-7.31855265877237	-10.5585813212115	4.41741646509464	-4.70793756806464	-0.000720019200289412	-0.000688947660636596
0.61	17.6246144711759	-2.89445234175964	566.682147779759	-7.42626683929314	-10.454614299079	4.37942573096706	-4.66394741607221	-0.000934907268995588	-0.000541043785954598
0.62	17.4941193050204	-2.52233533850758	565.96434921391	-7.52508107569258	-10.3732718264203	4.35483887354585	-4.63376819765919	-0.00112648082244138	-0.000420629012471196
0.63	17.4027567834725	-2.1900850294724	565.691364032492	-7.61331663898952	-10.3149502332877	4.34747973255392	-4.62165831563978	-0.00128959534475426	-0.000325891840444736
0.64	17.3417737959776	-1.91980231280866	565.885778604965	-7.6903545302978	-10.2763662729145	4.35929284552546	-4.62981841471935	-0.00142227229846614	-0.000250640166706617
0.65	17.3014087709626	-1.72705530388511	566.511250452866	-7.7567605799292	-10.2516456290763	4.38990109046616	-4.65802963127177	-0.00152593791169653	-0.000186068870324407
0.66	17.2743493865438	-1.62241286826922	567.482610546586	-7.81440911460636	-10.233628743499	4.43646567536857	-4.7035931445931	-0.00160549824737144	-0.000122650795523982
0.67	17.2572397162934	-1.61184191723161	568.679577089998	-7.86666701282345	-10.2150257952495	4.49392869266661	-4.7616108768497	-0.00166943657510388	-5.16496358720087e-05
0.68	17.2500786201316	-1.69511535294255	569.960853078446	-7.91857454119592	-10.189184300986	4.55563200302456	-4.82558014939511	-0.00172987675935721	3.40418004416421e-05
0.69	17.2540162050515	-1.86265746206253	571.177401148233	-7.97681421737781	-10.1504352914597	4.61421368531802	-4.88820886466227	-0.00180225412637758	0.000139745372576994
0.7	17.2684537674355	-2.09243466195258	572.185693336942	-8.04919163459508	-10.0941743751633	4.66261761291801	-4.94231627910899	-0.0019040745236657	0.000269264795681456
0.71	17.2884567319388	-2.34902269261804	572.862502735517	-8.14343782137959	-10.0169325989294	4.69503472727371	-4.98168173254158	-0.00205238476293101	0.000425176047061548
0.72	17.3033691305597	-2.58654275036737	573.121750052436	-8.26538636764457	-9.91665748517131	4.70762804140599	-5.00173716081054	-0.00226004551772141	0.000608777597040089
0.73	17.2972570985248	-2.75585550167229	572.931451281485	-8.41690017557429	-9.79327284594246	4.69895917718761	-5.00005056904291	-0.00253153749274959	0.000819535869454435
0.74	17.251441491107	-2.81471063540059	572.326227204666	-8.59418374060241	-9.64938394064357	4.67010334718112	-4.97659167764118	-0.00285956383743646	0.00105414249295155
0.75	17.1488909750682	-2.7381430102547	571.409714658573	-8.7871776575679	-9.4908322227392	4.62448628901008	-4.93378831965447	-0.00322384767989714	0.00130555187653381
0.76	16.979648247302	-2.52587997059748	570.342632751932	-8.98051641556475	-9.32675690278767	4.56749044487922	-4.87637040914448	-0.00359310075267238	0.00156248884752519
0.77	16.7458787996998	-2.20415252947384	569.316147369992	-9.15607147137045	-9.16891909979129	4.50586836379703	-4.8109749610009	-0.0039302179070021	0.0018098516629575
0.78	16.4648146387846	-1.82092141929715	568.515256143452	-9.29654583593712	-9.03026092335014	4.44699204267716	-4.74547995108237	-0.0041996276313776	0.00203019691023754
0.79	16.1680838520551	-1.43558671206887	568.081151226402	-9.38914773831961	-8.92293162479607	4.39797942045678	-4.68807046252711	-0.0043748338306927	0.0022061530831729
0.8	15.8967844461015	-1.10601179341041	568.083005843757	-9.42824335517326	-8.8562224014982	4.36477890116759	-4.64611878336584	-0.00444391405243627	0.00232327973353041
0.81	15.693005341796	-0.87651836703488	568.507465193085	-9.4161552137196	-8.83493285089397	4.35134306611598	-4.62505370813257	-0.00441126607470199	0.00237268073407404
0.82	15.5898705521225	-0.770103591657127	569.268845978157	-9.36185695322497	-8.8586112474339	4.35905274997801	-4.62745800435201	-0.0042950684528833	0.00235266987778215
0.83	15.6030253174764	-0.786663394014374	570.236482481319	-9.27800376105126	-8.92188813802474	4.38653427872808	-4.65262596126538	-0.00412131606151245	0.00226899130675612
0.84	15.7263710254239	-0.907043796687291	571.270184102881	-9.17727046910179	-9.01582539554025	4.42993761526013	-4.69672121020111	-0.00391638419657359	0.00213346589157665
0.85	15.93370641653	-1.10101068483586	572.25239799401	-9.06914957064667	-9.12992221598814	4.48363026319046	-4.75352174411231	-0.00370046297139204	0.00196136395178509
0.86	16.1860746763084	-1.33631346751448	573.107265149141	-8.95813813041002	-9.25424211590573	4.54115028306544	-4.81557653599127	-0.00348377333473171	0.00176816687572223
0.87	16.4426872560121	-1.58614005177105	573.801731196501	-8.84372325057003	-9.38110586733396	4.59619401521316	-4.87548559065	-0.00326643185764997	0.00156656141769024
0.88	16.6720074036257	-1.83322475063081	574.330423166169	-8.72197066947662	-9.50594108141675	4.64341660862653	-4.92699373640473	-0.00304159175910634	0.00136444722945106
0.89	16.859439708292	-2.07020247665435	574.691790328621	-8.58804888213134	-9.62714491123885	4.67889572974503	-4.96566466019508	-0.00280049977833052	0.0011644413959811
0.9	17.0091861677992	-2.29698228581392	574.865997582152	-8.4388228521899	-9.74511843567782	4.70022424310504	-4.9890466970719	-0.002537674516085	0.000964920313751394
0.91	17.1398253208268	-2.51658828671312	574.804239791448	-8.27474890223167	-9.8608734631926	4.70631480685675	-4.99640375802409	-0.00225459732939348	0.000762187118895974
0.92	17.2753339713537	-2.7309976997217	574.434852240851	-8.10061196549664	-9.97471782615002	4.69707796023699	-4.9882083409526	-0.00196095605255797	0.000553035649039912
0.93	17.4348068370229	-2.9381360383394	573.685364406212	-7.9250304608627	-10.0854625706958	4.67315037005799	-4.96563957414294	-0.00167331348585675	0.000336899324596018
0.94	17.6244735903893	-3.13062191561442	572.513663396048	-7.758982191291	-10.1903892099748	4.63579925851673	-4.93028666974296	-0.0014118020410786	0.000116946772827753
0.95	17.8346549201007	-3.29632501716677	570.937764879007	-7.61379715322697	-10.2859401075688	4.58703273187755	-4.88414630997699	-0.0011958809447602	-0.000100147605043899
0.96	18.0424269706595	-3.42044110113919	569.053580161441	-7.49910428086441	-10.3688445603054	4.52983852767828	-4.82986308492432	-0.00104027396405015	-0.000305595443897244
0.97	18.2187040229904	-3.48860224321085	567.033534589651	-7.42114305997506	-10.437251278454	4.46839349246554	-4.77104474451025	-0.000951992736854868	-0.000490527625905013
0.98	18.3369781111083	-3.49045019208147	565.104728250506	-7.38171327934162	-10.4914503705083	4.40806207556735	-4.71242993834695	-0.000928970063346468	-0.000647982040929029
0.99	18.3805930571081	-3.42302227138338	563.511537259144	-7.37788707860705	-10.533926986697	4.35504582379853	-4.65971527064708	-0.000960414961511336	-0.000774235306039983
1	18.3462536690828	-3.29321695359911	562.47205801504	-7.40247630132843	-10.568736047827	4.31564748300424	-4.61895373148185	-0.00102865849540601	-0.000869151531235846
1.01	18.2430929633174	-3.11859438251011	562.139194187783	-7.44514310092862	-10.6004334333767	4.29524412610075	-4.59558596150004	-0.00111203501528212	-0.000935602958195114
1.02	18.0883602979899	-2.92594473490238	562.575236384608	-7.49395955702936	-10.6329540693525	4.2971837949682	-4.59331204731117	-0.00118823922428923	-0.000978350552092999
1.03	17.9019514445613	-2.74749654719405	563.744435410465	-7.53716057288612	-10.6688346855346	4.32188924295471	-4.61310543442447	-0.0012375911934569	-0.00100292874095181
1.04	17.7021407864795	-2.61528180163651	565.52300964239	-7.56479988109182	-10.7090367424654	4.36644172285536	-4.65267558771041	-0.00124570194710216	-0.00101499936210364
1.05	17.5039979569695	-2.55482557983198	567.721969241621	-7.57002543938333	-10.7533885425598	4.42482021149211	-4.70659100435425	-0.00120514563756757	-0.00102036485499513
1.06	17.3205132767201	-2.5797163363003	570.116175213949	-7.54975106733966	-10.8014272590392	4.48880722688429	-4.7671002255877	-0.0011159063625763	-0.00102548306145489
1.07	17.1650980146954	-2.68852862030193	572.473336847035	-7.50461764761655	-10.8532750338787	4.54938722370233	-4.82548673432064	-0.00098457438842614	-0.00103806113180149
1.08	17.0534844699777	-2.86498019155126	574.578526439122	-7.43829206521757	-10.9101852963225	4.59831687009628	-4.87363106004758	-0.00082249894567854	-0.0010672434197318
1.09	17.0034012936232	-3.08129114008852	576.252205160844	-7.35630811658944	-10.9745425781919	4.62949113609606	-4.90538929543028	-0.000643319935398012	-0.00112307682544244
1.1	17.0315502657983	-3.30380355933142	577.361767878979	-7.26476327507944	-11.0493284149084	4.63978951274441	-4.91745851407999	-0.00046043762797976	-0.00121526059582311
1.11	17.1488075869623	-3.49935427119427	577.827734502514	-7.16920724048071	-11.1372813112152	4.62924568456824	-4.90956684521642	-0.000284980037176474	-0.00135151876155837
1.12	17.3555681000076	-3.64086731690569	577.625949657385	-7.07397650533886	-11.2400917280702	4.60058611710608	-4.88403813466076	-0.000124668129515948	-0.00153612152837906
1.13	17.6393013025015	-3.71111662279797	576.786821840883	-6.98206496961345	-11.3579398966101	4.5583552480964	-4.84495909252519	1.63069526120108e-05	-0.00176904246438764
1.14	17.9756351484878	-3.70435710709956	575.392097913136	-6.89543050486402	-11.4895230458551	4.50792678095531	-4.7972563152357	0.000136600594691783	-0.00204599017971679
1.15	18.3329500089651	-3.62618699839266	573.569155773889	-6.81549379434168	-11.6324995596042	4.45466968281139	-4.74594932251034	0.000236665154968785	-0.0023592075937075
1.16	18.6790961007122	-3.49230025217252	571.482406929386	-6.74354625856795	-11.784093236193	4.40341840066341	-4.69571215018542	0.00031782640136313	-0.00269864106878931
1.17	18.9879871664405	-3.32663460851778	569.321222474714	-6.68086304048839	-11.9415297903725	4.35824776398908	-4.65071475179404	0.000381828851253152	-0.00305297332997734
1.18	19.2438131111624	-3.15898524448872	567.283991943131	-6.62847756449259	-12.1020548337933	4.3224380917602	-4.61459731627291	0.000430912330596667	-0.00341013891734582
