Time [s]	GRFml [N]	GRFap [N]	GRFv [N]	Mml [N.m]	Map [N.m]	Mv [N.m]	Mfree [N.m]	COPml [m]	COPap [m]
0.01	-3.58929885075899	0.908075793974973	932.778011262588	8.06837568833266	-6.80669308589276	1.42112594227637	-1.44547433822843	0.00191988846990077	-0.0110607675518337
0.02	-3.81625663148079	0.838096706146521	935.6571430795	8.16371648234936	-6.79183431637013	1.37676285423612	-1.40399421889552	0.00199236116534551	-0.01102328339199
0.03	-4.0788779308129	0.784160739719887	938.515350320755	8.25595392878482	-6.77442109097782	1.33708523204215	-1.36739951740609	0.00206166389015205	-0.0109830922271418
0.04	-4.39408957844484	0.75935487048006	941.356364654155	8.34166005151918	-6.75573057561269	1.30616195690843	-1.33980076478457	0.00212403199010758	-0.010941320381877
0.05	-4.74632201676847	0.771217380330694	944.164725339284	8.41840502071727	-6.74276288331733	1.28684427751269	-1.32383215350257	0.00217695108165605	-0.010905318020033
0.06	-5.08716274596476	0.820352495904535	946.893094535006	8.48533793026751	-6.74738435027508	1.28050638524242	-1.32040321587891	0.00221990665229288	-0.0108878809155522
0.07	-5.34804554792154	0.900494712564262	949.453910157378	8.5434905256459	-6.78277934944719	1.28701874829998	-1.32879393352165	0.00225480174413151	-0.0109035973071965
0.08	-5.46155907973187	1.00003459121956	951.718447969276	8.59562188617108	-6.85854852868833	1.30487908735044	-1.34697536555043	0.00228581634892955	-0.0109637002452872
0.09	-5.3839409453692	1.10467787898564	953.52692495264	8.64559005783692	-6.9764032669885	1.33141136566781	-1.37199785149621	0.00231865301122602	-0.0110714460003056
0.1	-5.11098170323185	1.20062486878287	954.711858306378	8.69745170302808	-7.12824959026744	1.36298572989758	-1.40033103369063	0.00235935456220915	-0.0112198868905785
0.11	-4.68188790502597	1.27751273474599	955.13312917777	8.75462857770599	-7.29761467145967	1.3952806250777	-1.42813205956746	0.00241306413941644	-0.0113930549118884
0.12	-4.16976956142805	1.3304113445951	954.718191667188	8.81946233203369	-7.46416888156218	1.42365302295638	-1.45150226631449	0.00248313176500348	-0.0115703527713322
0.13	-3.66189631145514	1.36039663280452	953.496681657687	8.89331294388125	-7.6099670170035	1.44366811972854	-1.46681913799555	0.0025708416703577	-0.011732797917955
0.14	-3.23619381268114	1.3735816386514	951.617410942315	8.97712007906399	-7.72536292845247	1.45176663059143	-1.47118605200914	0.00267580214158447	-0.0118690743656545
0.15	-2.94152708964218	1.37886613435853	949.338578852717	9.07214782888327	-7.81256862497867	1.44595329584007	-1.46295477650981	0.00279680443282959	-0.0119793430941091
0.16	-2.78782208791032	1.38497263026308	946.988723970837	9.18055432766287	-7.88553263250283	1.4263268619037	-1.44219477361584	0.00293280742708624	-0.0120754456152336
0.17	-2.74857854493046	1.39749856210749	944.904692562349	9.30549275709491	-7.96598376097776	1.39527717763819	-1.41095249879485	0.00308368201627096	-0.0121772899816733
0.18	-2.77407994147963	1.41670523919852	943.360943992856	9.45062166218811	-8.07675406027804	1.35725159037581	-1.3731778734049	0.00325044182804657	-0.0123064669584243
0.19	-2.81010447001332	1.43660274468133	942.508985704538	9.61910715600892	-8.23444565239851	1.31810846494825	-1.33427667051088	0.00343484843750097	-0.0124790981162892
0.2	-2.8153908343535	1.4456264911388	942.344695709325	9.81236619401438	-8.44381260265388	1.28418292728756	-1.30034138263069	0.00363845748829905	-0.0127002423682098
0.21	-2.77200576948857	1.42889200429374	942.714512463315	10.028887102407	-8.69575824243985	1.26125110488831	-1.27718666419045	0.00386132983359344	-0.0129617488519234
0.22	-2.68570268667218	1.37170118271304	943.360655096853	10.2634649775404	-8.96971996164299	1.25358289707729	-1.26935353932865	0.00410074804844474	-0.013244355399265
0.23	-2.5772224125396	1.26367927645954	943.993895986157	10.5071214634442	-9.23977776438859	1.26323514562618	-1.27925293967199	0.00435033751102409	-0.0135234334440296
0.24	-2.468817642645	1.10267329306996	944.373664630148	10.7478595127247	-9.48255640207181	1.28968501008421	-1.30660591473443	0.0045999708734914	-0.0137765377430575
0.25	-2.37185290388062	0.897397063580016	944.372398276597	10.9722450748872	-9.68433639175947	1.32985841685581	-1.3483115994122	0.00483671009849052	-0.0139902669973995
0.26	-2.28059650310446	0.667860830668496	944.005260924346	11.16761759103	-9.84499501469405	1.37857187515829	-1.3988282592678	0.00504680146602998	-0.014164124640081
0.27	-2.17462575634865	0.442967325939868	943.416555757652	11.3245315872319	-9.97741953358619	1.42936135389525	-1.4510733798421	0.00521841623471075	-0.0143100466768006
0.28	-2.02870658010696	0.255310218867202	942.827297012039	11.4388718477192	-10.1025378115529	1.47560195409196	-1.49773043628841	0.00534450725932389	-0.0144477125345618
0.29	-1.82598650669311	0.134054843353922	942.460377623682	11.5130373502136	-10.241585733299	1.51172942972131	-1.53271282162147	0.00542495482321581	-0.0145971798669047
0.3	-1.56901040789088	0.097557082471156	942.466716054418	11.5557215869072	-10.4081681167404	1.53429194544432	-1.55242877735536	0.00546722314419434	-0.0147712925093071
0.31	-1.28389520860504	0.147771663479182	942.875356957524	11.5801465811985	-10.6027454591409	1.54253965547956	-1.55647629793397	0.00548509395268926	-0.0149703887177906
0.32	-1.01561036665072	0.268285512550132	943.582750899411	11.6010686363286	-10.8113676685788	1.53834240680538	-1.54751408187224	0.0054956198988465	-0.0151810614048282
0.33	-0.815678666389305	0.426957028687355	944.383802330983	11.6313184847977	-11.0090599110235	1.52541197035959	-1.53029174767609	0.0055150655901226	-0.0153793661237756
0.34	-0.72647332576647	0.582861544694546	945.033909506317	11.6788875012661	-11.1667324135186	1.50803936632168	-1.51010661204252	0.00555503663829571	-0.0155374046185652
0.35	-0.767611151953569	0.695928739150152	945.321599291417	11.7454906535726	-11.2593557395762	1.48974675237643	-1.49117462780965	0.00562003702815328	-0.0156311293817982
0.36	-0.929281819256517	0.73674360040998	945.12869883128	11.8271073787004	-11.2727883028734	1.47230785804917	-1.47545954885342	0.00570727897022638	-0.0156468727415229
0.37	-1.17497832169185	0.693792614613528	944.460063542945	11.9163475411064	-11.2071646963318	1.45547221972834	-1.462357384803	0.00580881534395827	-0.0155845984261928
0.38	-1.45286242932875	0.576070003469783	943.435738045004	12.0058419025059	-11.0759535427191	1.43747254817756	-1.44932825444567	0.00591524041816427	-0.0154570164396425
0.39	-1.71204257588659	0.410248837379349	942.251093759638	12.0914648110227	-10.9012490722832	1.41610073309443	-1.43322053763708	0.006019625030944	-0.0152850923785001
0.4	-1.91836480523323	0.233183932554899	941.120466635025	12.1742258157022	-10.7070717970052	1.38992583874779	-1.41178008081968	0.00612025171770603	-0.0150916447960568
0.41	-2.06446299730119	0.0818651211686776	940.223753152183	12.2601235463826	-10.5130150944819	1.35918364325973	-1.38477994440394	0.00622114638990157	-0.0148952703314648
0.42	-2.17070328027128	-0.0163413703769366	939.672299132684	12.3579806208061	-10.3303125469565	1.32600765391317	-1.35436389970691	0.00633021284103952	-0.0147065950233619
0.43	-2.2766460063125	-0.0504589463827838	939.501845298411	12.4760087590692	-10.1614308037568	1.29393543025586	-1.32450310278666	0.00645566472759629	-0.0145279250489074
0.44	-2.42576221723286	-0.0278996971636867	939.689791977571	12.6183216334691	-10.0029760448932	1.26690176494495	-1.29979650416983	0.00660208685387509	-0.0143561023901886
0.45	-2.64838668301306	0.0286573689000454	940.185622383489	12.7826488129997	-9.85051674843144	1.24811035169847	-1.28407270521381	0.00676760833150403	-0.014187219025507
0.46	-2.94854923566145	0.0883991312924516	940.939951575874	12.9600947129701	-9.70329402111495	1.23919126418342	-1.2792919535023	0.00694327975416864	-0.0140212188354408
0.47	-3.29916736979038	0.121342417715193	941.920217529803	13.1370792870226	-9.56692791655815	1.23990716275845	-1.28509756535678	0.00711495882649182	-0.0138645353479905
0.48	-3.64743727034433	0.106563135573673	943.108056052016	13.2988459196978	-9.45306325384373	1.24843748941959	-1.29909851757853	0.00726711269764657	-0.0137297165120392
0.49	-3.92894921766161	0.0374875742076142	944.481824294691	13.4333942045196	-9.37610394941513	1.26205116528636	-1.31769460872722	0.00738726758406261	-0.0136321632648903
0.5	-4.08615656569688	-0.0770022256601523	945.994131008819	13.5345747935758	-9.34830165972184	1.27786470818553	-1.3370902245212	0.0074696205803455	-0.0135852107994825
0.51	-4.08533482741821	-0.215665825134254	947.5561791708	13.6034027042507	-9.37507700822536	1.29341084815064	-1.35413684961231	0.00751664354139092	-0.0135953996783091
0.52	-3.92662119202734	-0.351078971595989	949.037713433606	13.6472754656832	-9.45234433523866	1.30688203742401	-1.36677919209498	0.00753822474897581	-0.0136596984218301
0.53	-3.6439971886879	-0.45701400766445	950.284857924985	13.6774859400682	-9.56684484672175	1.31708501903406	-1.37407757640079	0.0075487371358548	-0.0137656999473579
0.54	-3.29539065702654	-0.514975131324172	951.150867997379	13.7059441582482	-9.69937479405978	1.3232616434528	-1.37594507364546	0.00756308410132633	-0.0138947155014028
0.55	-2.94627691381896	-0.518225838785834	951.529657489133	13.7421953884874	-9.82975311130407	1.32494815346942	-1.37280543932867	0.00759303055261717	-0.0140266516430678
0.56	-2.65215397871142	-0.472452552163055	951.38077274641	13.7916087406825	-9.94179116076358	1.321967993759	-1.36533750515806	0.00764491461473171	-0.0141449618541948
0.57	-2.44540513908586	-0.393186187421784	950.737535349769	13.8551189060233	-10.0266037947012	1.31453650765498	-1.35436604970013	0.00771926494856912	-0.0142400180561698
0.58	-2.33036405828933	-0.300977263200069	949.69606302846	13.9303318206225	-10.0832805627304	1.30336788490156	-1.34085432202604	0.00781215074231778	-0.0143099025950003
0.59	-2.28751144002038	-0.215857060882606	948.389507832262	14.0133641420619	-10.11694170873	1.28966076792245	-1.32590202059922	0.00791752464392548	-0.0143586100470127
0.6	-2.28467633039882	-0.152683381838962	946.956703390894	14.1006219554473	-10.1351495370579	1.27490114836691	-1.31067048011298	0.00802957364543477	-0.0143925899460727
0.61	-2.2909139044249	-0.118565100668001	945.515788048356	14.1898682060852	-10.1441836053625	1.26052246454039	-1.29622203166517	0.00814422841340656	-0.0144171089203311
0.62	-2.28807985745003	-0.112823864221116	944.150848325066	14.2802973263134	-10.1466340086951	1.24754920139336	-1.28333059778501	0.00825941479407488	-0.0144338760264658
0.63	-2.2761796690398	-0.129125517561042	942.914197233454	14.3717705212899	-10.1411622944281	1.23637831426115	-1.27235678589399	0.00837417809783469	-0.0144407927729757
0.64	-2.27093595904491	-0.158769049540228	941.84062047176	14.4636965738202	-10.1243694063671	1.22680835084512	-1.26326561871091	0.00848725944289941	-0.0144337962816433
0.65	-2.2948633645039	-0.193864890882927	940.965193803499	14.5541530323825	-10.0938481056036	1.21832821507334	-1.25580729342127	0.00859589161518437	-0.0144099069849936
0.66	-2.36548612294831	-0.229334784788606	940.334972122194	14.6397045088293	-10.0510131505683	1.21056757658248	-1.24980839752454	0.00869545198242638	-0.0143700978707423
0.67	-2.48536063525051	-0.263222281957602	940.007584629526	14.7160570578717	-10.0023799800601	1.20373446602172	-1.24546496673993	0.00878022534964185	-0.0143206571182657
0.68	-2.63789864111238	-0.295488706515468	940.035575863636	14.77932374832	-9.95857270558318	1.19885400095173	-1.24351309161986	0.00884504769527461	-0.0142722992772421
0.69	-2.79083951149816	-0.326022473128743	940.441958069172	14.8274116657507	-9.93125455873801	1.1976817687894	-1.24518444767118	0.00888721297994766	-0.0142371729537867
0.7	-2.90634301925496	-0.352819019564461	941.197184091603	14.8609751572419	-9.92904180507794	1.20227632919044	-1.2519229631877	0.00890788018984467	-0.0142247785013351
0.71	-2.95410787141114	-0.371143173305469	942.208537157215	14.8835331327067	-9.9539496301133	1.21433943110451	-1.26492225028469	0.00891237032222414	-0.0142383153110453
0.72	-2.92263163355947	-0.374058976205567	943.329197056687	14.9006544207246	-9.99982489748526	1.23452649739648	-1.28461389001969	0.00890913288619988	-0.0142729191405981
0.73	-2.82424385097281	-0.354187675207686	944.387212701534	14.9184557868401	-10.0535580315099	1.26195950551455	-1.31026995840291	0.0089076420349069	-0.0143166249561506
0.74	-2.69173844389249	-0.306124880770092	945.226890686318	14.9419083024663	-10.0988625048738	1.29412630210293	-1.33986582731594	0.0089158788419863	-0.0143539127496308
0.75	-2.56753108583042	-0.228741653935314	945.749683964217	14.973524314146	-10.1214332159775	1.32723773303878	-1.37028344289957	0.0089382285592986	-0.0143707191631427
0.76	-2.48911530217052	-0.126642909078522	945.94074343364	15.0128775102585	-10.1137190134268	1.3569728434219	-1.39783914268585	0.00897450978794012	-0.0143591986456073
0.77	-2.47607854044531	-0.0103046037162135	945.871430168394	15.0571340565512	-10.0776066286169	1.37941991962332	-1.41902273418502	0.00902049087723567	-0.014320538678813
0.78	-2.52345014833219	0.105241134167826	945.675918436286	15.1024307066251	-10.0240124507571	1.39195885764275	-1.43126695948436	0.00906975253399078	-0.0142647879887248
0.79	-2.60383476215047	0.202952954350534	945.508770151103	15.1456330703108	-9.96946667048589	1.39384902774491	-1.43355097053281	0.00911628462839231	-0.0142077120634742
0.8	-2.67751685234094	0.267050882121641	945.496875970552	15.1858424534041	-9.93084671204869	1.38637827258293	-1.42668338779216	0.00915691772356386	-0.0141657530715548
0.81	-2.70677382518028	0.286313668751433	945.701097150691	15.225056579062	-9.92007097525531	1.37255826928153	-1.41319523881482	0.00919269393903033	-0.0141508413066324
0.82	-2.66914739347631	0.256646883722763	946.099642075733	15.2676349990579	-9.940558546278	1.35647164778268	-1.39687094701828	0.00922859701138545	-0.0141668351564769
0.83	-2.5649425876124	0.18226766762508	946.597891689616	15.3186139538435	-9.98660836193393	1.34244675872967	-1.38202459126721	0.00927160409772931	-0.014208756797894
0.84	-2.41649036229062	0.0751324317388077	947.060653605473	15.3813400098394	-10.0458070990816	1.3342416213663	-1.37266902094836	0.00932762286152733	-0.0142649825509096
0.85	-2.25978938610829	-0.0473400430787597	947.355683221323	15.4552034799832	-10.1035283381709	1.33437453356941	-1.37172725664742	0.00939833272641233	-0.014321518992834
0.86	-2.13183642796235	-0.165731177413225	947.394099043231	15.534329101132	-10.1479070861758	1.34367967377967	-1.38041505001453	0.0094790882705732	-0.0143668146016203
0.87	-2.05829134655166	-0.262402440057669	947.154937313445	15.6078674201128	-10.1735805077024	1.36112396075458	-1.39789859688418	0.00955879042892172	-0.0143954409422256
0.88	-2.04571793617716	-0.324634922294458	946.686782072961	15.6620654199497	-10.1829749191335	1.38390676971057	-1.42130791896487	0.0096220414643976	-0.0144094322412294
0.89	-2.08078770980492	-0.346394912796156	946.08712445354	15.6837112816249	-10.1847892565293	1.40786052501206	-1.44615362655753	0.00965314738729728	-0.0144169070240751
0.9	-2.1363133425647	-0.328451769610869	945.467271945637	15.6640350948154	-10.1902650934447	1.42814812981667	-1.4671353773501	0.00964086179846479	-0.0144285098453637
0.91	-2.18171886626626	-0.277091967769247	944.914997704509	15.6018901160029	-10.208537010236	1.4401931121841	-1.47923838211682	0.00958241393440651	-0.0144529067591203
0.92	-2.19427504522834	-0.202048797633739	944.467449056961	15.5051517203272	-10.2426210360834	1.44068905975548	-1.47890843998944	0.00948547431848612	-0.0144928436478716
0.93	-2.16742636748247	-0.11437116358171	944.103185242903	15.3897473487597	-10.287370765961	1.42845462684846	-1.46501792571457	0.00936727743068466	-0.0145430758794766
0.94	-2.11365538410814	-0.0247816052062882	943.755844572609	15.2764355494163	-10.3301061155516	1.40487893525529	-1.43933185492637	0.00925097815300313	-0.0145908877476895
0.95	-2.06110210603491	0.0572658669813657	943.344869908837	15.1861603980601	-10.3537981528982	1.37377306280217	-1.40628117766236	0.00916019380449085	-0.0146191291418152
0.96	-2.04500973696607	0.123955201038848	942.813121306819	15.1352783624839	-10.3419160486907	1.34060094781697	-1.37203611161404	0.00911328285348334	-0.0146109355628881
0.97	-2.0965122790805	0.169222722129595	942.158778408597	15.132017629556	-10.2835276463643	1.31125830330546	-1.34308955879071	0.00911902359530625	-0.0145547787581024
0.98	-2.23199998257942	0.188917184733268	941.450428018763	15.1751511422734	-10.1771369290854	1.29072640974591	-1.3247301616723	0.00917493108153156	-0.0144483631239734
0.99	-2.44617129403245	0.181123033126195	940.819211012442	15.2551662542666	-10.0320728997842	1.28198201217854	-1.31983714409481	0.0092686244143102	-0.0143001783581457
1	-2.71095029518641	0.146530900415334	940.42887862103	15.3574354106475	-9.86692726042167	1.28546772304731	-1.32833750734402	0.00938170849148245	-0.0141281656893408
1.01	-2.98091512662719	0.0885853802607361	940.431485858343	15.4663034908329	-9.70538327220181	1.29924584298454	-1.34745943669709	0.00949488738843318	-0.0139557758474981
1.02	-3.2040873014258	0.0131476145838506	940.921162744152	15.5688069449626	-9.57054291509193	1.31974144588638	-1.3726682728476	0.00959272833251545	-0.0138064571390098
1.03	-3.33532458780792	-0.0724239546498485	941.899527052485	15.6569800201482	-9.47931678416763	1.3428087009044	-1.39897155246459	0.00966672737809626	-0.013698085529624
1.04	-3.34861242572213	-0.160629395459618	943.263454800491	15.7282741811532	-9.4384472528238	1.36478552411125	-1.42219371498809	0.00971598149972031	-0.0136388863497825
1.05	-3.2446146219061	-0.245271986864727	944.819864552307	15.7842942874027	-9.44327662875565	1.38324897843997	-1.43986895695252	0.00974559662479091	-0.0136259759418595
1.06	-3.0510172605661	-0.322572204192203	946.324588217283	15.828591535971	-9.47957487909319	1.39731581414485	-1.4515528124073	0.00976366474934653	-0.0136468872970671
1.07	-2.81523151897633	-0.391617047412416	947.535468564372	15.8644706322289	-9.52784077900879	1.40749134763024	-1.45854726378974	0.00977799816169933	-0.0136835625537744
1.08	-2.59134807191019	-0.454013726331633	948.265606985172	15.8936188403959	-9.56876177377221	1.41519770018704	-1.46320277254074	0.00979372660599154	-0.0137175679838937
1.09	-2.42512994898109	-0.512855692500767	948.422525100146	15.9159362331076	-9.58819305563527	1.42217319231669	-1.46805464711235	0.00981241368298069	-0.0137349453513326
1.1	-2.34162999236366	-0.571300220036867	948.023055588411	15.9304225891493	-9.58020531916525	1.42992344103034	-1.47505409278548	0.00983272271408331	-0.0137292720707523
1.11	-2.33936435128511	-0.631146411801896	947.180877793452	15.9365609453911	-9.54739847070699	1.43934312152124	-1.48508165247756	0.00985209628891326	-0.0137021150213062
1.12	-2.39296929018343	-0.691782234628124	946.071575758989	15.9354799406769	-9.49857522533617	1.45054990116602	-1.49781899862465	0.00986860460418792	-0.013660929097128
1.13	-2.46350097086572	-0.749769354223698	944.88638939916	15.9303196496587	-9.44471412098959	1.46290981508678	-1.51194549173776	0.00988215592696762	-0.0136152801636993
1.14	-2.51292149259753	-0.799199341045731	943.788433486014	15.9255951971338	-9.39468798130661	1.47520237340459	-1.52555029678638	0.00989460638951234	-0.013572779335936
1.15	-2.5177953299859	-0.832813521765472	942.883293220297	15.9257930358762	-9.35216882306211	1.48587187937237	-1.53662294942157	0.00990880470191491	-0.0135361276366227
1.16	-2.47742212286618	-0.843734342541253	942.210339020036	15.9337701609355	-9.31465359872104	1.49332392493596	-1.54350041126368	0.00992706029861135	-0.0135021905011981
1.17	-2.41357862909045	-0.827501722392025	941.753898353035	15.9496270300295	-9.27473086981533	1.49623538036521	-1.54518951705992	0.00994975735399006	-0.0134632346340218
1.18	-2.36208721382045	-0.78395772226603	941.467176423269	15.9705539903125	-9.22289556742767	1.49384233989276	-1.54152942296093	0.0099747675141405	-0.0134096655533865
