Time [s]	GRFml [N]	GRFap [N]	GRFv [N]	Mml [N.m]	Map [N.m]	Mv [N.m]	Mfree [N.m]	COPml [m]	COPap [m]
0.01	20.539149057121	5.31988080418721	635.108672368722	-44.1753272414376	4.87186332834137	-2.00169281914409	-0.613845730311915	0.000892017789986372	0.012778919208009
0.02	20.1739041231987	4.29148252632686	632.900486968968	-43.7368206393483	4.88305816283656	-1.89811083021454	-0.537047118429073	0.000934283683003486	0.0123343217992189
0.03	19.8153043689264	3.29627630702091	630.773738796271	-43.3172690342903	4.89329522597041	-1.79824260177783	-0.462966943217822	0.000974714386314504	0.0119085138303552
0.04	19.4697681828938	2.35669406500369	628.793462749779	-42.9286968994617	4.90251353308284	-1.70452668090589	-0.393579394902032	0.00101232035529438	0.0115136878617265
0.05	19.1433823479901	1.49278999529851	627.023826835747	-42.5821841972685	4.91075477936448	-1.61913515434305	-0.330651617133838	0.0010462157927819	0.0111608009539075
0.06	18.8416819249489	0.721255295458789	625.525361046955	-42.287306922904	4.91817368001659	-1.54386261485836	-0.275642643894234	0.00107568872861194	0.0108589546114521
0.07	18.5694496351515	0.0546153490540071	624.352105723685	-42.0516362651196	4.92504210154269	-1.48003618346606	-0.229619382155274	0.00110027024150219	0.0106148626139319
0.08	18.3305436849859	-0.499341418167671	623.548808481758	-41.8803254184464	4.93174592914881	-1.42845221491315	-0.193196095741284	0.00111979566139341	0.0104324441246939
0.09	18.12776193841	-0.937869112426855	623.148315012898	-41.7758091556286	4.93877396488383	-1.38934348041186	-0.166502181464366	0.00113444990855321	0.0103125726763929
0.1	17.9627488978901	-1.26328772831421	623.169307873853	-41.7376358048573	4.94669860276682	-1.36237858308275	-0.14918088249602	0.00114478955258935	0.0102530022766041
0.11	17.8359501412478	-1.48272556065533	623.614546655485	-41.7624445142321	4.95614855815548	-1.34669326992141	-0.140419145237826	0.00115173584823431	0.010248480477148
0.12	17.7466167564692	-1.60759931513748	624.469751302325	-41.8440929623409	4.96777450477552	-1.34095130218571	-0.139006336025412	0.00115653581448035	0.0102910455905237
0.13	17.692860013957	-1.65286626428954	625.703247367032	-41.9739324037267	4.98220905127497	-1.34343076042925	-0.143417258099641	0.00116069199629148	0.0103704923164742
0.14	17.6717541279148	-1.63609588700618	627.266458119442	-42.1412185902436	5.00002302232145	-1.35213019517533	-0.151913095975511	0.00116586530781208	0.0104749779757965
0.15	17.6794826072986	-1.57641818421678	629.095285132475	-42.3336391781491	5.02168044944567	-1.36488796702925	-0.162652752287035	0.00117375864855841	0.0105917314211822
0.16	17.7115215075523	-1.49341180645449	631.112368576446	-42.5379312038643	5.04749498101114	-1.37950749932684	-0.173806626294318	0.00118599123353764	0.0107078194058946
0.17	17.7628509899659	-1.40599705260378	633.230164064272	-42.7405565370292	5.07759055489838	-1.39388101078082	-0.183665200284233	0.00120397442696948	0.0108109213315179
0.18	17.8281850894436	-1.33139675695886	635.354718149516	-42.9283992757683	5.11186912053002	-1.40610459458098	-0.19073573794926	0.00122879925732587	0.0108900630843457
0.19	17.9022085808709	-1.28422237054946	637.389973427025	-43.0894471163533	5.1499879427776	-1.41457822698504	-0.193821776043171	0.00126114395224764	0.0109362639597125
0.2	17.9798093929728	-1.2757336681418	639.242390557919	-43.2134189693587	5.19134857937483	-1.41808536259511	-0.192081697218606	0.00130120721217046	0.0109430570205296
0.21	18.0562951906847	-1.31330914452819	640.825642055849	-43.2923035363683	5.23509902162497	-1.41584812693946	-0.185064310111131	0.00134867007648725	0.0109068519980749
0.22	18.1275835419359	-1.40015108551939	642.065114329402	-43.3207780978413	5.2801497647416	-1.40755565844348	-0.172720877693666	0.00140268662244259	0.0108271202800444
0.23	18.1903564737964	-1.53523535098027	642.901952388357	-43.2964831541277	5.32520377826669	-1.39336478307164	-0.155394331091175	0.00146190173674309	0.0107063928856135
0.24	18.2421721393096	-1.71350193307738	643.29639680682	-43.2201364493994	5.36879953322472	-1.37387382643737	-0.133787447803494	0.001524492992647	0.0105500738742378
0.25	18.2815286573873	-1.92626914927486	643.230194788216	-43.0954788371099	5.40936546608532	-1.35007188527409	-0.108912573769115	0.00158823324692561	0.0103660827037703
0.26	18.307877820928	-2.16184260251283	642.707915030894	-42.9290538916703	5.44528357115049	-1.32326720809606	-0.0820260714308647	0.00165057078564277	0.0101643490373091
0.27	18.3215891375629	-2.40628037118706	641.757056887762	-42.7298325751275	5.47495925538119	-1.2949994034362	-0.0545511343163931	0.00170872443596586	0.00995619185905714
0.28	18.3238674055995	-2.64426871008094	640.426914351028	-42.5087030707043	5.49689419448164	-1.26694095106995	-0.0279929673103853	0.00175979171308523	0.00975362103986091
0.29	18.3166295663153	-2.86005811773446	638.786230184395	-42.2778535737654	5.50975871494101	-1.24079390535527	-0.00385061307981281	0.00180086847621889	0.00956860333721097
0.3	18.3023487550872	-3.03840805615001	636.919750103565	-42.0500819305796	5.51246019914495	-1.2181877399336	0.016470098128362	0.00182917846317765	0.00941233599878117
0.31	18.2838751623697	-3.16548983435442	634.923856188188	-41.8380701788601	5.50420416274302	-1.20058400047328	0.0317379221882758	0.00184221029332618	0.00929456960629695
0.32	18.2642444077474	-3.22970098061903	632.90151787274	-41.6536640333137	5.48454496788314	-1.18919283760966	0.040967448088891	0.00183785805235233	0.00922301768854566
0.33	18.2464845624684	-3.22235049636993	630.956843716261	-41.507197069086	5.45342358751662	-1.18490563370085	0.0434761155809795	0.00181455955949141	0.00920288430338869
0.34	18.2334327088498	-3.13818227694312	629.189544450996	-41.4068968188043	5.41119039454965	-1.18824687619528	0.0389235483293096	0.00177142422383306	0.00923653279677138
0.35	18.2275710256728	-2.97571320121781	627.689625526059	-41.3584053815718	5.35861158282334	-1.1993472385639	0.0273307195181894	0.00170834053847192	0.00932331000605714
0.36	18.230890907979	-2.73737239832551	626.532614836246	-41.3644407326665	5.29685850276616	-1.2179385829719	0.00907773985036655	0.0016260523287312	0.0094595310686676
0.37	18.2447916767116	-2.42943845451555	625.775599331828	-41.4246171098471	5.22747988346457	-1.24337037307861	-0.0151194509345733	0.00152619338076261	0.00963862146046492
0.38	18.2700181472755	-2.06178131010284	625.454294893486	-41.5354340999643	5.15235758891171	-1.27464585143194	-0.0442516387578995	0.00141127230964116	0.00985140548837334
0.39	18.3066388640957	-1.64742484729164	625.581310594053	-41.6904348666868	5.07364719771801	-1.31047535521123	-0.0770748200073204	0.00128460339255966	0.0100865245070152
0.4	18.3540643352806	-1.20195428539891	626.14569557941	-41.8805248680878	4.99370528530586	-1.34934336469838	-0.11218012929435	0.00115018409475817	0.0103309636454763
0.41	18.4111022769949	-0.742799164426166	627.113779236991	-42.0944339143003	4.91500581204621	-1.38958533313115	-0.148070009519712	0.00101252533328072	0.0105706626157365
0.42	18.4760448441303	-0.288427686154245	628.431238287004	-42.3192969652422	4.84004846931699	-1.42947004970291	-0.18323526464948	0.000876445215362485	0.0107911839181551
0.43	18.5467811994701	0.142508637164608	630.026252999122	-42.5413230483665	4.77126219934406	-1.46728323759149	-0.216228038414928	0.000746840243342488	0.0109784101831138
0.44	18.620927641952	0.53203974299011	631.813553472219	-42.7465173760957	4.71090737611843	-1.50140826863109	-0.245726641121019	0.000628449328652672	0.011119241355
0.45	18.6959669227428	0.863711374427642	633.699109557973	-42.9214193465061	4.66098030603247	-1.53040025522837	-0.270589342315116	0.00052562537837913	0.0112022619816697
0.46	18.7693883337246	1.12335137663824	635.58518722873	-43.0538186925461	4.62312377028848	-1.55305031848942	-0.289895560533934	0.000442127086115124	0.0112183492132314
0.47	18.8388206272899	1.29973394795828	637.375481422019	-43.1334135685679	4.5985472785789	-1.56843748375802	-0.302974115346698	0.000380940503074021	0.0111611934911742
0.48	18.902150756033	1.38511282072517	638.980040784262	-43.1523776903219	4.58796052733149	-1.57596637368659	-0.309419200955687	0.000344136671520271	0.0110277065332098
0.49	18.9576227155548	1.37560034867146	640.319722181161	-43.1058085493242	4.59152324955347	-1.57538960938909	-0.309095394535589	0.000332768643505539	0.0108182951829486
0.5	19.003912323194	1.27137625452285	641.32995012437	-42.9920349072509	4.60881420317253	-1.56681455209398	-0.30213329531881	0.00034680894290538	0.010536984937871
0.51	19.0401754497836	1.07671707235033	641.963605264323	-42.812768892729	4.63882147102117	-1.55069468840989	-0.288917336195275	0.000385127080492569	0.0101913832938195
0.52	19.0660689195212	0.79984483747615	642.192923069071	-42.5730956945452	4.67995554413858	-1.52780655807669	-0.270067003743447	0.000445506023249006	0.00979248014452271
0.53	19.0817448923537	0.452601074781695	642.010344675736	-42.28130168691	4.73008584381441	-1.49921362941031	-0.246412263130026	0.000524696340289992	0.00935428998530782
0.54	19.0878209481297	0.0499593682717743	641.428322581168	-41.9485494604555	4.78660042781601	-1.46621893875718	-0.218963540985391	0.000618506825175493	0.00889334820334005
0.55	19.0853292292108	-0.390603473057321	640.478140533654	-41.5884153216963	4.84648765220394	-1.43030862758961	-0.188876293672433	0.000721930447752824	0.00842808090682114
0.56	19.0756488218386	-0.849851627744216	639.207856441508	-41.2163110598337	4.90643756016346	-1.39308874094025	-0.157410075888541	0.000829304270857166	0.00797807418228438
0.57	19.0604260476723	-1.3076187494817	637.679516810444	-40.848816910499	4.96295978888318	-1.35621780285064	-0.125882181032075	0.000934501291197822	0.00756327402541718
0.58	19.0414875032465	-1.74368567728925	635.965819509771	-40.5029564767888	5.01251387569301	-1.32133776763774	-0.0956163571039493	0.00103115092351507	0.00720315215261197
0.59	19.0207505572029	-2.13866967325167	634.146417815626	-40.1954467657635	5.0516470591249	-1.29000596720416	-0.0678877648263409	0.00111288303628316	0.00691587520324615
0.6	19.0001356412488	-2.47488630910539	632.304062847916	-39.941957393169	5.07713406217812	-1.26363063783212	-0.0438661440915301	0.00117358817564537	0.00671751529666051
0.61	18.9814841106479	-2.73714551351874	630.520774665331	-39.7564123919684	5.08611296200578	-1.24341251411505	-0.0245599585864286	0.00120768411581188	0.00662133842719424
0.62	18.9664847685058	-2.91344532402201	628.874216016414	-39.6503659821296	5.07621113181853	-1.23029481812936	-0.0107649439103872	0.00121037649725188	0.00663720381002179
0.63	18.9566114089177	-2.99553056772579	627.434419128323	-39.6324802263626	5.0456554137123	-1.22492374116351	-0.00302084269186906	0.0011778994856151	0.0067711022177319
0.64	18.9530729944779	-2.97928895784687	626.260987258498	-39.7081278662919	4.99336115624768	-1.22762120515988	-0.00158005280608029	0.00110772154444306	0.00702485489450844
0.65	18.9567773902402	-2.86496379314027	625.400861381288	-39.8791380079721	4.91899552083478	-1.23837129519557	-0.00639138011761362	0.000998701928372442	0.00739598722265807
0.66	18.9683089620739	-2.65717035535742	624.886710514264	-40.1436959448151	4.82301150031294	-1.25682127103707	-0.017101088963296	0.0008511855679	0.00787778340968506
0.67	18.9879198309978	-2.36471190508276	624.735973669468	-40.4964015399737	4.70665035718439	-1.28229750013829	-0.0330720769744687	0.000667027589552976	0.00845952050658944
0.68	19.0155341609949	-2.00020049549588	624.950553671713	-40.9284835298111	4.57191161697561	-1.31383602009778	-0.0534204317558254	0.000449543489186037	0.00912687242645469
0.69	19.0507645384366	-1.57949721670538	625.517139054855	-41.4281601564783	4.42149127029806	-1.35022675859811	-0.077067065304123	0.000203386414459413	0.00986246756717832
0.7	19.0929392599824	-1.12099547525986	626.408110367094	-41.9811299911077	4.25869036292604	-1.39006974520733	-0.102800783554432	-6.56415570677504e-05	0.0106465773117664
0.71	19.1411391608365	-0.644779020841976	627.582971478663	-42.5711709572374	4.08729760093623	-1.43184098145665	-0.129348213684003	-0.000350832514297275	0.0114579071754992
0.72	19.1942424635404	-0.171693192805611	628.990234522598	-43.1808206694972	3.91145088453237	-1.47396503727615	-0.155445592720587	-0.000644855051815624	0.0122744577679011
0.73	19.2509759889209	0.277627137415287	630.569678308344	-43.7921074914187	3.73548373474457	-1.5148909582254	-0.179907542655471	-0.000940058794482493	0.013074419148304
0.74	19.3099709316265	0.683726535876088	632.254893724349	-44.387299367198	3.56376333034632	-1.55316774111194	-0.201688558670049	-0.00122878377162463	0.0138370597458916
0.75	19.3698212581535	1.02924789089595	633.976025120711	-44.9496366172935	3.40052728437268	-1.58751550060666	-0.219933889513555	-0.00150365850367197	0.0145435700122922
0.76	19.4291426411602	1.29975602245451	635.662613420797	-45.464015564744	3.24972633747676	-1.61688853055082	-0.234017625936182	-0.00175787299205311	0.015177821621313
0.77	19.4866297163773	1.48442500544976	637.246444478536	-45.9175920670167	3.1148798279896	-1.64052677112007	-0.243566963595146	-0.0019854158250923	0.0157270055376861
0.78	19.5411093624398	1.57655457317494	638.664304992954	-46.3002776851848	2.99895013675803	-1.65799272129414	-0.248472625911729	-0.00218126789159514	0.0161821167661391
0.79	19.5915876898644	1.5738892331273	639.86054842263	-46.6051061769435	2.9042413395444	-1.66919156306217	-0.248886221432051	-0.00234154835744543	0.0165382600482442
0.8	19.63728851455	1.47872345680282	640.789375365933	-46.82845403622	2.83232608891923	-1.67437315159394	-0.245205826832971	-0.0024636113388768	0.0167947590176314
0.81	19.6776813107963	1.29778698193252	641.41673750278	-46.970105647025	2.7840033619218	-1.67411552282277	-0.238051342678809	-0.00254609394228297	0.0169550610061347
0.82	19.7124970068409	1.0419153127106	641.721782184782	-47.0331609544236	2.75928822795001	-1.66929061511454	-0.22823121994637	-0.00258891798190129	0.0170264403148148
0.83	19.7417305064527	0.725521319222695	641.697766768541	-47.0237910316653	2.75743329460906	-1.66101392807484	-0.216702083973609	-0.00259324876549397	0.0170195137077282
0.84	19.7656294805845	0.365893832466393	641.352388230654	-46.9508541755677	2.77698005621577	-1.65058078186717	-0.20452267985898	-0.00256141494815913	0.0169475924634804
0.85	19.7846697429341	-0.0176422339023103	640.707494542253	-46.8253918317435	2.81583707157153	-1.63939263234653	-0.192803510353629	-0.00249679372980955	0.0168259048190015
0.86	19.7995183550668	-0.404662887937626	639.798169328415	-46.660029399066	2.87138079444985	-1.62887748820645	-0.182653589667706	-0.00240366576803908	0.016670730381782
0.87	19.8109864393164	-0.774633195436214	638.671209617826	-46.4683114915458	2.94057401784356	-1.62040882718665	-0.175125914922932	-0.00228704425386374	0.0164984934747691
0.88	19.8199744411441	-1.10789829760006	637.383046651479	-46.2640043060305	3.02009630149601	-1.61522749658814	-0.171163542911368	-0.0021524827968883	0.0163248649503144
0.89	19.827413204934	-1.38662928239056	635.997190015815	-46.060399188665	3.10648044556001	-1.61437090407954	-0.171548498989508	-0.00200586719662967	0.0161639214854859
0.9	19.834204641459	-1.59567852946087	634.581303770605	-45.8696512280533	3.19624904987416	-1.61861337098834	-0.176856055833909	-0.00185319688738762	0.0160274076926738
0.91	19.841165917174	-1.72330403998761	633.20404762338	-45.7021847347566	3.28604544290584	-1.6284208612903	-0.187417107655054	-0.00170036280516114	0.0159241397407256
0.92	19.8489809501757	-1.76172910069637	631.931834516542	-45.5661938929223	3.37275374978934	-1.64392245860293	-0.203291339457323	-0.00155292951430508	0.0158595800392181
0.93	19.858162544852	-1.70751202505337	630.825666483807	-45.4672618760483	3.45360355894033	-1.66489999454336	-0.22425358222095	-0.00141593043727428	0.0158356015925476
0.94	19.8690277545281	-1.56171020466051	629.938212014335	-45.408115569278	3.52625549899619	-1.69079619550073	-0.249795123045542	-0.00129368567785056	0.0158504487715242
0.95	19.8816880748817	-1.32983279001513	629.311279769931	-45.3885260636753	3.5888650062283	-1.72074067459891	-0.279140823869401	-0.00118965192859583	0.0158988894650667
0.96	19.896054912849	-1.02158648850144	628.97382538143	-45.405357658052	3.6401225997797	-1.7535921134918	-0.311281766581849	-0.00110631307416383	0.015972542824416
0.97	19.9118595395592	-0.650428718812528	628.940600998312	-45.4527606199504	3.67927004160039	-1.78799411170094	-0.345021906755969	-0.00104511823662066	0.0160603579003945
0.98	19.9286855282574	-0.2329512327163	629.211522781514	-45.522495819371	3.70609279575852	-1.82244147817652	-0.379036033954006	-0.00100647122704463	0.0161492119352103
0.99	19.9460106095358	0.211875096623237	629.771791719367	-45.6043729347038	3.72089017763022	-1.85535323825424	-0.41193536000449	-0.000989771927622183	0.0162245931091651
1	19.9632540496548	0.663557644437217	630.592760563149	-45.686778573828	3.72442546179074	-1.88514835369458	-0.442336420757548	-0.000993506438530515	0.0162713310431079
1.01	19.9798251585374	1.10100076464705	631.633497123856	-45.7572666249599	3.71785896821884	-1.91032011422518	-0.468928765431968	-0.00101537936121766	0.0162743389575971
1.02	19.9951684201696	1.5034429618165	632.84295447727	-45.8031806436322	3.7026677457217	-1.92950535156821	-0.490537139601373	-0.00105247879803142	0.0162193336014021
1.03	20.0088010333857	1.851369515617	634.162624432214	-45.8122771978156	3.68055590179296	-1.94154503302715	-0.506174494995602	-0.00110146284525845	0.0160935023973569
1.04	20.0203393412077	2.12735950335936	635.529524177425	-45.7733198433783	3.6533598786403	-1.94553338070809	-0.51508307887196	-0.00115875567779665	0.0158860913213796
1.05	20.0295116599598	2.31682996927401	636.879349027526	-45.6766157058277	3.62295304183301	-1.94085339373614	-0.516761933286141	-0.00122074171477841	0.0155888915792332
1.06	20.0361563091143	2.40864544217187	638.149617652546	-45.5144703357166	3.59115383354666	-1.92719747663954	-0.510980231041061	-0.00128394761148398	0.0151966080518589
1.07	20.0402050763281	2.39556781665771	639.282640371315	-45.2815413450415	3.55964145571446	-1.90457274566492	-0.497776870918835	-0.00134520365422525	0.0147070976979582
1.08	20.0416537999373	2.27452944128976	640.228155543566	-44.9750770237803	3.5298826044671	-1.87329144365843	-0.477447566508781	-0.00140177823861207	0.0141214715996645
1.09	20.0405230794296	2.04672071346511	640.945502640656	-44.5950323440112	3.50307219636759	-1.83394769314172	-0.450521249199384	-0.00145148122860647	0.0134440600413631
1.1	20.036813207538	1.71749215602306	641.405231449537	-44.144061130206	3.48009033413346	-1.78738251135253	-0.417727964207306	-0.00149273394140644	0.0126822457812693
1.11	20.0304581503393	1.29607943137228	641.590082858033	-43.6273893575278	3.46147698368349	-1.73463956294392	-0.379960595233628	-0.00152460518308263	0.011846176296692
1.12	20.0212837092478	0.795167637632789	641.49531529191	-43.0525802075261	3.44742500733176	-1.67691450796463	-0.338232750796349	-0.00154681414664127	0.0109483709902092
1.13	20.0089748437786	0.230318164570927	641.128389543001	-42.4292063761446	3.43779135362137	-1.61550099792029	-0.293635029468267	-0.0015597021040676	0.0100032438454107
1.14	19.9930565203865	-0.380712946217796	640.508060952714	-41.7684489626361	3.43212537734535	-1.55173637624747	-0.247291692486991	-0.00156417573108866	0.00902656553703685
1.15	19.9728914255795	-1.01873203628267	639.662959471785	-41.0826449079921	3.42971248810835	-1.48694995857728	-0.20031954005558	-0.0015616256590076	0.00803489128981988
1.16	19.947696522937	-1.66390467898074	638.62976319064	-40.3848063108549	3.42963063514071	-1.42241642136728	-0.15379052980075	-0.00155382450417867	0.00704498166479988
1.17	19.9165788553009	-2.29655603248383	637.451088231872	-39.6881350174851	3.43081655994765	-1.35931634366028	-0.108699400077902	-0.00154280921510597	0.00607324283555447
1.18	19.8785893263311	-2.89793940049184	636.173226711323	-39.005554724221	3.43213831265438	-1.29870536283278	-0.0659372686299613	-0.00153075310682893	0.005135210801814
