Time [s]	GRFml [N]	GRFap [N]	GRFv [N]	Mml [N.m]	Map [N.m]	Mv [N.m]	Mfree [N.m]	COPml [m]	COPap [m]
0.01	7.67480781475102	5.4268363848206	826.940474186663	-7.94297220823754	-4.89937909865047	3.04619950793813	3.15202375026212	-0.00249725971587388	-0.00449743513444325
0.02	7.2997226220436	5.58268639468442	826.950759389921	-8.33779069368028	-4.68786024412559	2.97682265366035	3.08203045841503	-0.00223990309977368	-0.00401818653998052
0.03	6.93227799159164	5.73539451785784	826.944092859702	-8.72721837610254	-4.47919021954251	2.90887642341474	3.01307177604692	-0.00198603016024332	-0.00354490738911903
0.04	6.57961615906178	5.881508430016	826.907739246921	-9.10497601672096	-4.27662163996449	2.84375329548594	2.94659715918345	-0.00173965491244565	-0.00308502074396329
0.05	6.24842251678212	6.01766152272287	826.828940885438	-9.46502298917633	-4.08322035538879	2.78276972405747	2.88400372382791	-0.00150455978987319	-0.00264567959764996
0.06	5.94466434349734	6.14069590934292	826.69558147284	-9.80174983101068	-3.90176511519052	2.72711518367927	2.8265785186115	-0.00128417045004953	-0.00223354122646132
0.07	5.67336386653251	6.24777959673125	826.496848121354	-10.1101608061882	-3.73465989537537	2.67780707636243	2.77544503316801	-0.00108144677121848	-0.00185455217651823
0.08	5.43841673263124	6.33651279760994	826.223857033327	-10.3860398393741	-3.58386241050944	2.63565364918794	2.73151701115853	-0.000898794382085808	-0.00151375173185055
0.09	5.2424642211458	6.40501872922912	825.870208798886	-10.6260932944595	-3.45083146580251	2.60122659345629	2.69546224125022	-0.000737999922428289	-0.00121510170365172
0.1	5.08682437359905	6.45201486366139	825.432441868997	-10.8280635571598	-3.33649481686048	2.57484443715251	2.66767839074317	-0.000600191953490311	-0.000961349911875114
0.11	4.97148384904887	6.47686144873612	824.910357133965	-10.9908082789061	-3.24123815660078	2.55656723724809	2.64828216840872	-0.000485828107592721	-0.000753933741820832
0.12	4.89514896177898	6.47958516803045	824.307192617125	-11.1143414276319	-3.16491480647704	2.54620246510246	2.63711221913984	-0.000394707773610313	-0.000592928658408935
0.13	4.85535122265311	6.4608769966053	823.62963482372	-11.199833905477	-3.10687471615536	2.54332139393888	2.63374524053091	-0.000326008440056063	-0.000477044619541653
0.14	4.84859997011162	6.42206456609454	822.887661886005	-11.2495733332038	-3.06601052834358	2.54728477561197	2.63752395240096	-0.000278342827320466	-0.000403671069905727
0.15	4.87057248863119	6.36506060091445	822.09422283095	-11.2668845418885	-3.04081778825156	2.55727616279835	2.64759482096419	-0.000249833182150634	-0.000368968779405492
0.16	4.91633047642198	6.2922901485023	821.264766505898	-11.2560142189423	-3.02946590055116	2.57234091354404	2.6629529013069	-0.000238198605137942	-0.000368004399949178
0.17	4.98055089830863	6.20660032771106	820.41664233661	-11.2219848942529	-3.02987617562261	2.5914287211268	2.68249085431178	-0.000240851037996692	-0.000394921437400084
0.18	5.05775915449362	6.11115709884669	819.568402581489	-11.1704249030704	-3.03980326089575	2.61343744848898	2.70504913031885	-0.000254995534696029	-0.000443139542640936
0.19	5.14255307613286	6.0093340700851	818.73904156698	-11.107382028131	-3.05691640776505	2.63725610996983	2.72946447860089	-0.000277730647641032	-0.000505572753308483
0.2	5.22980744893011	5.90459857100497	817.947211128016	-11.0391291376206	-3.07887735360616	2.66180502308622	2.75461430361196	-0.000306145137148762	-0.000574856654343066
0.21	5.31485045796447	5.80040013855001	817.210452860755	-10.9719702657142	-3.10341206659596	2.68607143255773	2.77945489433363	-0.000337407716649365	-0.000643574403364969
0.22	5.39360550862179	5.70006618879278	816.544486714046	-10.912055232183	-3.12837416726677	2.70913926542424	2.80305214222981	-0.000368847136376877	-0.000704472160513116
0.23	5.46269416399376	5.60670902371978	815.962591968993	-10.8652101046203	-3.15179846138382	2.73021208426651	2.82460397669625	-0.000398020548550928	-0.000750655593654609
0.24	5.51949829910777	5.52314749633723	815.475111022764	-10.8367896385772	-3.17194365077897	2.74862873782103	2.84345433173673	-0.000422768756721675	-0.000775760679405343
0.25	5.56218186368978	5.45184569175286	815.089098998206	-10.8315563778913	-3.18732389257063	2.76387163738669	2.85909897288813	-0.000441257605722634	-0.000774093843151183
0.26	5.58967473937956	5.39486994485059	814.808133563435	-10.853589465491	-3.19672941889995	2.77556798787064	2.87118393209856	-0.00045200539462136	-0.000740738424079464
0.27	5.60162296760417	5.35386447578807	814.632290066448	-10.9062245161277	-3.19923688264194	2.78348465197087	2.8794976071856	-0.000453896772689499	-0.000671626369661804
0.28	5.59831103053635	5.33004494731646	814.558277804827	-10.9920242466745	-3.1942104419424	2.78751760728126	2.88395778050914	-0.000446184087334042	-0.000563575835890017
0.29	5.58056283921392	5.32420838832252	814.579724579746	-11.1127780463061	-3.18129482948702	2.78767715695484	2.88459490644158	-0.000428477572721433	-0.000414296903644817
0.3	5.5496285999455	5.33675722911978	814.687589181785	-11.2695273805087	-3.16040177166998	2.78407016887598	2.88153302266369	-0.000400726079403688	-0.000222368860740724
0.31	5.50706480189852	5.36773468453558	814.870675570254	-11.4626129201248	-3.13169113694805	2.77688064603975	2.87496957253794	-0.000363190233436358	1.28065816282306e-05
0.32	5.45461423103402	5.4168684142781	815.11621854316	-11.6917386056503	-3.09554811705412	2.7663498777144	2.86515530154268	-0.000316409970088823	0.000291071168925934
0.33	5.39409222617761	5.48361928531294	815.410508794383	-11.9560475089637	-3.05255759982401	2.75275729768936	2.85237522578231	-0.000261168313912988	0.000611589809365123
0.34	5.32728442642807	5.56723214384101	815.739525393047	-12.2542043273815	-3.00347670162767	2.73640299717816	2.83693147914933	-0.000198453086717453	0.000972938802964857
0.35	5.25586010003512	5.66678575008384	816.089545714099	-12.5844796062049	-2.94920621524626	2.71759262311756	2.81912864041323	-0.000129417942304286	0.00137319749176598
0.36	5.18130388174167	5.78123940491159	816.447706381605	-12.944831288241	-2.89076151899481	2.6966251562304	2.79926193352364	-5.53437854607045e-05	0.00181003862976186
0.37	5.10486746399755	5.90947426650555	816.802493442939	-13.3329798746871	-2.82924330575607	2.67378382550049	2.77760849367762	2.23987277600049e-05	0.00228081333737446
0.38	5.02754156438868	6.05032787977817	817.144145307122	-13.7464742894945	-2.76580834306107	2.6493301930284	2.75442170693501	0.00010238525026622	0.00278262720580369
0.39	4.95004739072765	6.20262098509113	817.464957485655	-14.1827464079128	-2.7016403790068	2.62350124892968	2.72992846968089	0.000183172286707314	0.00331240491977476
0.4	4.87284589369269	6.36517620400076	817.75948344668	-14.6391530836454	-2.6379212695195	2.59650919940407	2.70432908158648	0.000263330333690523	0.00386694164009528
0.41	4.7961623640546	6.53682869214559	818.024630597186	-15.1130053406828	-2.57580242028019	2.56854351739597	2.67779938533315	0.000341475820314646	0.00444294029438592
0.42	4.72002340946211	6.71642928333748	818.259654323307	-15.6015851487356	-2.51637670597003	2.53977475516642	2.65049469929908	0.000416302030640188	0.00503703482700261
0.43	4.64430303131573	6.9028410114439	818.466056055872	-16.1021508499031	-2.46065113987316	2.51035958866702	2.62255505436255	0.000486609067877466	0.0056458003175174
0.44	4.56877440033163	7.09493018094331	818.647393524606	-16.6119328343963	-2.40952070384171	2.48044656909921	2.5941112395922	0.000551332717925851	0.00626575165163419
0.45	4.49316397675303	7.29155336155374	818.809012864699	-17.1281214699978	-2.36374389500078	2.45018209000913	2.5652911790239	0.000609571816671807	0.00689333308277145
0.46	4.41720481032398	7.49154180960657	818.95771326213	-17.6478495762093	-2.32392068285636	2.41971613068434	2.5362261973467	0.000660613455970148	0.00752490152645265
0.47	4.34068615772425	7.69368487418389	819.101355618391	-18.1681719073717	-2.29047368034477	2.38920740087478	2.50705678050471	0.000703955114243604	0.00815670676115325
0.48	4.26349694440014	7.89671393633814	819.248427514456	-18.6860441794369	-2.26363339816209	2.35882758149329	2.47793749298318	0.000739322604242765	0.0087848718562231
0.49	4.18566104990735	8.09928836235245	819.407577732624	-19.1983041524427	-2.24342845977454	2.32876442608296	2.44904077302274	0.000766682622948766	0.00940537710804666
0.5	4.10736289082047	8.29998483408581	819.587134835454	-19.7016571732226	-2.22968159533898	2.2992235553233	2.42055938769946	0.000786248689565327	0.0100140505475577
0.51	4.02896229590168	8.49729125730571	819.79462577355	-20.1926683958193	-2.22201210187891	2.27042884016594	2.39270739059013	0.000798479380117568	0.0106065677018892
0.52	3.95099819966419	8.68960624788975	820.036312054421	-20.6677636330953	-2.21984525553646	2.24262132816496	2.36571948562325	0.000804068013481656	0.0111784627733988
0.53	3.8741812087695	8.87524496031111	820.316762409932	-21.1232404529605	-2.22242889630627	2.21605672293367	2.3398487624445	0.000803923304295252	0.0117251527687191
0.54	3.79937560671925	9.05245175673466	820.638481839282	-21.5552907171504	-2.22885708853837	2.19100147958894	2.3153628321679	0.000799140952461364	0.0122419754004504
0.55	3.72757184093039	9.21941992207416	821.001617042457	-21.9600352722736	-2.23810040866433	2.16772763064354	2.29253845836739	0.000790966656137619	0.0127242408284155
0.56	3.65985096621439	9.37431831482853	821.403757284693	-22.333570948654	-2.24904204586564	2.14650650768461	2.2716548463812	0.000780751576688924	0.0131672965406983
0.57	3.59734288285489	9.51532451117626	821.839847408561	-22.6720294148976	-2.26051854513128	2.12760157410493	2.25298582304042	0.000769901806973736	0.0135666039314167
0.58	3.54118048908927	9.64066365864722	822.302225915916	-22.971646794437	-2.27136369975119	2.11126063188278	2.23679120602157	0.000759823854793928	0.0139178244451475
0.59	3.49245205174209	9.74865191661323	822.780795803746	-23.2288423006421	-2.2804538355725	2.09770770866048	2.22330772311667	0.000751868511290259	0.0142169125569684
0.6	3.45215417325375	9.83774303797974	823.263329343477	-23.4403035213358	-2.28675254381713	2.08713496702565	2.21273989184146	0.000747275697206623	0.0144602123676948
0.61	3.42114769147771	9.90657635700545	823.735900587255	-23.6030754176017	-2.28935283050318	2.07969500234033	2.20525130363025	0.000747122947083346	0.0146445542361697
0.62	3.40011868953483	9.9540242115575	824.183431545611	-23.7146496329422	-2.28751467072438	2.07549390505775	2.20095676940194	0.000752280094516419	0.0147673476585005
0.63	3.38954652261943	9.97923666461875	824.590330281442	-23.7730503730086	-2.28069609087113	2.0745854550984	2.19991577061716	0.000763372466132758	0.0148266665459994
0.64	3.38968039970477	9.98168131878796	824.941192220665	-23.7769129446192	-2.26857614966843	2.07696678742284	2.20212761991096	0.000780754495691981	0.0148213231518145
0.65	3.40052560968609	9.96117605498397	825.22153038917	-23.7255510595093	-2.25106854044479	2.08257581876023	2.20752866802787	0.000804495160244939	0.0147509271486374
0.66	3.42183997801528	9.9179126833556	825.418496572835	-23.6190092272659	-2.2283249758423	2.09129065652439	2.21599180160003	0.00083437605130258	0.0146159267603331
0.67	3.45314060955618	9.85246977397139	825.521553958138	-23.4580969854924	-2.2007280193178	2.10293112501227	2.22732836416216	0.00086990226180438	0.0144176293893649
0.68	3.49372044653587	9.76581333193333	825.523062871594	-23.244402333063	-2.16887356727326	2.1172624453794	2.24129250758472	0.00091032562997898	0.0141581998466321
0.69	3.54267367753024	9.65928448144754	825.418744827888	-22.9802825211944	-2.13354373014582	2.13400100026214	2.25758785113648	0.000954679266660384	0.0138406350640224
0.7	3.59892860293885	9.53457390232321	825.207996048113	-22.6688312819387	-2.09567137758246	2.1528220077377	2.2758761996161	0.00100182173183283	0.0134687150309828
0.71	3.66128621902352	9.39368338881044	824.894029559588	-22.3138225895228	-2.05629806997625	2.17336882932657	2.2957879591599	0.00105048874341348	0.0130469306171933
0.72	3.7284625452723	9.23887553755238	824.483834415881	-21.9196321042887	-2.01652746707326	2.1952635493972	2.31693379715435	0.0010993499170624	0.0125803898898919
0.73	3.79913260044336	9.07261317911003	823.987950842812	-21.4911384854711	-1.97747655983238	2.21811839422878	2.3389170271459	0.00114706776757869	0.0120747054660328
0.74	3.87197393491853	8.89749070732665	823.420070525721	-21.0336077210497	-1.94022719655474	2.24154751242138	2.36134616452519	0.00119235606496585	0.0115358663105563
0.75	3.94570774639296	8.71615989846288	822.796481106054	-20.5525644574769	-1.90578035869276	2.26517861697984	2.38384709539789	0.00123403464334511	0.0109700981543191
0.76	4.01913583002057	8.531253120848	822.135382608701	-20.0536549733823	-1.87501548463648	2.28866399411732	2.4060743283555	0.00127107791633597	0.0103837173113887
0.77	4.09117192385311	8.3453069989352	821.456110439562	-19.5425068937488	-1.84865684910381	2.31169041374255	2.42772085361727	0.00130265466020782	0.00978298308365731
0.78	4.16086638186359	8.16068960733192	820.778304384387	-19.0245909610559	-1.82724859820422	2.33398752925876	2.44852621136992	0.00132815707982921	0.00917395411925749
0.79	4.22742351352119	7.97953413561903	820.121065481658	-18.5050901572476	-1.81113954029004	2.35533442602311	2.46828246518108	0.00134721775578737	0.00856235402208966
0.8	4.29021134393033	7.80368169785992	819.502142684187	-17.9887812079246	-1.80047823120821	2.3755640640722	2.48683788076532	0.00135971375607252	0.00795345119123583
0.81	4.34876394684538	7.63463558262651	818.937188980052	-17.4799330127335	-1.79521830476139	2.39456545658916	2.50409821892781	0.00136575794298606	0.00735195731635608
0.82	4.4027768627312	7.47352877478601	818.439122367012	-16.9822258586075	-1.79513342235541	2.41228352612048	2.52002565854955	0.00136567826637073	0.00676194819890858
0.83	4.45209641836137	7.32110605454278	818.017621125581	-16.4986944183729	-1.79984068664489	2.42871668108058	2.53463546622026	0.00135998655288941	0.00618680965172569
0.84	4.49670400137083	7.17772141597991	817.678775641887	-16.0316965550335	-1.80883091594278	2.4439122514371	2.54799061979432	0.00134933892226822	0.00562921020088604
0.85	4.53669650623648	7.04335096712456	817.424911047805	-15.5829088840291	-1.82150383696588	2.45796001109654	2.5601946710234	0.00133449043501155	0.0050911012257856
0.86	4.57226425600054	6.91762089331128	817.254586620861	-15.1533489357509	-1.83720604308969	2.47098409252247	2.57138319579405	0.00131624686339035	0.00457374407502796
0.87	4.60366771986337	6.79984949912544	817.162769632178	-14.7434226524049	-1.8552694943656	2.48313366427516	2.58171422853261	0.0012954165561036	0.00407776263032817
0.88	4.63121429743821	6.68910180321308	817.141173504198	-14.3529948895404	-1.87504840481639	2.49457279279161	2.59135810988448	0.00127276523368729	0.00360321879338986
0.89	4.65523633554837	6.58425465588203	817.178743032772	-13.981479613629	-1.89595256277914	2.50546994461336	2.60048719412662	0.00124897622282509	0.00314970746941954
0.9	4.67607139410404	6.48406989367221	817.262263266079	-13.627945630468	-1.91747544310114	2.51598760352962	2.60926586541341	0.00122461814697785	0.00271646683746314
0.91	4.6940455954375	6.38727265184811	817.377063581133	-13.2912329788103	-1.93921587018779	2.52627247806274	2.61784130032072	0.00120012148520616	0.00230249905064281
0.92	4.70946068758544	6.29263164131371	817.507784672397	-12.9700746091857	-1.96089244736419	2.53644675785797	2.62633538845508	0.00117576474537915	0.00190669601646482
0.93	4.72258523617887	6.19903797897115	817.639173642075	-12.6632176641994	-1.98235044712957	2.54660084247964	2.63483818307798	0.00115167032840212	0.0015279645875967
0.94	4.7336501399092	6.10557905899092	817.756871203868	-12.3695386028625	-2.00356132499024	2.55678791273171	2.64340319951888	0.00112780953881649	0.00116534536745881
0.95	4.74284844731303	6.01160398472913	817.848155203806	-12.088146580348	-2.02461544553465	2.56702064319493	2.65204481042488	0.0011040156675398	0.000818119423882374
0.96	4.75033924277202	5.91677726181635	817.902606223561	-11.8184699110111	-2.04570896698128	2.57727026613448	2.66073790382758	0.00108000366610353	0.000485897527389577
0.97	4.75625517125571	5.82111779160152	817.912663940043	-11.5603211027907	-2.06712609992233	2.58746809310717	2.66941987360283	0.00105539466648794	0.000168687102475234
0.98	4.76071298842123	5.72502070272322	817.874047116931	-11.3139368414904	-2.08921812550838	2.59750948444014	2.67799490432296	0.00102974348097962	-0.000133067094584237
0.99	4.76382635970036	5.62926021035169	817.786015509361	-11.0799903991421	-2.11238062415936	2.60726013247006	2.68634039731783	0.00100256723453531	-0.00041847148772178
1	4.76571999430904	5.53497248106792	817.65145843787	-10.8595752053051	-2.13703033223038	2.61656439747444	2.69431526696427	0.000973373420008203	-0.000686203008498108
1.01	4.76654409402525	5.44361837977772	817.476802147032	-10.6541597056681	-2.16358292205215	2.6252553120993	2.7017697220251	0.000941685899144406	-0.000934559395588957
1.02	4.76648802913884	5.3569269471379	817.271736068842	-10.4655150797838	-2.19243280706658	2.63316575799351	2.7085560432647	0.000907067670255386	-0.00116153903588685
1.03	4.76579213246383	5.2768214567821	817.048766467593	-10.2956188311402	-2.22393582879418	2.64014022472597	2.7145397828026	0.000869139556699244	-0.00136494728798611
1.04	4.76475653360797	5.20533087963767	816.82261430988	-10.1465386236952	-2.25839540832329	2.64604649300228	2.71961074956858	0.000827594310374814	-0.00154252464764297
1.05	4.76374604555804	5.14449048230928	816.609482199735	-10.0203019424925	-2.29605246405946	2.65078654798538	2.72369311469005	0.000782205947106531	-0.00169209067834387
1.06	4.76319026785011	5.09623605161531	816.426222441228	-9.91875812706101	-2.33707913001808	2.65430602911814	2.7267539752165	0.000732834417579796	-0.00181169643695528
1.07	4.76357828612098	5.06229681454212	816.289444333456	-9.84343999702403	-2.38157607226139	2.65660156348047	2.72880975715918	0.000679425956389465	-0.00189977726725889
1.08	4.76544762396214	5.04409246545745	816.214603282208	-9.79543260408689	-2.4295730083516	2.65772541157667	2.7299299204801	0.000622009637192709	-0.00195529739202643
1.09	4.76936743252198	5.04263978408585	816.215116894527	-9.77525656483592	-2.48103189446247	2.65778697641611	2.73023754854565	0.000560690793748402	-0.00197787776496517
1.1	4.77591627392978	5.05847410578084	816.301553648499	-9.78277293733944	-2.53585216087429	2.65695088518879	2.72990655974137	0.000495642048462113	-0.00196789917737359
1.11	4.78565524868695	5.09159038346479	816.480937842693	-9.81711570818061	-2.59387734833342	2.65543154148767	2.72915546425384	0.000427092727545555	-0.00192657364802026
1.12	4.7990976118838	5.14140776945318	816.756210289534	-9.87665668738062	-2.65490252068821	2.65348425600646	2.7282377968379	0.000355317440740193	-0.00185597862078058
1.13	4.81667639137458	5.20676057474992	817.125877718258	-9.95900602358273	-2.71868189573279	2.65139328360796	2.72742957648299	0.000280624568205739	-0.00175905038036884
1.14	4.83871183309091	5.28591718047709	817.583875326851	-10.061049730253	-2.78493623649189	2.64945731123094	2.72701436347766	0.000203345330341935	-0.00163953526827938
1.15	4.86538072425502	5.37662704388451	818.119656730745	-10.1790236533509	-2.85335966808072	2.6479731395337	2.7272666884326	0.000123824019383995	-0.00150189961026078
1.16	4.89668975645052	5.47619443569898	818.718514179049	-10.3086213226748	-2.92362571900362	2.64721846630141	2.72843479988898	4.24098458674973e-05	-0.00135120160901963
1.17	4.93245506474708	5.58157605108915	819.362119921725	-10.4451312298282	-2.99539251867823	2.64743479708215	2.73072380052	-4.05492986995169e-05	-0.00119293066205713
1.18	4.9722899020261	5.68949824198653	820.029267653331	-10.583597381166	-3.06830720423293	2.64881156595152	2.73428030134486	-0.000124711033561484	-0.00103282149144686
1.19	5.01560207561961	5.79658841140304	820.696781700527	-10.7189955909572	-3.14200968976481	2.65147253777757	2.73917970680249	-0.000209740687833279	-0.000876651993746244
