Time [s]	GRFml [N]	GRFap [N]	GRFv [N]	Mml [N.m]	Map [N.m]	Mv [N.m]	Mfree [N.m]	COPml [m]	COPap [m]
0.01	25.0666723758024	-1.82344471962091	831.258886554013	-47.2757000593344	3.89167418037461	-6.13838492010498	-4.70424108575009	0.0015410866879621	-0.00363198107678867
0.02	24.6822121497849	-1.94818140504483	830.517516276186	-47.2390998502606	3.86599335274466	-5.9757163172435	-4.56272378340995	0.00151673985600344	-0.0036329357299326
0.03	24.305910678819	-2.06736999231866	829.816251712163	-47.2073983344122	3.84071316611853	-5.81639256402173	-4.42404828733726	0.00149270311405568	-0.00363075034397678
0.04	23.9448916088778	-2.17796428028538	829.177865559688	-47.1826012410881	3.81600334549629	-5.66342014593705	-4.29081191028792	0.00146905039381664	-0.0036245733492102
0.05	23.6057165956984	-2.27732263119455	828.62313223661	-47.1663720865131	3.79197448257138	-5.51958695223984	-4.16543029479227	0.0014457901580739	-0.0036138264430139
0.06	23.2941202816743	-2.36335948142617	828.169700830886	-47.1599046888903	3.76867321296474	-5.38735209126193	-4.05004268140208	0.00142286762311499	-0.00359828123906935
0.07	23.0147886464951	-2.43466747798886	827.831086997357	-47.1638211799198	3.7460809715054	-5.26875226674129	-3.94643087122889	0.00140017121577777	-0.00357811360653666
0.08	22.7711924112982	-2.49060206440575	827.615845180665	-47.1781032725131	3.72411656231737	-5.16532948852906	-3.85595607347661	0.00137754281501382	-0.00355393047692117
0.09	22.565483657923	-2.53132274106132	827.526975083934	-47.2020623845299	3.70264256347921	-5.07808357755809	-3.7795167236693	0.00135479106525412	-0.00352676596056652
0.1	22.3984598382757	-2.55778797952436	827.561605272316	-47.2343516914999	3.6814753443345	-5.00745142080387	-3.71752906126476	0.00133170685550546	-0.0034980458944816
0.11	22.2695951816705	-2.57170368560133	827.710982608116	-47.2730204640608	3.6603982227924	-4.95331334165832	-3.66993086474646	0.0013080799449935	-0.00346952225482203
0.12	22.177135454684	-2.57542799116575	827.960779538141	-47.3156083173144	3.63917704925561	-4.91502538270032	-3.63620736400191	0.00128371568213611	-0.00344318103893311
0.13	22.1182483654558	-2.57183783052402	828.291713006634	-47.3592744324203	3.61757729379001	-4.89147485431971	-3.61543708585115	0.00125845079736692	-0.00342112910200876
0.14	22.0892188708424	-2.56416506349648	828.680450040027	-47.400954563795	3.59538155390164	-4.88115527440408	-3.60635432670334	0.00123216733473426	-0.00340546689885395
0.15	22.085676423332	-2.55581171218556	829.100757040191	-47.4375368540491	3.57240630923555	-4.88225588285858	-3.6074241518827	0.00120480390471065	-0.00339815504285518
0.16	22.1028399014319	-2.55015508253473	829.524833750457	-47.4660462496832	3.54851673945962	-4.89276030847882	-3.61692533259299	0.00117636357792556	-0.00340088300108413
0.17	22.135765646703	-2.55035408364284	829.924759874313	-47.4838267151225	3.52363849917486	-4.9105487176309	-3.63303645929712	0.00114691789022629	-0.00341494808512925
0.18	22.1795846559539	-2.55916791548586	830.273973423629	-47.48871051385	3.49776550834045	-4.93349788176692	-3.65392059950227	0.00111660659432351	-0.00344115219904127
0.19	22.2297164565793	-2.57879748734743	830.548695805493	-47.4791645556822	3.47096306033026	-4.95957403768549	-3.67780426301685	0.00108563297776516	-0.00347972263119211
0.2	22.2820493806721	-2.61075851144723	830.72921987222	-47.4544051509682	3.44336585709926	-4.98691413389489	-3.70304704880623	0.00105425477727681	-0.00353026161811303
0.21	22.3330796630829	-2.65579328049156	830.800983753762	-47.4144743804731	3.41517093069028	-5.01389199590511	-3.7281991168332	0.00102277095803627	-0.00359172758024556
0.22	22.3800048092718	-2.71382580531375	830.755364987422	-47.3602735660375	3.3866257766781	-5.03916702979523	-3.75204449569387	0.00099150488835226	-0.00366244896087412
0.23	22.4207697917442	-2.78396240333437	830.59014561094	-47.2935518682581	3.35801238003733	-5.06171423928257	-3.77362914452297	0.000960784711591862	-0.00374016962420877
0.24	22.4540676277507	-2.86453714863036	830.309618512479	-47.2168506831156	3.3296281293053	-5.08083547991914	-3.792273582626	0.000930921975659742	-0.00382212291644027
0.25	22.4792985759745	-2.95319898344952	829.924327183995	-47.1334070929046	3.30176486524837	-5.09615294405618	-3.80757073632294	0.000902189797646824	-0.00390512988161614
0.26	22.4964944092251	-3.04703490765797	829.450453664159	-47.0470219856077	3.27468747470351	-5.10758680115475	-3.81937039071854	0.000874801987622793	-0.00398571584911912
0.27	22.5062158581384	-3.14272165056862	828.90889135948	-46.9619004438472	3.2486135046004	-5.11531966264504	-3.8277522434851	0.000848894604479941	-0.00406023874189478
0.28	22.5094323082713	-3.23669670830173	828.324059098697	-46.8824734976279	3.22369522896436	-5.11975106714226	-3.83299001524568	0.000824511349901843	-0.00412502203485984
0.29	22.5073931485178	-3.32533868652168	827.72252884562	-46.8132112453757	3.2000054550141	-5.12144547507756	-3.83550936214579	0.000801594017433879	-0.00417648533000139
0.3	22.5014998376625	-3.40514657239425	827.131550849919	-46.7584376254753	3.17752811367752	-5.1210773223971	-3.83584245484258	0.000779978909688516	-0.0042112659865574
0.31	22.4931868453785	-3.4729078792787	826.577565862964	-46.7221567580172	3.15615436278383	-5.11937652625419	-3.83458203763171	0.000759399739281882	-0.00422632610136529
0.32	22.4838182365845	-3.52584653037736	826.084793984631	-46.7078998086142	3.13568456159926	-5.11707748928427	-3.83233757404287	0.000739497071403208	-0.00421904030267826
0.33	22.4746049327747	-3.56174280259892	825.673983756659	-46.7185998274311	3.11583608087715	-5.11487415034928	-3.82969574177331	0.000719833889214569	-0.00418726120988264
0.34	22.4665457461898	-3.57901953596716	825.36139371791	-46.7565000957069	3.09625652234029	-5.11338302212459	-3.82718708850102	0.000699916411748735	-0.00412936092057552
0.35	22.4603932935899	-3.57679099873198	825.158062613147	-46.8230993041254	3.07654156376646	-5.11311548618371	-3.82526013475516	0.000679218909240049	-0.00404424841106529
0.36	22.4566440018837	-3.55487313955738	825.069404948897	-46.9191345443264	3.05625634574009	-5.11445993083147	-3.82426364777452	0.000657210976931801	-0.00393136417590012
0.37	22.455549748539	-3.51375630500498	825.095147003269	-47.0446007746882	3.0349590937953	-5.11767365946151	-3.82443724899703	0.000633385568065133	-0.0037906546958828
0.38	22.4571473418682	-3.45454370556016	825.229596237938	-47.1988032774672	3.01222553888957	-5.12288390598649	-3.82590999330771	0.000607286059406209	-0.00362253033696151
0.39	22.4613011150989	-3.37886084178676	825.462215865252	-47.3804377942844	2.98767266658216	-5.13009680003398	-3.82870610167112	0.000578530724485729	-0.00342781098877951
0.4	22.4677534231307	-3.28874263978778	825.778457532202	-47.5876916239528	2.96098039037785	-5.13921275069168	-3.83275666486348	0.00054683320539119	-0.00320766411842758
0.41	22.4761777944598	-3.1865061055733	826.160789938655	-47.8183580716938	2.93190990006487	-5.15004647686796	-3.83791588114898	0.000512017879622862	-0.00296353993302433
0.42	22.4862298697148	-3.07461683744085	826.589850667021	-48.0699562955302	2.90031766828453	-5.16234980854701	-3.8439802525452	0.000474029385314707	-0.0026971080292416
0.43	22.49759198822	-2.95555771590034	827.045643172683	-48.339848807927	2.86616439018377	-5.17583541100576	-3.85070914170461	0.000432935965440591	-0.00241019929667867
0.44	22.5100082764423	-2.83170754010122	827.50870099183	-48.6253496230789	2.82951846085886	-5.19019972994907	-3.8578451754008	0.000388926689885923	-0.00210475599294335
0.45	22.523308243199	-2.70523635070094	827.961146596226	-48.9238172210791	2.79055394083557	-5.20514369936828	-3.86513315561681	0.000342302986769775	-0.00178279189513855
0.46	22.5374180867303	-2.57802275466231	828.387582424828	-49.2327280277783	2.74954329833215	-5.22039007074134	-3.87233638496229	0.000293465238479521	-0.00144636333938267
0.47	22.5523600631651	-2.45159685500314	828.775765592327	-49.5497278595738	2.70684552698507	-5.23569658414834	-3.87924960638738	0.000242895455496313	-0.00109755087544415
0.48	22.5682412628857	-2.32711051223451	829.117034510968	-49.872660619209	2.66289049989642	-5.25086458040801	-3.88570807371597	0.000191137219241394	-0.000738450273465675
0.49	22.5852339197969	-2.20533475637884	829.40647390119	-50.1995753133051	2.61816061946104	-5.26574302113343	-3.89159258594173	0.00013877417622209	-0.000371170800795441
0.5	22.6035498929866	-2.08668236020737	829.642823083839	-50.5287140643741	2.57317094582059	-5.28022821635488	-3.89683061332213	8.64083677792411e-05	2.16189943380574e-06
0.51	22.6234121928375	-1.97125199667022	829.828149751125	-50.8584850967218	2.52844902821166	-5.29425983720783	-3.90139389931704	3.46395967396975e-05	0.000379401308814233
0.52	22.6450263833268	-1.85888913892145	829.967326439814	-51.1874255998022	2.48451562148967	-5.3078139997324	-3.9052931258885	-1.59531258909253e-05	0.000758376914598763
0.53	22.6685544116111	-1.74925799692326	830.06735871544	-51.5141598584125	2.44186734883637	-5.32089433668605	-3.9085703719181	-6.48272293163506e-05	0.00113689520719182
0.54	22.6940929457853	-1.64191836684543	830.13662192024	-51.8373580654134	2.40096218067506	-5.3335220251329	-3.91129017171361	-0.000111488760777669	0.0015127470089871
0.55	22.7216577040678	-1.5364013114945	830.184066841092	-52.1557008133862	2.36220835374384	-5.34572571190929	-3.91352999365928	-0.000155500806031079	0.00188372262175154
0.56	22.7511746000114	-1.43227807131744	830.218453735576	-52.4678534439875	2.32595707193601	-5.35753218542591	-3.91537091312856	-0.000196488142620164	0.00224763541139066
0.57	22.7824778726525	-1.32921747427351	830.247669044897	-52.7724532937819	2.29249903369632	-5.3689584933522	-3.91688915746634	-0.000234138371498822	0.00260235351510019
0.58	22.815314773807	-1.22702829044176	830.278170336993	-53.0681115117336	2.26206454258584	-5.38000601724514	-3.91814906550523	-0.000268199990487594	0.00294583843542096
0.59	22.8493558910591	-1.1256843647539	830.31459331664	-53.3534296499378	2.2348267006714	-5.3906568045958	-3.91919784280934	-0.000298478042197208	0.00327618845467802
0.6	22.8842098241851	-1.02533184743846	830.35954104638	-53.6270297655347	2.21090697868975	-5.40087224397425	-3.92006232052552	-0.00032482808301609	0.00359168412955409
0.61	22.9194407196727	-0.926279311518831	830.413560887396	-53.8875954354953	2.1903823181164	-5.41059396700073	-3.92074775405401	-0.000347149276462447	0.00389083266416101
0.62	22.954587103208	-0.828972889651217	830.47530017243	-54.1339199833374	2.17329285806249	-5.41974668673036	-3.92123854029562	-0.000365377414889689	0.00417240774980229
0.63	22.9891805215718	-0.73395968100523	830.541818303041	-54.3649574351596	2.1596493972071	-5.42824254756873	-3.92150059961655	-0.000379478621684894	0.00443548152119633
0.64	23.0227626914114	-0.641843494419812	830.609021749684	-54.5798713236218	2.14943979351746	-5.43598647498646	-3.92148506889885	-0.000389444386603682	0.00467944561340123
0.65	23.0549001240457	-0.553237452766677	830.672180083203	-54.7780764746808	2.14263366147532	-5.44288197764444	-3.92113289003273	-0.000395288445764006	0.00490401889276789
0.66	23.0851955204651	-0.468718058995275	830.726476218524	-54.9592693425917	2.13918493165084	-5.44883686918	-3.92037985555017	-0.000397045842436294	0.00510924024218901
0.67	23.1132955762638	-0.388785019282329	830.767542791823	-55.1234432710731	2.13903207081236	-5.45376843677049	-3.91916168812251	-0.000394774304352419	0.00529544575238756
0.68	23.1388951721509	-0.313830463916441	830.791939039705	-55.2708861897569	2.14209600080591	-5.45760768010081	-3.91741877870454	-0.000388557859398253	0.00546323074015032
0.69	23.1617382264182	-0.244120258772392	830.797528455977	-55.4021596170834	2.14827598023436	-5.46030236635023	-3.91510028215484	-0.000378512398300573	0.00561339810498704
0.7	23.1816157319827	-0.179788938102831	830.783726375741	-55.5180593273093	2.15744390611847	-5.46181878164814	-3.9121673604733	-0.000364792696223998	0.00574689556715265
0.71	23.1983616799244	-0.1208485078783	830.75159777571	-55.6195595339488	2.16943763897613	-5.46214219419111	-3.90859546282495	-0.000347600241676721	0.0058647452233974
0.72	23.2118476780373	-0.0672100725853664	830.70379812288	-55.7077438275582	2.18405404502664	-5.46127616674807	-3.90437562878075	-0.000327191106239516	0.00596796954108292
0.73	23.2219771069847	-0.0187160336808567	830.644363092286	-55.7837272732889	2.20104248000355	-5.45924095627199	-3.89951488809583	-0.000303883034589334	0.00605751832891344
0.74	23.2286796231225	0.0248204049386462	830.578365421457	-55.8485749305563	2.220099412204	-5.45607130798193	-3.89403589983103	-0.000278060948108503	0.00613420133449563
0.75	23.2319067242914	0.063572423807118	830.511468129254	-55.9032225342932	2.24086480442377	-5.45181398578596	-3.88797602072837	-0.000250180137487795	0.00619863090825633
0.76	23.2316289535225	0.0976578578064933	830.449411966207	-55.9484051336175	2.26292075538186	-5.44652537871851	-3.88138601482935	-0.000220766563439636	0.00625117864658137
0.77	23.227835137548	0.127102949206657	830.397480620475	-55.9845991093551	2.28579275343449	-5.44026948578295	-3.87432861310581	-0.000190413876542898	0.00629194911450146
0.78	23.2205338548446	0.151815603027446	830.359989437882	-56.0119822081252	2.30895373203141	-5.4331165137561	-3.86687710532001	-0.000159776988714929	0.00632077270131976
0.79	23.2097571144334	0.171571416460313	830.33984204102	-56.0304150886945	2.33183095035463	-5.425142231126	-3.85911410034999	-0.000129562258272193	0.00633721845040169
0.8	23.1955660144982	0.186014694768671	830.338194336704	-56.0394464530426	2.35381556537239	-5.41642811525156	-3.85113053125749	-0.000100514566252023	0.006340626408752
0.81	23.1780579513455	0.194675377352063	830.354257335257	-56.0383422275689	2.37427462238787	-5.40706221906592	-3.84302491397464	-7.3401744562834e-05	0.00633015775159974
0.82	23.1573747758475	0.197001383839383	830.385259564038	-56.0261375804713	2.39256507656311	-5.3971405785825	-3.83490280076293	-4.89969526951206e-05	0.00630485974102955
0.83	23.1337111567204	0.19240446933969	830.426577436983	-56.001708927057	2.40804937137976	-5.38676889309186	-3.82687630874124	-2.80596820362846e-05	0.00626374155880499
0.84	23.1073223167347	0.180316372573961	830.472028680417	-55.9638616013199	2.42011204221094	-5.37606414506526	-3.81906355651198	-1.13160955014977e-05	0.00620585628304868
0.85	23.0785302663977	0.160250966192537	830.514310825327	-55.9114276653689	2.42817678228325	-5.36515579334302	-3.81158781396262	5.60607871878845e-07	0.00613038381042744
0.86	23.0477276748925	0.131867373653471	830.545554867822	-55.8433674767756	2.43172340061475	-5.3541861756606	-3.80457616592439	6.96916658703443e-06	0.00603670939304919
0.87	23.0153785929843	0.0950286736234425	830.557954402777	-55.7588682025571	2.43030411228674	-5.34330979656177	-3.79815751185102	7.3980049468121e-06	0.00592449267229236
0.88	22.9820153776156	0.049850909467323	830.544423629069	-55.6574324937692	2.42355862572313	-5.33269125278636	-3.79245977112219	1.44127105494544e-06	0.00579372263638087
0.89	22.948231360675	-0.00326234097877709	830.499234172549	-55.5389510217151	2.41122752519516	-5.32250165572988	-3.78760623464453	-1.11872479717071e-05	0.00564475476835339
0.9	22.9146690493962	-0.0636036384377832	830.418580979703	-55.4037534986908	2.39316348643343	-5.31291354210304	-3.78371109334939	-3.06426882998481e-05	0.00547832773029275
0.91	22.8820039337662	-0.130166127050233	830.301031619606	-55.2526341056707	2.36933990746481	-5.30409440955416	-3.78087427593559	-5.69404635848889e-05	0.00529555817719513
0.92	22.8509242937137	-0.201669773891801	830.147820923867	-55.0868488424215	2.33985658564762	-5.2961991619864	-3.7791758328462	-8.99507005703926e-05	0.00509791362860309
0.93	22.8221077277447	-0.276608807437986	829.962963453351	-54.9080840973191	2.30494212678762	-5.28936188677136	-3.7786702007508	-0.000129396029673612	0.00488716466277894
0.94	22.7961954429192	-0.353318157196522	829.753169036761	-54.718397586111	2.26495283554578	-5.28368750008452	-3.77938076095182	-0.000174852987901578	0.00466531895296949
0.95	22.7737656281994	-0.430055237817652	829.527560639986	-54.5201346072261	2.22036791082335	-5.27924387517061	-3.78129515580773	-0.000225757264110639	0.00443454076138925
0.96	22.7553074523033	-0.505092218980226	829.297208059092	-54.3158241856931	2.17178085787475	-5.27605510155141	-3.78436184066346	-0.00028141296783469	0.00419706037882879
0.97	22.7411973572786	-0.576813068570441	829.0745043294	-54.1080610200475	2.11988713211968	-5.27409650419804	-3.78848831874637	-0.000341006024273568	0.00395507859670245
0.98	22.7316793378891	-0.643809212749734	828.872423317903	-53.8993801182689	2.06546814815517	-5.27329197770483	-3.79354143053806	-0.000403621684542437	0.00371067159249799
0.99	22.7268507891956	-0.704967649890706	828.703705866125	-53.6921315471441	2.00937191967365	-5.27351406336752	-3.79934994920888	-0.000468265991358113	0.00346570158719177
1	22.7266552645222	-0.759545778005979	828.580027430133	-53.4883627918746	1.9524907382358	-5.27458702352472	-3.80570957652958	-0.000533890860431373	0.00322173830219066
1.01	22.7308831188417	-0.807228005654136	828.511202031162	-53.2897158285412	1.89573644548992	-5.27629295901875	-3.81239025061216	-0.000599422236452714	0.00297999563030232
1.02	22.7391805363578	-0.84816034427985	828.504475372506	-53.0973451817778	1.84001399705254	-5.27838078767404	-3.81914548313125	-0.000663790573637321	0.00274128708299189
1.03	22.7510668855166	-0.882960534238382	828.563954369989	-52.9118620326771	1.78619414809534	-5.28057767271914	-3.82572325718284	-0.000725962691421863	0.00250600254066895
1.04	22.7659597498187	-0.912702733765854	828.690211527635	-52.7333079398867	1.73508620119809	-5.28260227994156	-3.83187785629429	-0.000784973884510938	0.00227410767884909
1.05	22.7832063957156	-0.938877293392165	828.880091240591	-52.5611600392093	1.68741183666616	-5.2841790705061	-3.83738187768226	-0.000839959040705326	0.00204516624002369
1.06	22.8021199096414	-0.9633275473263	829.126732071337	-52.3943678021819	1.64378108544667	-5.28505271986375	-3.84203762265329	-0.000890181454566196	0.00181838413785059
1.07	22.8220178131903	-0.988166791467741	829.419805274903	-52.2314196717945	1.60467149767552	-5.28500170489533	-3.84568706282821	-0.000935058030084967	0.00159267328075022
1.08	22.8422606903897	-1.01567961765908	829.745956323808	-52.0704362572154	1.57041150060124	-5.2838501284897	-3.84821965494819	-0.00097417964546877	0.00136673204099699
1.09	22.862288264759	-1.04821249125075	830.089423834277	-51.9092853496787	1.54116882577971	-5.28147695355867	-3.8495774147541	-0.00100732560617168	0.00113913851549196
1.1	22.8816504628438	-1.08805887365609	830.432799932081	-51.7457128909752	1.51694471784241	-5.27782199046505	-3.84975685068884	-0.00103447133107246	0.000908452153882224
1.11	22.900031295118	-1.13734430585148	830.757888350682	-51.5774832349617	1.49757442009208	-5.27288820992662	-3.84880758458819	-0.00105578868944249	0.000673318981983861
1.12	22.9172638574078	-1.19791670506535	831.046611837364	-51.4025216185754	1.48273417346687	-5.26674021930406	-3.84682772938725	-0.00107163871832381	0.000432575523051065
1.13	22.9333353730125	-1.271246722938	831.281918924122	-51.2190517064077	1.47195467614872	-5.25949902188158	-3.84395633233933	-0.00108255678496502	0.000185346604055059
1.14	22.9483819105729	-1.35834241707432	831.448641726616	-51.025721375312	1.46464064528083	-5.25133345292527	-3.84036340655161	-0.00108923060069322	-6.88674919606252e-05
1.15	22.962673168691	-1.45968175162184	831.534260871394	-50.821710528471	1.46009581612463	-5.24244893026356	-3.83623824696915	-0.001092471825373	-0.000330118628765932
1.16	22.9765884535836	-1.57516561816745	831.529540439411	-50.6068156239739	1.45755242506891	-5.23307435090695	-3.83177684676766	-0.0010931823108601	-0.000597956701840575
1.17	22.9905856293147	-1.70409320276904	831.42900433914	-50.3815067144734	1.45620396897037	-5.22344809328422	-3.82716928896483	-0.00109231630421187	-0.00087139664570815
