Time [s]	GRFml [N]	GRFap [N]	GRFv [N]	Mml [N.m]	Map [N.m]	Mv [N.m]	Mfree [N.m]	COPml [m]	COPap [m]
0.01	3.25338170820011	2.32542656632944	916.196161845524	4.09981315317824	-16.4467403403896	1.64005818054247	-1.58381623513461	-0.00303032057481589	-0.00259237956463171
0.02	3.18391782616481	2.36157128941844	916.106259578278	3.96217563711673	-16.6846125153334	1.59079345014961	-1.53382059270476	-0.00318320835268004	-0.00285281679477567
0.03	3.13285706087766	2.37849549549753	915.904721110572	3.82522418931106	-16.9116213664192	1.54612578628469	-1.48876466133466	-0.00333463134500567	-0.00310414576853663
0.04	3.13489790394361	2.35588116844244	915.50912920357	3.69373623983667	-17.1258420284954	1.51052315261372	-1.45340975140679	-0.00347871062383831	-0.00334663235248722
0.05	3.21981726376355	2.28163862998096	914.85152262652	3.57111791354523	-17.3218421133447	1.48667396068983	-1.43060780319923	-0.00361130203408244	-0.00357612934546742
0.06	3.40425106574818	2.15492966024291	913.875093110391	3.45788029342939	-17.4880904659537	1.47493981554132	-1.42072411878864	-0.00373174351434913	-0.00378110371602608
0.07	3.68242833405648	1.98732549795203	912.532956150888	3.35045978552805	-17.6057375573507	1.47327349371715	-1.42155835981075	-0.00384417806367898	-0.00394119455141634
0.08	4.01864328031293	1.80195521956489	910.793265298069	3.24075953525701	-17.6491764717369	1.47759092413395	-1.42874900965465	-0.00395803212770574	-0.00402773014034385
0.09	4.34515796436001	1.63070190981261	908.653519933929	3.11676853327842	-17.5887101792758	1.48250172150995	-1.43655629857028	-0.00408725923135911	-0.0040065549650799
0.1	4.56868771954296	1.50969684025076	906.163523691055	2.96445486778706	-17.3953761733681	1.48225680139187	-1.43886985350163	-0.00424814374858196	-0.00384323988640944
0.11	4.58644778587842	1.47358391442573	903.451712897537	2.77081715656608	-17.0474279815645	1.47176372052237	-1.43028036055367	-0.00445581130296946	-0.0035101737920249
0.12	4.309457936066	1.54928239999797	900.745058537748	2.52756465307338	-16.5372527537539	1.44753247752849	-1.40707023764092	-0.0047200518489251	-0.00299427046554013
0.13	3.68754683508536	1.75022091732123	898.370574845277	2.23451137480412	-15.8768999656616	1.40842552001922	-1.36799374673074	-0.00504148487861955	-0.00230336654499513
0.14	2.72862227288858	2.07216235134056	896.728484060873	1.90159047859693	-15.1002510093024	1.3560884076744	-1.31472287158396	-0.00540928771890192	-0.0014691961853518
0.15	1.50529670002789	2.49168510888458	896.233852551558	1.54857045831808	-14.260402208649	1.2949454950686	-1.2518440552347	-0.00580150538037205	-0.000545353250470726
0.16	0.145078489653468	2.96805768915692	897.23365888129	1.20211376454812	-13.422035719617	1.23168351632293	-1.1863283291632	-0.00618833414316766	0.000400124123457635
0.17	-1.19476110066108	3.4486428152731	899.916610568697	0.890621901893985	-12.6500863371373	1.17423206723544	-1.12648212938972	-0.00653787715256071	0.00129631607781261
0.18	-2.36148245222047	3.87719513889595	904.23964665766	0.638083121570349	-11.997348700558	1.13037413044808	-1.08051058299185	-0.00682301488727921	0.00208247477731532
0.19	-3.24081779885893	4.20365721274516	909.894791682139	0.458577662364011	-11.4942847271683	1.10624350197756	-1.05495189236301	-0.00702755000538502	0.00271920568017692
0.2	-3.78073491671736	4.39352855087787	916.33192475313	0.353010289435865	-11.1438914162906	1.10503865632355	-1.05331956834128	-0.00714988434822084	0.0031947421221234
0.21	-3.99819729767282	4.43476152848672	922.838970606765	0.309041292510166	-10.9231487661551	1.12626765524201	-1.07528008744846	-0.00720315193979082	0.00352459014421774
0.22	-3.9673944091365	4.34050685624448	928.665147036281	0.304282279420422	-10.7907114167508	1.16573245679225	-1.11659066422305	-0.00721173467711977	0.00374469378398135
0.23	-3.79364780186365	4.14684320925319	933.160146788804	0.311920003421403	-10.6987445498386	1.21629294395487	-1.16985256177085	-0.00720508552901922	0.00390008919732909
0.24	-3.58136685922819	3.90571368700125	935.896477052154	0.307308624140187	-10.605691663264	1.26926830297399	-1.22594617204926	-0.00721046981646223	0.00403220439709184
0.25	-3.40570600297479	3.67441064754982	936.745378073215	0.273880553769116	-10.4866082505226	1.31618147336725	-1.27585168123727	-0.00724644172486777	0.00416819213545355
0.26	-3.29576977618845	3.50383017623894	935.887893043343	0.206968885606719	-10.3384824149162	1.35046361808584	-1.31245875012009	-0.00731860237067861	0.00431496121735764
0.27	-3.23320906957531	3.42812006000127	933.758663164466	0.11469706453427	-10.1793952064589	1.36872832708118	-1.33195232072594	-0.00741856495005777	0.00445918464942335
0.28	-3.16533654125644	3.45812239951908	930.936594799548	0.0158098010540874	-10.0420120218991	1.37130679142671	-1.33443976618189	-0.00752626436960169	0.00457294662797825
0.29	-3.02792301417082	3.5801610378057	928.009430059841	-0.0649719140098636	-9.96331035779587	1.36189975287563	-1.32365288796318	-0.00761497531729372	0.00462327474429258
0.3	-2.77058353465568	3.76042059925148	925.44526519293	-0.102932431982857	-9.97332092679442	1.34642358619091	-1.30578982606812	-0.00765779943669653	0.00458290608596396
0.31	-2.37743031353726	3.95374335423148	923.501805385952	-0.0792492279290015	-10.0858307589139	1.33135445603298	-1.2878018696892	-0.00763406959711344	0.00443941560391448
0.32	-1.87723140370671	4.11454066767203	922.194270649424	0.0145995050349186	-10.2934684762059	1.32203514248284	-1.27560346739077	-0.00753417029511028	0.00420029820400664
0.33	-1.34013962759728	4.20702447609008	921.327869180536	0.174910573801731	-10.5684974586477	1.32143753990412	-1.2727205711136	-0.00736168911077806	0.00389262006969154
0.34	-0.861506133859228	4.21226678885775	920.58435727619	0.386679766206722	-10.8692214397042	1.32974052995068	-1.27976147727715	-0.00713250197994741	0.00355721562996719
0.35	-0.536690095186586	4.13059025423726	919.638476276869	0.627013252047471	-11.1504712399451	1.34481826164162	-1.29482617265271	-0.00687117379813684	0.00323880697530171
0.36	-0.433412630132017	3.97915397173451	918.272442230726	0.870059010035771	-11.3755292360507	1.36342545980208	-1.31465436203419	-0.00660570390769954	0.00297453353018434
0.37	-0.569384733383465	3.78589364842961	916.457162200304	1.09217841163176	-11.5263573164189	1.3826275659927	-1.33606461263572	-0.0063619780397578	0.0027839052971203
0.38	-0.902139571009869	3.58181978246698	914.377509192665	1.27613594463299	-11.6093011679793	1.40094660568442	-1.35715166387048	-0.00615922602356678	0.00266294937690364
0.39	-1.335104454085	3.39386162095675	912.393813188839	1.41346376918981	-11.6545346932712	1.41881049937855	-1.37781881126971	-0.00600738426210079	0.00258430737600013
0.4	-1.73947071848661	3.23998532684816	910.949048325329	1.50470806371784	-11.7091480195527	1.43816129552449	-1.39948498870118	-0.00590668453690901	0.00250347883557095
0.41	-1.98653438757284	3.12742748674137	910.446457989951	1.55780181502931	-11.8255478480043	1.46139572869916	-1.42412127125907	-0.00584923075284316	0.00236969853086599
0.42	-1.98146158753153	3.05389300779418	911.131241771125	1.5851863078502	-12.0482207689037	1.49006022301558	-1.45302017446794	-0.00582193481923488	0.00213857769963377
0.43	-1.68832529018135	3.01078564830273	913.009600490895	1.60045588879499	-12.4024650129446	1.52380999735401	-1.48579201497886	-0.00581002469313974	0.00178306600800754
0.44	-1.13846153835712	2.98717727508547	915.828567783663	1.61524917893275	-12.8882012170136	1.56003867335389	-1.51998631350307	-0.00580038363132451	0.00129972563626163
0.45	-0.419235176128215	2.97331901291445	919.123178939702	1.63693118100974	-13.4805272154619	1.5943340328455	-1.55149524393385	-0.0057841481621268	0.000708663520348374
0.46	0.353416392876568	2.96293032230642	922.318469807268	1.66738883131248	-14.1367036423851	1.62161556454487	-1.57560672879191	-0.00575819910450937	4.73454483666536e-05
0.47	1.06997179541949	2.95404734651374	924.858264163323	1.70305209008274	-14.8073617823016	1.63757364158332	-1.58834767738348	-0.00572537695460917	-0.000639672923577139
0.48	1.65872309521303	2.94864822171047	926.325438436913	1.73606746687448	-15.4485206882941	1.63994179437931	-1.58767359058397	-0.0056934360846469	-0.00131190136720094
0.49	2.10379123100033	2.95147680527568	926.521551749718	1.75637988846599	-16.0308733551141	1.62921356149456	-1.57413853022988	-0.0056729400969443	-0.00194161841362123
0.5	2.44454242057856	2.96847325599053	925.486334137026	1.75431580001064	-16.5437774385504	1.60861807878286	-1.55087337116739	-0.00567449981775503	-0.00251768806412284
0.51	2.75731035316779	3.00510974729273	923.455576847242	1.72312732071775	-16.993124357838	1.5834063092073	-1.52292446914354	-0.00570593467802027	-0.00304368034559799
0.52	3.12584238706985	3.06485445351672	920.77390187332	1.66090531349227	-17.3941828978832	1.55968446133603	-1.49617472329961	-0.00577003042144897	-0.00353128602375485
0.53	3.61001206692542	3.14800086677568	917.791287907232	1.57135406770189	-17.7620087318068	1.54311099062696	-1.47613728570343	-0.00586349888247617	-0.00399141872037284
0.54	4.22228302134462	3.25114690899444	914.775479535379	1.46316466695691	-18.1026385784936	1.53774874256789	-1.46688315571542	-0.00597748642127416	-0.00442599660245041
0.55	4.91852542941589	3.3675728171247	911.865746369113	1.34808921298056	-18.4079028875953	1.54527487253924	-1.47028038994015	-0.00609956737791617	-0.00482306152624179
0.56	5.60528301730203	3.48856685525169	909.079168937045	1.23820240879728	-18.6554670435172	1.56465051763395	-1.48563601235504	-0.0062167134696357	-0.00515678615624932
0.57	6.16097270539509	3.6054139932762	906.363290852449	1.14310798962946	-18.8140597538392	1.59227483022776	-1.50977262506682	-0.00631840371920245	-0.00539241136666657
0.58	6.46503653277947	3.71144174130605	903.674049914785	1.06789418586964	-18.8522783614078	1.62259748105666	-1.53753743586799	-0.00639896395328676	-0.00549470365905125
0.59	6.42746230851795	3.80339604120535	901.050027445836	1.01242641390305	-18.7483274478476	1.64911925930161	-1.56270516731265	-0.00645844984206978	-0.00543753125558633
0.6	6.01145065394006	3.88161123327066	898.655624273642	0.97214615997464	-18.4978209131571	1.66564913296423	-1.57917224756701	-0.00650185031191297	-0.00521187772039616
0.61	5.24399103936122	3.94889907314134	896.776179337217	0.940065263226108	-18.1173848009024	1.66760686546772	-1.58224780279667	-0.00653692953063345	-0.00483008354491565
0.62	4.21213603988172	4.00861815338646	895.763890278544	0.909278578310984	-17.6430270323283	1.6530927679261	-1.56976204330273	-0.00657144770971752	-0.00432516431528668
0.63	3.04615161637981	4.0627431901493	895.949556305485	0.875200325527913	-17.1237145120773	1.62343863972652	-1.54268956603617	-0.00661064764166686	-0.00374538530927332
0.64	1.89376402935895	4.11075250428143	897.546449349171	0.836897081297437	-16.6118898338583	1.58304392328515	-1.50506688302106	-0.0066557190831652	-0.00314550420789317
0.65	0.891745314872559	4.14978132514652	900.575450241075	0.797262334741659	-16.1534116645533	1.53848544023787	-1.46316913022314	-0.00670354408735296	-0.00257689518051835
0.66	0.141554067423181	4.17591834492885	904.834174098161	0.762188597182481	-15.7794261691814	1.49711245005698	-1.42414328564301	-0.00674756717040459	-0.00207893667843079
0.67	-0.305520252246864	4.18601995824053	909.919407227036	0.739169227283265	-15.5020004042762	1.46551155921141	-1.394480156987	-0.00677932075172627	-0.00167356142389452
0.68	-0.450991558791324	4.17921246415785	915.296294135576	0.735803338296541	-15.3142053200268	1.44826632592443	-1.37875790093128	-0.00679008320239705	-0.00136389678043486
0.69	-0.340298592391174	4.15743231444159	920.394536809061	0.758504529487202	-15.1940889256477	1.44731534755433	-1.37897352641036	-0.00677233307494196	-0.00113677186395106
0.7	-0.0461963724206645	4.12482055682888	924.705482292816	0.811455942939893	-15.1110079768843	1.46197644184899	-1.39454133186837	-0.00672094706673121	-0.00096788487996835
0.71	0.350050193824574	4.0863137501016	927.856006201569	0.89567580677048	-15.0323628160027	1.48945777325206	-1.42278508531963	-0.0066342865073884	-0.000827894539016827
0.72	0.774240520080841	4.04611872775159	929.64428611449	1.00807345699061	-14.9289873961294	1.52553249130014	-1.45960039869535	-0.00651529954174235	-0.0006877487366862
0.73	1.1679773912595	4.00678012001982	930.035350114413	1.14058702529649	-14.7781577893627	1.56507623330247	-1.49998274791888	-0.00637253154243389	-0.000522121657755337
0.74	1.48978969262926	3.96926120940912	929.126207094461	1.27978299047429	-14.564114865351	1.60233931893822	-1.53828888557108	-0.00622061513589389	-0.000310663086067697
0.75	1.71062418699656	3.93400868569286	927.097605037973	1.4074810842548	-14.2768183856111	1.63105619216981	-1.56833289470959	-0.0060796079527532	-3.75628473504586e-05
0.76	1.8074260059244	3.90256070462987	924.170116046066	1.50288427451519	-13.9100958483935	1.64466246784976	-1.58358969755192	-0.00597264064127556	0.000309572508015665
0.77	1.75867314286868	3.87904216654689	920.576811524592	1.54629000170969	-13.4603074410895	1.63690192915455	-1.57779344032755	-0.00592178861046022	0.000740488288275276
0.78	1.54433396226534	3.87092282254859	916.555818485035	1.52383751071804	-12.9261852713397	1.60294160088996	-1.54605412835109	-0.00594277483277006	0.00126203044923762
0.79	1.15039390678245	3.88863745661923	912.357116225092	1.43214278470008	-12.309832962047	1.54083571552141	-1.48633624726266	-0.00603978521129489	0.00187683112319642
0.8	0.5758004035748	3.94397140679242	908.252330844948	1.28136803535008	-11.6182675219949	1.45291005026227	-1.40086987929761	-0.00620201956253341	0.00258149027228843
0.81	-0.161658660884606	4.0473993580691	904.535856155812	1.09546691335708	-10.8645886250888	1.34650507309666	-1.29692768018561	-0.00640338678961294	0.00336514809302046
0.82	-1.02382974322758	4.20478844632282	901.510163216258	0.909051761925474	-10.0679831928474	1.23360047420906	-1.18648207747535	-0.00660596760882537	0.00420927193304349
0.83	-1.95661830035181	4.41405154370755	899.455552702666	0.761337767611905	-9.25225467549268	1.12914159411197	-1.0845535494179	-0.00676674234412655	0.00508903514806008
0.84	-2.89944313938593	4.66248671846041	898.591728052382	0.688571770038742	-8.44319330945219	1.04830809197324	-1.00648134328986	-0.00684601451206923	0.00597603699722354
0.85	-3.7965190650105	4.92564200565011	899.042536677362	0.716886306708254	-7.66559563039298	1.00335748870575	-0.964743287523086	-0.00681536060161791	0.00684158166395721
0.86	-4.60575692555353	5.16850968079055	900.814552860794	0.857420123014346	-6.940872762821	1.00088949062425	-0.966170029364828	-0.00666304175351173	0.00765954408709946
0.87	-5.30188387694402	5.34955922801209	903.795342896789	1.10484963298004	-6.28589228311533	1.04031746932232	-1.01034687415049	-0.00639558850317712	0.00840809220053423
0.88	-5.87279564070381	5.42749813236453	907.770460483591	1.43944889380983	-5.71311206000247	1.11400563670425	-1.08967651682649	-0.00603541970321853	0.00907009766133693
0.89	-6.31117938842322	5.369785122013	912.452391778539	1.83182123688452	-5.23146428664951	1.20904052321657	-1.19109206045966	-0.00561545438809097	0.00963268081037505
0.9	-6.60574529088139	5.1610657236878	917.512155822478	2.2488582628627	-4.84712455255112	1.31012362218812	-1.29892906746977	-0.00517234478787898	0.0100867017791899
0.91	-6.7368567707733	4.80921326444327	922.605829491974	2.65943351045777	-4.56341439927504	1.40276729932658	-1.39815452396219	-0.00474002536396656	0.0104269491089687
0.92	-6.67960152654451	4.34685138091677	927.392811209876	3.03875270135774	-4.37958556453377	1.47594907688667	-1.47711030146023	-0.0043448160200199	0.0106533202368889
0.93	-6.4140362835195	3.82720529643353	931.547811199112	3.37091430453587	-4.28888457998227	1.52362417026714	-1.52915604701072	-0.00400260793769269	0.0107726566445334
0.94	-5.93887136172333	3.31466871020919	934.771903498778	3.64979505631025	-4.27679416248242	1.54490551918292	-1.55298995943002	-0.00371801907239322	0.0108003911503982
0.95	-5.28280018680079	2.87210061736893	936.80807128887	3.87866613219389	-4.32046534667335	1.54313375891752	-1.55183122356787	-0.00348505892580975	0.0107610207628441
0.96	-4.50803309128045	2.54800118756746	937.463688420477	4.06893281087681	-4.39003800389444	1.5243300317574	-1.53192268961347	-0.00328883350297815	0.0106867024440178
0.97	-3.70333049240621	2.36691259634854	936.637832164601	4.2381946179559	-4.45192849431815	1.49557764687496	-1.50088205742448	-0.00310802341900385	0.0106138635510483
0.98	-2.96785042380283	2.32553252447979	934.34728134381	4.40763902780125	-4.47348781667884	1.46373490331781	-1.46630989206042	-0.00291806789152771	0.0105783870374025
0.99	-2.39074201127298	2.39538611411459	930.743184127423	4.59877118360812	-4.42795420244849	1.43463686626274	-1.43484086654214	-0.00269500518237786	0.0106104237269495
1	-2.03310215662555	2.53103358818828	926.111323737254	4.82968978588476	-4.29850249654746	1.41271952929709	-1.41161329534844	-0.00241970242505452	0.0107300331753132
1.01	-1.91797588545302	2.6813201579456	920.852211505776	5.11145184722064	-4.08045006359067	1.40088566219533	-1.40001648104152	-0.00208185412964557	0.0109446290820032
1.02	-2.03096014232918	2.80055761111874	915.441716352107	5.44533991328819	-3.7812027645009	1.40045102474498	-1.40157981730595	-0.00168284318427936	0.0112487055962555
1.03	-2.33002015072054	2.85689337237848	910.377258555585	5.82186709389703	-3.41812165271831	1.41111787696667	-1.4159536787066	-0.00123654860329825	0.0116257314916461
1.04	-2.76000419305378	2.83625864337035	906.117715306962	6.22203716165087	-3.0149641290298	1.43103791799503	-1.4410270743293	-0.000767552469389532	0.0120516146941492
1.05	-3.26628012035389	2.74174380519188	903.026572359069	6.62078307418848	-2.59777213590188	1.45707510999855	-1.47326489742647	-0.000306874254186518	0.0124988939034513
1.06	-3.803203951331	2.5895240455082	901.327445181503	6.99184281409659	-2.19102213436168	1.48533155880612	-1.50830280546593	0.000113885378215661	0.0129408371899438
1.07	-4.33602446838796	2.40317058760215	901.079134130876	7.31285846119251	-1.81459816714482	1.51188415182776	-1.54173486906338	0.000468572449130567	0.0133548469665791
1.08	-4.83792483053057	2.20818729265961	902.174289523856	7.56940358181195	-1.48183919165488	1.53356131035806	-1.5699260229163	0.000741169750890114	0.0137248546234462
1.09	-5.28579652265077	2.0280209589612	904.36204583381	7.75699953819359	-1.19867545291076	1.54853499606004	-1.59063671889624	0.000928049246345708	0.0140426103312252
1.1	-5.65825880141812	1.8819128494425	907.291182128691	7.88083641138823	-0.96377045988503	1.55654698943503	-1.60328990987053	0.00103744599286415	0.0143078716809127
1.11	-5.93756307649709	1.78416489337366	910.56702116511	7.95361127120574	-0.769600667688274	1.55871503975582	-1.60882594407543	0.00108663118048946	0.0145274939407822
1.12	-6.11437736013018	1.74398746863728	913.812883166287	7.99237283632345	-0.604441514418315	1.55701742732655	-1.60922913968396	0.00109783875916569	0.0147134166495529
1.13	-6.19238637672044	1.76518808230741	916.725852089499	8.01536428768058	-0.455179902295892	1.55366428006889	-1.60691017409615	0.00109415399209067	0.0148796292229098
1.14	-6.18921910164355	1.84543715501378	919.117148850246	8.03960051567912	-0.310684280058275	1.55058138794591	-1.60414876166168	0.00109630877179623	0.015038431524899
1.15	-6.13169072378211	1.97543049372739	920.929636654114	8.07946228645129	-0.165172784395401	1.54915160041349	-1.60273712165058	0.00112081720247337	0.01519663589227
1.16	-6.0460773398494	2.13865203041333	922.228801336903	8.1461544423851	-0.0207577143952081	1.55022081178998	-1.60385146135895	0.00117936424825116	0.0153526429356405
1.17	-5.94686995242578	2.31243520382212	923.16855378197	8.247629006033	0.111720240759759	1.55424775609911	-1.6080731462449	0.00127902468438645	0.0154953852431218
1.18	-5.8288672189328	2.47063361456084	923.938609763214	8.38857495221349	0.214198949644488	1.56142194229511	-1.61543477635597	0.001422815731423	0.0156058430677029
