Time [s]	GRFml [N]	GRFap [N]	GRFv [N]	Mml [N.m]	Map [N.m]	Mv [N.m]	Mfree [N.m]	COPml [m]	COPap [m]
0.01	-5.45038094685301	0.0979863579908338	761.746034277701	7.41821864865801	23.1169437396781	0.517513917421071	-0.573744054343394	-0.00308303968808132	-7.46679206988787e-05
0.02	-4.80179893741671	0.124791672733755	764.702185277792	7.61716827260891	22.8961455776072	0.634198600393905	-0.685514163976376	-0.00286121234373926	-0.000473278355769824
0.03	-4.1288724171167	0.141219571736564	767.388155711893	7.80218939789789	22.6598261339408	0.737697594343729	-0.783436725747336	-0.00265418274311169	-0.000881789155018964
0.04	-3.41790740800354	0.135994267681098	769.55266181449	7.96171608907137	22.3978207558837	0.816975201141895	-0.855928048872149	-0.00247383954199831	-0.00130395673244782
0.05	-2.67502118516641	0.098604311837293	771.000470386338	8.08858572040574	22.1066920228294	0.864242867730483	-0.894930192274135	-0.00232695080621603	-0.00173704715443362
0.06	-1.92726667976554	0.020589966468157	771.619642997086	8.18098158998678	21.790439563955	0.875943069050061	-0.896950722653852	-0.00221429012341012	-0.00217193089221474
0.07	-1.21686348599737	-0.102461611175655	771.402333976047	8.2421480020955	21.4593434838392	0.853093692227065	-0.863394231616259	-0.00213132316216602	-0.00259529182708629
0.08	-0.590838549356673	-0.268688244204958	770.45248720057	8.2790095717355	21.1274216249784	0.8008862903126	-0.800092280203768	-0.00207018069135667	-0.00299309817997562
0.09	-0.0895134456141287	-0.468254321050204	768.975257594235	8.30013003669204	20.8092810756982	0.727587369378417	-0.716102155462978	-0.00202225724725047	-0.00335416779116327
0.1	0.262845916598522	-0.682974623156406	767.247065464633	8.31359969686043	20.5171772628004	0.642959126688722	-0.622011988251183	-0.00198062658610798	-0.00367277598695603
0.11	0.462957819198261	-0.887801402926712	765.570356544132	8.32540260812555	20.2589117137978	0.556536955499982	-0.528106064562873	-0.00194159051703224	-0.00394967476202052
0.12	0.528258829511735	-1.05424646019759	764.221567481411	8.33862002766056	20.0368984858169	0.476137035389544	-0.442774886127231	-0.00190500338516819	-0.00419142729498101
0.13	0.492094625338762	-1.15525444914693	763.403026388993	8.35355664751333	19.8484118805453	0.406908181002016	-0.371491899614791	-0.00187341011761577	-0.0044084312277175
0.14	0.396023840384975	-1.17056235750581	763.208899268974	8.36861879793487	19.6867741190576	0.351103921777003	-0.316539352221878	-0.00185037344750294	-0.00461228785333484
0.15	0.281315206458789	-1.09131662731527	763.612104106735	8.38159544774387	19.5430929514825	0.308568420855553	-0.277483104756542	-0.00183855995493709	-0.00481323487154517
0.16	0.181587132515753	-0.92276334523438	764.474364098709	8.39092738983698	19.4081204677976	0.277748409155326	-0.252213495485772	-0.00183817361782623	-0.00501823234371851
0.17	0.118010955220211	-0.684193500849321	765.576586132864	8.39660015471511	19.2738565825658	0.25690947143426	-0.238231365345883	-0.00184618550980242	-0.00523004889656409
0.18	0.0977793553553136	-0.405948902883862	766.662727482211	8.40043898904935	19.1346370766848	0.245186883726534	-0.233802753616081	-0.00185655806412166	-0.00544741449158759
0.19	0.115802757676193	-0.124033709905821	767.488015857227	8.40577710424645	18.9876011123364	0.243156710406265	-0.238652046276598	-0.00186137093390359	-0.00566604428376055
0.2	0.158944843335278	0.126463996673528	767.862068165097	8.41665674497878	18.8325998904859	0.252760563639382	-0.254003488845919	-0.00185249999331116	-0.00588013413760891
0.21	0.211601542622804	0.317562048408737	767.678966702079	8.43685150949218	18.6717510706277	0.276615547411987	-0.281977257520191	-0.00182335220360474	-0.00608381729465129
0.22	0.261122923491429	0.432667844686013	766.929320819593	8.46902802284431	18.5089187980085	0.316928402245649	-0.324540273381794	-0.00177016322482615	-0.00627209140148871
0.23	0.301560370579407	0.467961593302677	765.693246021235	8.51428601807714	18.3493696747648	0.374350158056591	-0.382343351659294	-0.00169252561286126	-0.00644090110737061
0.24	0.334586296458106	0.430739709380504	764.117352827525	8.57215650515651	18.1997151814472	0.447118983839362	-0.453804832742239	-0.0015930850737168	-0.00658637600105455
0.25	0.367207368803453	0.335498531087736	762.382397581657	8.64095846938165	18.0680436167672	0.530746326692143	-0.534721555470914	-0.00147662840553475	-0.00670359402947385
0.26	0.4069486718666	0.199205233913276	760.670268468631	8.71828753836566	17.9639539139716	0.618342491891248	-0.618532341300187	-0.00134898170878139	-0.00678553077200778
0.27	0.456215550251716	0.0373682609514327	759.13871450664	8.80138959084768	17.8981230202224	0.701508454367125	-0.697180755503429	-0.00121616007567305	-0.00682292615606395
0.28	0.508125722146384	-0.137889694801881	757.909473295584	8.88726851037339	17.8811265418397	0.771591078413342	-0.7623763224212	-0.00108404492634362	-0.00680557713911639
0.29	0.545899666792908	-0.317393996557544	757.070816615609	8.97254683633462	17.9214811983896	0.821035451034611	-0.806970823225885	-0.000958578309410263	-0.00672508343655875
0.3	0.546819155769769	-0.492712542847782	756.690382256211	9.05325975533637	18.0232092924301	0.844570054734376	-0.826157005084659	-0.000846180631932647	-0.00657848232366631
0.31	0.490095213252739	-0.65349178263562	756.830252113943	9.12483461648927	18.183518572361	0.840010867988657	-0.818249567077182	-0.000753951424984356	-0.00637172115168949
0.32	0.36631476405124	-0.785835724678933	757.555090487012	9.18244787508482	18.3913261827343	0.808549996124458	-0.784903301659786	-0.000689277783853859	-0.00612173124642623
0.33	0.185131855290581	-0.872824276164257	758.926438092868	9.22178038857561	18.6272607686012	0.754489624980716	-0.730741152096592	-0.000658732683747387	-0.00585609089885603
0.34	-0.0219907807768366	-0.897413889023257	760.981432710144	9.23998720456754	18.8654562761155	0.684483060501794	-0.662486319101627	-0.000666486449389603	-0.00560986633989524
0.35	-0.205840735649902	-0.84698009517797	763.700660994523	9.23655543550726	19.0769874670474	0.606438375317855	-0.587795571672824	-0.000712730021511843	-0.00542003025359461
0.36	-0.310024060754634	-0.718017599500764	766.975324084548	9.21371236042084	19.2343279669256	0.528307782097942	-0.514052007776976	-0.000792697228968575	-0.00531862557539348
0.37	-0.285535714768901	-0.519293685825472	770.586391301335	9.17617515466106	19.3158841470454	0.457007499333402	-0.447376243303231	-0.000896734829342827	-0.00532631567289638
0.38	-0.105310647958957	-0.27214735396466	774.206795965263	9.13025192233495	19.3095797738821	0.397677603844135	-0.392051279433612	-0.00101155688279631	-0.00544797515500273
0.39	0.225548729370618	-0.00750334028551328	777.432198772207	9.08252461456061	19.2146675287492	0.353404197833132	-0.350443012816669	-0.00112245127578603	-0.00567150887036011
0.4	0.667120222969735	0.239787676760047	779.837918644417	9.03848585025781	19.0413676969192	0.325408250423712	-0.323365974173508	-0.00121591015204381	-0.00597027328459315
0.41	1.15078992729752	0.43783300497136	781.051663585882	9.00151714594172	18.8084593922577	0.313587452357864	-0.310728637728496	-0.00128202603458338	-0.00630855302224198
0.42	1.59296761470082	0.564000235858656	780.826135383986	8.9724869846996	18.539429632731	0.317210682680711	-0.312225432600464	-0.00131606285268082	-0.00664877940580605
0.43	1.91315432893877	0.609044516160366	779.094196257485	8.95005577326496	18.2580955547716	0.335532838717052	-0.327840792058484	-0.00131884402738724	-0.00695877357012253
0.44	2.05199263397583	0.578128377866625	775.992595141419	8.93156580923158	17.9846845528078	0.368130647209935	-0.357994297825399	-0.00129592019003499	-0.00721734700104609
0.45	1.98495643252356	0.488659107309559	771.847389843845	8.91423366450821	17.7331841133775	0.414850600450987	-0.403268518312008	-0.0012557893154953	-0.00741705969596901
0.46	1.72844823488361	0.365652234050379	767.123209319411	8.89629703402955	17.5104184955084	0.475385169943498	-0.463793124957753	-0.00120765415281265	-0.00756367430525345
0.47	1.33692392124069	0.235846241881126	762.346945355843	8.87781223866628	17.3168755516427	0.548618720937766	-0.538475096295451	-0.00115926436714486	-0.00767264770466336
0.48	0.891767186692757	0.12196521046175	758.022159850513	8.86092849767795	17.1489069585357	0.631973373628127	-0.624332464569537	-0.0011153042381441	-0.00776366446904148
0.49	0.484482166423827	0.0383738224110121	754.552094785028	8.84962802201122	17.001651634085	0.721008302540888	-0.716185768937552	-0.00107659996436837	-0.00785458975614139
0.5	0.197956899326227	-0.0110284650776135	752.186472848731	8.849056446027	16.8719350086266	0.809471311489592	-0.806881987870436	-0.00104020776948022	-0.00795624104565951
0.51	0.0898423314466672	-0.0323682278907473	751.001185230673	8.86463355538186	16.7604752541716	0.889879342730135	-0.888086212527747	-0.00100027171433326	-0.00806908256693495
0.52	0.181473179729137	-0.0390807319808904	750.912173775376	8.90112252508263	16.6729378228217	0.954547954658136	-0.951512892298627	-0.000949441102947701	-0.00818244051071865
0.53	0.454415534163812	-0.0476693646054101	751.717303295143	8.9617754720803	16.6196547343168	0.996846682929906	-0.990329620163495	-0.000880603411937186	-0.00827626332931658
0.54	0.855006572264993	-0.0729927144905839	753.154515447757	9.04761128692689	16.614098222472	1.01237537098009	-1.00039817385981	-0.000788684955624008	-0.00832494271162876
0.55	1.30556964356686	-0.12416595899384	754.962137634718	9.15685871220112	16.670421152691	0.999765989505645	-0.981046305667854	-0.0006722634318026	-0.00830235832194876
0.56	1.71972098813328	-0.201941572043086	756.928134707919	9.28462507388404	16.800525340778	0.960914630356822	-0.935184358749981	-0.000534714251133606	-0.00818714978619317
0.57	2.01857561731007	-0.298036024515807	758.918803949674	9.42290479335637	17.0111891273676	0.900606980548465	-0.868756118098987	-0.000384600194764828	-0.0079672433595353
0.58	2.14476510398788	-0.396423333706851	760.882845800663	9.56107324981329	17.3017811298418	0.825664970794272	-0.789687097602591	-0.000235057819986895	-0.00764283294718249
0.59	2.0718751503454	-0.47624647911009	762.832587893212	9.68697278010377	17.6630117920512	0.743858603284698	-0.706610561137362	-0.000102075308351046	-0.00722729317651549
0.6	1.80795273879127	-0.515772198056142	764.809163096614	9.78856859985123	18.0770315310291	0.662859421022631	-0.627677521537054	-1.80084271517167e-06	-0.00674584469734341
0.61	1.39284909418603	-0.49672930202339	766.841693778822	9.85595781811852	18.5189830119999	0.589455049547284	-0.559689387604013	5.26791752107902e-05	-0.00623215696222013
0.62	0.890141084298306	-0.408370435822787	768.911467705661	9.88332096280414	18.9598764759534	0.52912338684526	-0.507660193459781	5.43910854584606e-05	-0.00572341513621433
0.63	0.375106473407875	-0.250623526576218	770.9306077547	9.8702978668474	19.3704148103208	0.485927521868701	-0.474769061714071	4.54100053137729e-06	-0.00525464659641239
0.64	-0.0792784294305799	-0.0357348168896305	772.741187714359	9.82231735087332	19.7251899718957	0.46258960985862	-0.462554209245312	-8.70953562253085e-05	-0.00485325534787479
0.65	-0.416045741197033	0.212109380878219	774.13588231378	9.74963198348814	20.0065448388933	0.460570002112176	-0.47116202356463	-0.000203789531147747	-0.00453472053615778
0.66	-0.605246951340622	0.459487412551151	774.896105569631	9.66515781141298	20.2073789081045	0.480024621661551	-0.499504326447591	-0.000325283819893496	-0.00430026708576203
0.67	-0.650000986132696	0.668698621160181	774.839330710476	9.58159003991316	20.3322960084107	0.519615588804981	-0.545270457371775	-0.000432277738035891	-0.00413701895716839
0.68	-0.585868625786018	0.804371577661714	773.864884381131	9.50853310142424	20.3967525518081	0.576262867356109	-0.604846373258017	-0.000510853866422023	-0.00402072414774646
0.69	-0.472950908546142	0.840579433467265	771.9875443318	9.45044618292345	20.424241256339	0.645000367891835	-0.673267414865337	-0.000555641751820213	-0.0039206463985868
0.7	-0.381723768608935	0.766940449861053	769.35074435349	9.4060252698462	20.4419742581084	0.719106216709901	-0.744346627872058	-0.000570791692391603	-0.00380573510758342
0.71	-0.375423118385893	0.592149909933103	766.215522716793	9.36925999358914	20.4759112701684	0.790609304788439	-0.81107281311246	-0.000568393980921233	-0.00365082485772256
0.72	-0.493223248283699	0.343790734838528	762.926541501466	9.33192280612475	20.5461980820688	0.851157130127048	-0.866281908577584	-0.000564683143891132	-0.00344149858160919
0.73	-0.738885911885345	0.0640555413232731	759.861399099901	9.28680707642018	20.6640458471442	0.89310622503921	-0.903506469193277	-0.000575014986680111	-0.00317645861732302
0.74	-1.07858896473658	-0.197997489577512	757.373008125463	9.23076203654922	20.8307631955345	0.910610544308061	-0.917836271122867	-0.00060900871887215	-0.00286679230114412
0.75	-1.44931676716328	-0.396099206597557	755.736263242393	9.16656770072342	21.0391110001513	0.900464583236479	-0.906602057295655	-0.000667275631279551	-0.0025322891316496
0.76	-1.77609291406506	-0.496167680907277	755.109240739807	9.10297576925397	21.2765272780754	0.86251185243616	-0.869729341329391	-0.000740772304145598	-0.00219576219710543
0.77	-1.99343966882798	-0.483191170457256	755.515912564033	9.05275519288717	21.5292551712745	0.799537022993934	-0.809687399671793	-0.000813097026640563	-0.0018769018037339
0.78	-2.06480026260454	-0.363835345124521	756.852513763971	9.02918874931831	21.7861692262582	0.716687784932567	-0.731055942592916	-0.000865179097000901	-0.00158734155885482
0.79	-1.99395745120567	-0.164018799428186	758.914430614785	9.04198758888678	22.0412207658973	0.620583255897146	-0.639820939966524	-0.000881047948622093	-0.00132827036155059
0.8	-1.82476577782637	0.078022045759147	761.436157127294	9.09384792637596	22.2938785413059	0.518330141241824	-0.542568096999543	-0.000852965140734185	-0.00109116996036562
0.81	-1.629099607831	0.321444179318966	764.134697192591	9.17876052568939	22.5475794724387	0.416670666522391	-0.445753079703021	-0.000784316749041447	-0.000861334029840732
0.82	-1.48660821354904	0.53275259430775	766.747343003793	9.2827091737403	22.8068170667956	0.321429448702621	-0.355189497403284	-0.000689292844704203	-0.000623029721514734
0.83	-1.4623943595934	0.693339804896756	769.057723270872	9.38669437669886	23.0738857304258	0.237327354428531	-0.275819388940825	-0.000589342313621066	-0.000364746317361553
0.84	-1.58923486014796	0.802570221965265	770.908252396119	9.47131323955839	23.3463535125155	0.168117076533865	-0.2117377592322	-0.000507379263786856	-8.30489801245671e-05
0.85	-1.85931678704667	0.875580944290549	772.201091895072	9.52164414563148	23.6160579149008	0.116899223838198	-0.166359711907728	-0.000461409394480805	0.000215941803392461
0.86	-2.22731715873062	0.936441405704894	772.892137372328	9.53108038996809	23.8699218224017	0.0864265980421499	-0.142572330964074	-0.000459418287623081	0.000517689107800701
0.87	-2.62315278941741	1.00862858358854	772.982782285152	9.50305935284097	24.0923419200493	0.0792144517283772	-0.14272188074114	-0.000496972270022322	0.000802521052063798
0.88	-2.97006408751291	1.105559908055	772.512625050885	9.45024046648487	24.2684778456095	0.0973459325045462	-0.168352917959607	-0.000558166177553332	0.00105008219896224
0.89	-3.20266828645727	1.22396056773067	771.553921755258	9.39140119665366	24.3875749156215	0.141975695541736	-0.219722341458624	-0.000619581725021634	0.00124381040987676
0.9	-3.28036167491608	1.34211158896263	770.20666032281	9.34692546035819	24.4455093581838	0.212655660627509	-0.295222807130634	-0.000656100800436765	0.00137443204911397
0.91	-3.19346207077485	1.42372306990839	768.592464941942	9.33408001071574	24.4459979678186	0.306693760173706	-0.390923388602209	-0.00064698792207929	0.00144181317173575
0.92	-2.96188102502089	1.42664981270468	766.846215516722	9.36323894142957	24.4002645082852	0.418777030585215	-0.500437846509201	-0.000580710511523086	0.00145492513871442
0.93	-2.62803268214671	1.31432154416952	765.105677625395	9.43587131312984	24.3252995984617	0.541035366613699	-0.615255376928947	-0.000457434386325173	0.00143007073753421
0.94	-2.24660871114808	1.06695590659612	763.500674547522	9.54459208831664	24.2411144629405	0.663610458466413	-0.725539819401683	-0.000288819214264491	0.00138781105524893
0.95	-1.87376213342413	0.689574006435966	762.143699345001	9.67506516261775	24.1675393375146	0.775664790182826	-0.821267790847151	-9.54096471192933e-05	0.0013492195265109
0.96	-1.55754103150105	0.214560580669469	761.123234972234	9.80917755578126	24.1211573385444	0.86666041978235	-0.893482909217754	9.76085492538914e-05	0.00133217536608732
0.97	-1.3306313425351	-0.302179668380704	760.499874802085	9.92873564194343	24.112912937071	0.927685117467744	-0.935422204734789	0.000265312673452756	0.00134839794584662
0.98	-1.20598601558077	-0.790850846955722	760.304336519592	10.0189475041566	24.1468076407771	0.952609687882608	-0.943321646745935	0.00038765930188267	0.00140180662179701
0.99	-1.17578281036652	-1.18112582864623	760.536207915807	10.071084815189	24.2199046658972	0.938909348515505	-0.916802526830823	0.000453030529131593	0.00148855552725669
1	-1.2141060261192	-1.41623364452494	761.162868882263	10.0838995038185	24.323623617451	0.888048557209654	-0.858838667935563	0.000460151822148647	0.00159875294256373
1.01	-1.28343166376809	-1.46453931519251	762.119128521208	10.0635739515342	24.4460475166167	0.805391386693504	-0.775372192528805	0.00041807096458113	0.00171948756922258
1.02	-1.34422282184838	-1.32592862945151	763.309060576249	10.0222098841746	24.5747415569763	0.699650124479791	-0.674669881097926	0.000344171667994497	0.00183844745817485
1.03	-1.36586208859493	-1.03151169484239	764.611740020087	9.97511644121098	24.6994580369363	0.581927696273848	-0.566503242023177	0.000260531405836595	0.00194723885193088
1.04	-1.33621760765891	-0.63673188480998	765.891846178769	9.93741959402605	24.8141217057238	0.464453610117214	-0.46121709443427	0.000189293156993564	0.00204356451182425
1.05	-1.26690361453174	-0.209531615104308	767.014616085292	9.92071890662793	24.9176628880852	0.359160831971936	-0.368745457307964	0.000148015774820487	0.00213170788045619
1.06	-1.19208999533241	0.18360854493233	767.862968725257	9.9305775419584	25.0135536908432	0.276292647248844	-0.297647187940213	0.000146075004103352	0.00222121706683437
1.07	-1.16045127844129	0.490481545181007	768.353450286493	9.96548442676272	25.1082288213299	0.223245892704656	-0.254257729385513	0.00018301344993199	0.00232416220989723
1.08	-1.22199472322104	0.681916703593493	768.447477242728	10.0175774611692	25.2088465209864	0.203833668202479	-0.242068757516361	0.000249280602146129	0.00245171039610403
1.09	-1.41329586360004	0.754708030950662	768.155306196692	10.0749493621676	25.3209919589134	0.218082854375512	-0.261437633536946	0.000329174330707782	0.00261091913571954
1.1	-1.74540066391127	0.728462006098001	767.531936735955	10.1249158340008	25.4469096979481	0.262581790749896	-0.309686871279819	0.000405185339826697	0.00280255736525187
1.11	-2.19800572459959	0.637646736384106	766.666152072042	10.1573548502156	25.5846862329223	0.331285479905043	-0.381586450888874	0.000462556672632508	0.00302046324864091
1.12	-2.72169921902044	0.521215327696356	765.665456652626	10.1672178627639	25.7285408268506	0.416596870958524	-0.470134892020923	0.000492832933597698	0.00325253753985927
1.13	-3.24767007231746	0.412554575033811	764.640310913966	10.1555730227217	25.8700964864273	0.510495217483861	-0.567489899549289	0.000495501934860032	0.00348306642576224
1.14	-3.70218187795909	0.33213408244042	763.69068566049	10.1289830127134	26.0002659082563	0.605488287756183	-0.665867128521041	0.000477416908316486	0.0036957694136685
1.15	-4.02192793641381	0.284290024852604	762.896834202447	10.0975031152454	26.1112548028503	0.695224359178585	-0.758240581782363	0.000450338978470466	0.00387683778696751
1.16	-4.16642137510194	0.258406945036713	762.314811713993	10.0719555279774	26.1981836891462	0.774699752711947	-0.838741723575106	0.000427448363805372	0.00401728192509831
