Time [s]	GRFml [N]	GRFap [N]	GRFv [N]	Mml [N.m]	Map [N.m]	Mv [N.m]	Mfree [N.m]	COPml [m]	COPap [m]
0.01	12.8197016491619	-0.508762405754817	734.703941203932	-30.7884153318036	5.79529455930157	-0.162275263667221	0.378951922789456	-0.001020769950759	0.000321225826340629
0.02	11.8218799555861	-0.433300432512477	735.381282587109	-30.8192355798603	5.99179674676995	-0.0136562941924812	0.48533147064262	-0.000760180388268646	0.000328158062966946
0.03	10.8437560224626	-0.358425152774929	736.052247670193	-30.8487868748762	6.1845492255214	0.132151778539504	0.589663481447218	-0.000504240445776042	0.000333541850478923
0.04	9.90352648875888	-0.285081181549286	736.706501337359	-30.8761802647331	6.369924978764	0.272442889738559	0.690011433359361	-0.000257789253488155	0.000336751453552601
0.05	9.01804878069628	-0.214190311986584	737.333746403196	-30.9005819762747	6.54453943543684	0.404689907478888	0.784566551805883	-2.53556800964404e-05	0.000337244835559476
0.06	8.20218015691953	-0.14662897659135	737.923998522142	-30.9212553169078	6.70538000811453	0.526641330080144	0.87171555848444	0.000189019724773986	0.000334602921137385
0.07	7.4682212965106	-0.0832048356740014	738.467876004875	-30.9375997215668	6.84991618671246	0.636404368572615	0.950098798413756	0.000381937156151212	0.000328563523444195
0.08	6.82549246263259	-0.0246329325855701	738.956897312853	-30.9491849432595	6.97618478030279	0.732510414738854	1.01865617418112	0.000550756357760682	0.000319048016113405
0.09	6.28006163800881	0.0284878680655449	739.38377616888	-30.9557785944401	7.08284652065329	0.813959997320739	1.07665906415496	0.000693676056760869	0.000306179266757987
0.1	5.83463444212901	0.0756972101724189	739.74270180527	-30.9573655435813	7.16921203289086	0.880245567211364	1.1237272003535	0.000809770845350465	0.000290289823744322
0.11	5.48860580533872	0.116693234918952	740.029590188892	-30.9541580424213	7.23523701063375	0.931351738527684	1.15983028180847	0.000898985012571549	0.000271919838986362
0.12	5.23826396953465	0.151349048723656	740.242291338368	-30.9465958871028	7.28148818162541	0.967733860118558	1.185274857892	0.00096208544046625	0.000251804702129314
0.13	5.07712901562538	0.1797245133701	740.380738216076	-30.9353363808278	7.3090832069068	0.990276923456238	1.20067769901427	0.0010005780292401	0.00023085284474593
0.14	4.99640128079346	0.202072314085431	740.447024180128	-30.921234344812	7.31960893473707	1.00023776369656	1.20692745370225	0.00101659405217592	0.00021011463601131
0.15	4.98549008283457	0.218837453359026	740.445398579252	-30.9053128953124	7.31502336817049	0.999174233793955	1.20513685329024	0.00101275424989058	0.000190743719951751
0.16	5.0325903203892	0.230649574888862	740.382173649108	-30.8887261444531	7.29754726826497	0.98886549868172	1.19658805658966	0.000992019290443543	0.000173952521155457
0.17	5.12527381667024	0.238307826272125	740.265540235451	-30.8727153699211	7.26955149649835	0.971227798532306	1.18267392045897	0.000957535432262964	0.0001609639500788
0.18	5.2510636226285	0.242758303440659	740.105294782635	-30.8585605142003	7.2334460184892	0.948229975636549	1.16483803619088	0.000912483863705044	0.000152961549216304
0.19	5.39796266609997	0.245064467568428	739.912485193707	-30.8475291022681	7.19157598652085	0.921812772443235	1.14451628854017	0.000859941329629771	0.000151040418164466
0.2	5.5549127950613	0.246371270867559	739.69898826811	-30.8408247963033	7.14612954740759	0.893815424805068	1.12308248136358	0.000802758395499013	0.000156161225381569
0.21	5.71216601112506	0.247864057710984	739.477036118304	-30.8395378305307	7.09906105305185	0.865912438916483	1.10180024406857	0.000743460165819275	0.000169109452110634
0.22	5.86155607929916	0.250723609875786	739.258712926742	-30.8445994875394	7.05203225748194	0.839562701918966	1.08178300518509	0.000684172595584094	0.000190461724688847
0.23	5.99666528067474	0.256078968528738	739.055446325688	-30.856742593052	7.00637294042736	0.815972284984184	1.06396331810962	0.00062657583543513	0.000220560691335414
0.24	6.112887419444	0.264959880411423	738.877519308746	-30.8764697278785	6.96306127328767	0.79607150225188	1.04907227919468	0.000571884444205849	0.000259499414433761
0.25	6.20739392913474	0.278250870738328	738.733628727915	-30.9040304969243	6.92272319995458	0.780506033239259	1.03762922294684	0.000520852876004904	0.000307115713021916
0.26	6.27901474205968	0.296649029063054	738.630514993184	-30.939408772896	6.88564919232124	0.769641237795816	1.02994134708038	0.000473803467722085	0.000362996341046133
0.27	6.32804927386937	0.320627594657245	738.572684573136	-30.9823203673972	6.85182599538004	0.763578221128063	1.02611244346127	0.000430673255400405	0.000426490364271781
0.28	6.35602530791172	0.350407332886694	738.562242402174	-31.0322210974918	6.82098042283656	0.76217976304183	1.02605951663004	0.000391075348343111	0.000496730639147173
0.29	6.36542471053789	0.385937493533625	738.598845547776	-31.0883247360283	6.79263191115095	0.765103922599907	1.02953577945249	0.000354370281074417	0.000572661930755031
0.3	6.35939482288975	0.426887829696454	738.679782793909	-31.1496298836787	6.76615038578556	0.771842970325709	1.03615833659317	0.000319742722007242	0.000653073955827171
0.31	6.34146318478155	0.472652731581902	738.80017755097	-31.2149544031945	6.74081602585345	0.781765280090883	1.04543880269965	0.000286279109463435	0.000736637511820272
0.32	6.31527113702204	0.522368001173163	738.95330416347	-31.282975732701	6.71587771186636	0.794157919726918	1.0568151463535	0.000253042169973712	0.00082194185466479
0.33	6.28433904371776	0.574940179126532	739.131000736799	-31.3522751619607	6.69060727958608	0.808267894849	1.06968318840637	0.000219138807951314	0.000907531606405623
0.34	6.2518726193232	0.62908766232467	739.324155520214	-31.4213840255247	6.66434715117742	0.82334030131801	1.08342639415147	0.000183778498206395	0.00099194169160869
0.35	6.22061638156572	0.683392156915887	739.523239098877	-31.4888297458247	6.63654944140974	0.838652002092772	1.09744285950179	0.000146320024358517	0.00107372909413252
0.36	6.19275681141681	0.736358342606791	739.718851521629	-31.5531797474905	6.60680521009206	0.853539836585352	1.11116867766534	0.000106305151459912	0.00115150056616806
0.37	6.16987458790865	0.78647902900349	739.902252275667	-31.6130814549966	6.57486312220958	0.867422768242892	1.12409716169148	6.34785680068209e-05	0.00122393578082065
0.38	6.15294244458189	0.83230261361295	740.065841839507	-31.6672968664192	6.5406373567635	0.879817754464855	1.13579366974769	1.77941521701287e-05	0.00128980577059279
0.39	6.14236288858192	0.872499348845071	740.203566385134	-31.7147305484195	6.50420514967612	0.890349461488845	1.14590601851313	-3.05917163299155e-05	0.00134798681254315
0.4	6.13803831071388	0.90592282781162	740.31122189981	-31.7544502990172	6.46579484452272	0.898754229938275	1.1541706652922	-8.13384866857232e-05	0.00139747018663075
0.41	6.13946492886926	0.931663228192177	740.386640263429	-31.7857001499102	6.42576574038922	0.90487891449231	1.16041498643818	-0.000133949603000037	0.00143736843219809
0.42	6.14584154147938	0.949089215520685	740.429747239218	-31.8079058026974	6.38458135590432	0.908675369766987	1.16455607863416	-0.000187808316265168	0.00146691885017439
0.43	6.15618418060852	0.957875989107635	740.442490418271	-31.820672987884	6.34277796349919	0.910191435774762	1.16659656501137	-0.000242218694017797	0.00148548504323693
0.44	6.16943837677902	0.958017724202382	740.428643355662	-31.823779579216	6.30093038314826	0.909559296822489	1.1666179076181	-0.000296449251668295	0.00149255725690278
0.45	6.18458179028289	0.949823575060587	740.393499891764	-31.8171625700725	6.25961705902064	0.906982057507215	1.1647717207235	-0.000349776634383693	0.00148775219092447
0.46	6.20071132467811	0.933897394340888	740.343479442879	-31.8009012099546	6.21938637817349	0.902719310729577	1.1612695554602	-0.000401526911440258	0.00147081280642915
0.47	6.21711040996726	0.911102325480521	740.285669417795	-31.7751977000574	6.18072603391417	0.897072378098637	1.15637159398692	-0.000451112295672716	0.00144160847689509
0.48	6.23329381875629	0.882512364648968	740.227334523925	-31.7403568560643	6.14403699763508	0.890369794742069	1.15037465734011	-0.000498061452741913	0.00140013563849751
0.49	6.24902905720422	0.849353799355359	740.175424350584	-31.6967660681445	6.10961335510601	0.882953498611819	1.14359989961385	-0.000542041996979589	0.00134651890544683
0.5	6.26433496195913	0.812940052882037	740.136110184068	-31.6448767325054	6.07762890281641	0.875166076787995	1.13638053369214	-0.00058287425705327	0.00128101244478893
0.51	6.27945955504636	0.774603852650193	740.114379591408	-31.5851881101201	6.0481310059643	0.867339323389095	1.1290499099062	-0.000620535907546196	0.00120400126596213
0.52	6.29484039582774	0.735630769210687	740.113713115325	-31.5182343041785	6.0210418128158	0.859784278468399	1.12193024663247	-0.000655157572884412	0.00111600198272424
0.53	6.31105157370529	0.697198033070565	740.135861776848	-31.4445747581559	5.99616652187765	0.85278284572748	1.11532228821185	-0.000687009990058027	0.00101766255420934
0.54	6.32874207528668	0.66032214094724	740.180737397873	-31.3647883814493	5.97320802964529	0.846581028618051	1.10949613799009	-0.00071648374138631	0.000909760508859166
0.55	6.34857052098591	0.625818141524053	740.24642050301	-31.2794711285897	5.95178696689847	0.841383778212666	1.10468348083802	-0.000744062917735169	0.000793199196721862
0.56	6.37114120186809	0.594272689204876	740.329283227924	-31.1892366080989	5.93146587692776	0.83735141054671	1.10107136944924	-0.000770294331256784	0.000669001695561125
0.57	6.39694597833727	0.566032030409748	740.424217724138	-31.0947190918051	5.91177611193437	0.83459752442894	1.09879770254812	-0.000795754056215551	0.000538302105288969
0.58	6.42631596405379	0.541205105618273	740.524954434236	-30.9965781446085	5.89224593149908	0.833188331656536	1.09794847252038	-0.00082101313435488	0.000402334092983903
0.59	6.45938606089147	0.519680979089947	740.624449667272	-30.8955040038438	5.87242828142689	0.833143299077236	1.0985568073495	-0.0008466042409553	0.000262416686626202
0.6	6.49607439430509	0.501158911984212	740.715318386496	-30.7922228080039	5.85192680895945	0.834436995112898	1.10060377989766	-0.000872990977728923	0.000119937450119206
0.61	6.53607759123143	0.485188631586634	740.790286176224	-30.6875008044581	5.83041882272716	0.837002031302399	1.10402090917095	-0.000900541251615353	-2.36667025485873e-05
0.62	6.57888171649181	0.471217766963838	740.842634015772	-30.5821467495953	5.80767411996854	0.840732991050692	1.10869423534513	-0.000929505930099493	-0.000166930685405978
0.63	6.62378761040726	0.45864305350322	740.866610683407	-30.4770118448327	5.78356886331566	0.845491241623582	1.11446981419362	-0.000960003651585626	-0.000308383949096457
0.64	6.66994841766472	0.446861773923607	740.857790177102	-30.3729867187131	5.75809397676582	0.851110529568278	1.12116044728856	-0.000992012332333679	-0.000446574183536282
0.65	6.71641632499038	0.435320003796745	740.813355233637	-30.2709951584291	5.73135782682487	0.857403261802774	1.12855344105218	-0.00102536756814049	-0.000580091421524605
0.66	6.76219498065738	0.423554551938476	740.732292567244	-30.1719845026351	5.70358324270714	0.86416737203056	1.1364191687609	-0.00105976779695556	-0.000707591910322887
0.67	6.8062937848433	0.411226002410538	740.615490524472	-30.0769128204033	5.67509919367974	0.871193662513817	1.14452019293615	-0.00109478578362337	-0.000827821094114348
0.68	6.84778023108799	0.398140935584067	740.465735156046	-29.9867332079767	5.64632767019394	0.878273492874197	1.15262068935096	-0.00112988572281916	-0.000939635041763823
0.69	6.88582674090992	0.384262182278004	740.287605953936	-29.9023757254273	5.61776650030074	0.885206659975557	1.16049589699719	-0.00116444504041532	-0.00104201966260187
0.7	6.91974894180513	0.369706793880289	740.087277444467	-29.8247276600134	5.58996897003356	0.891809277166838	1.16794130078216	-0.00119777981255047	-0.00113410708061098
0.71	6.94903305112928	0.354732237888616	739.87223726401	-29.7546129335547	5.56352120579016	0.897921420111884	1.17478123682052	-0.00122917261727116	-0.00121518858792681
0.72	6.97335088764246	0.339712100261421	739.65093511917	-29.6927715604903	5.53901832119742	0.903414264704236	1.18087659669487	-0.00125790158398141	-0.00128472367567468
0.73	6.99256197143785	0.325103246795774	739.43238004165	-29.6398401062645	5.51704033553579	0.908196406079447	1.18613130081391	-0.00128326940657521	-0.00134234474659842
0.74	7.00670311963101	0.311406927015246	739.22570552309	-29.5963340893915	5.49812884152897	0.91221902308222	1.19049721642425	-0.00130463113088123	-0.0013878572504178
0.75	7.01596682904875	0.299126667146314	739.039723424349	-29.5626332146347	5.48276534301831	0.915479546142518	1.19397721726919	-0.00132141960922987	-0.00142123514713298
0.76	7.02067049494851	0.288725975859995	738.882487989416	-29.5389702215804	5.47135210258617	0.918023503741913	1.19662612285871	-0.00133316762832664	-0.00144261178994676
0.77	7.02121909540705	0.280588870827234	738.760890867747	-29.5254239873954	5.46419623892487	0.919944267053242	1.19854931787361	-0.00133952585606116	-0.00145226651920174
0.78	7.01806433909764	0.274986029900273	738.680306785711	-29.5219173417991	5.46149769550371	0.92138048503646	1.19989893646707	-0.00134027591459914	-0.00145060746028574
0.79	7.01166341214853	0.272048992142566	738.644307446365	-29.5282198448713	5.46334156656839	0.922511101664444	1.20086760003768	-0.00133533806835768	-0.0014381512089995
0.8	7.00244036814773	0.27175430431901	738.654458428522	-29.543955553816	5.46969511400697	0.923547968695422	1.20167981613054	-0.00132477321394032	-0.0014155002545101
0.81	6.99075290146479	0.273918858941792	738.710210369959	-29.5686155731822	5.48040963986669	0.924726204726779	1.20258127426578	-0.00130877907210991	-0.00138331912107129
0.82	6.97686675952238	0.278206937996998	738.808891646019	-29.6015749542954	5.49522719630288	0.926292595485172	1.20382640405098	-0.001287680705542	-0.00134231029572829
0.83	6.96093942690958	0.284148704264545	738.94580521135	-29.642113293684	5.51379192133932	0.928492471578445	1.20566468344113	-0.0012619157148515	-0.00129319104359046
0.84	6.94301400258971	0.291169114911251	739.114427407937	-29.6894381868014	5.53566559102021	0.931555628032776	1.20832629185874	-0.0012320146917301	-0.00123667219128819
0.85	6.92302344306045	0.298625516015585	739.306701539496	-29.742710531894	5.56034678440476	0.935681955076522	1.21200778597498	-0.00119857772273528	-0.00117343988217464
0.86	6.9008046104103	0.305851556795711	739.513414086145	-29.801070558637	5.58729287712989	0.941027523184215	1.21685852825145	-0.00116224792985629	-0.00110414117562423
0.87	6.87612089193447	0.312204579565323	739.724636826807	-29.8636633856983	5.6159439226478	0.947691900476853	1.22296861433962	-0.00112368319347199	-0.00102937418180168
0.88	6.84869158788193	0.317113330161948	739.930214110481	-29.9296628980363	5.64574735854004	0.955707472456952	1.23035902144049	-0.00108352731910755	-0.000949683199153326
0.89	6.81822582820071	0.320122718778488	740.120271334194	-29.9982927839688	5.67618239845849	0.965031480404452	1.23897463407152	-0.00104238197215143	-0.00086555906331727
0.9	6.78445850059136	0.32093245622485	740.285718591908	-30.0688436866803	5.70678294637472	0.97554139575008	1.24868069684726	-0.00100078070714574	-0.000777444633807162
0.91	6.74718556361717	0.319426696045467	740.418722664139	-30.1406856042838	5.73715790440194	0.98703410609751	1.25926309857086	-0.000959166355897799	-0.000685745051136208
0.92	6.70629618299688	0.315692315397647	740.513121172806	-30.2132749122004	5.76700784063533	0.999229209532153	1.27043271319793	-0.000917872910240163	-0.000590842106038693
0.93	6.66179935988993	0.310024140748125	740.564754901365	-30.2861556723944	5.79613713761728	1.01177650514628	1.28183381847884	-0.000877112843194056	-0.000493111789414316
0.94	6.61384310134186	0.302916230040521	740.571697954255	-30.3589552223603	5.82446094961062	1.02426753937976	1.29305639205056	-0.000836970562848274	-0.000392943852667298
0.95	6.56272469120653	0.295039213113585	740.534370477225	-30.4313743850031	5.85200654844931	1.03625083196562	1.30365185929613	-0.000797402396683817	-0.000290762019431817
0.96	6.50889122364738	0.287204611969177	740.455524853222	-30.5031729877222	5.87890892047955	1.04725017577828	1.31315165095865	-0.000758243174411493	-0.000187043366623146
0.97	6.45293022356867	0.280317953426692	740.340103304095	-30.5741517020939	5.90540077540597	1.05678519649517	1.32108773577401	-0.000719219132127321	-8.23353486891221e-05
0.98	6.39555085746707	0.2753232899362	740.194972265044	-30.6441314911439	5.93179742434081	1.06439318555453	1.32701413868171	-0.000679966519869193	2.27310160649877e-05
0.99	6.33755689025223	0.273142404409165	740.028546301127	-30.7129321573395	5.95847726105672	1.06965109723453	1.33052835160192	-0.000640054980098649	0.00012743313864514
1	6.27981312458071	0.274612443395641	739.850321224162	-30.7803516024322	5.98585882011547	1.07219653934165	1.33129150184667	-0.000599014497779644	0.00023095513970444
1.01	6.22320752788677	0.280425961721715	739.670341975018	-30.8461474265333	6.014375572972	1.07174659508216	1.32904616968269	-0.000556364523168802	0.000332393203283099
1.02	6.16861157285436	0.291077346180429	739.498635336951	-30.9100224011359	6.04444974634443	1.0681133948501	1.32363084336042	-0.000511643751792822	0.000430768394903844
1.03	6.11684146229265	0.306819307318125	739.344640294931	-30.9716151494797	6.07646649831027	1.06121550938807	1.31499016376434	-0.000464439022121359	0.000525046886197179
1.04	6.0686228630708	0.327632595526886	739.216669615761	-31.0304970657767	6.11074976379648	1.05108445311321	1.30318033309881	-0.000414411862526673	0.000614167052058009
1.05	6.02456153292453	0.353211337227649	739.121434884932	-31.0861761181018	6.14754098452235	1.03786585615296	1.28836932923962	-0.000361321379499319	0.000697072433026726
1.06	5.98512179998364	0.382965442678305	739.063663831289	-31.1381077307543	6.1869817760512	1.02181516905587	1.27083186223265	-0.000305042415067795	0.000772749117447798
1.07	5.95061427382519	0.416040467497142	739.045833476218	-31.1857124586659	6.22910136766006	1.00328808508307	1.25093931209	-0.000245578192623157	0.000840265726828104
1.08	5.92119346837088	0.451354185300374	739.068035772414	-31.2283996807157	6.27380939372251	0.982726179411413	1.22914517681466	-0.00018306699219268	0.000898813912444153
1.09	5.89686525198108	0.487648025491	739.127984376517	-31.2655960839382	6.32089433466767	0.960638550317963	1.20596681657933	-0.000117782722551347	0.000947747114800362
1.1	5.87750326747929	0.523550525880853	739.221162545452	-31.2967773191107	6.37002761841899	0.937580483985438	1.18196448670242	-5.0129564069171e-05	0.000986615315507824
1.11	5.86287274684866	0.557649117260191	739.341103424652	-31.3215009094489	6.42077311596873	0.914130334902376	1.15771879479576	1.93688769061281e-05	0.00101519362985211
1.12	5.85265954266648	0.58856595817746	739.479785784505	-31.3394383119703	6.47260151209252	0.890865905737898	1.13380778728989	9.00852472415867e-05	0.00103350284414583
1.13	5.84650176483145	0.615033218774079	739.628121104745	-31.350403981855	6.524908816239	0.868341617774366	1.11078486393686	0.000161308149420853	0.00104182038147382
1.14	5.84402118879877	0.635963197893171	739.776502279415	-31.354379381159	6.57703810832601	0.847067685657936	1.08915863782001	0.00023226495872964	0.00104068066026449
1.15	5.84485161620144	0.650508950431325	739.915380486305	-31.3515301019623	6.62830349522617	0.827492354975388	1.06937571004353	0.000302146799479427	0.00103086436264124
1.16	5.84866162684212	0.658111681505527	740.0358351718	-31.3422146280195	6.67801518863253	0.80998804043422	1.05180712434243	0.000370134718015421	0.00101337671913407
1.17	5.85516964793004	0.658531988651247	740.130102734968	-31.3269837167224	6.72550460337371	0.79484193345124	1.03673902262791	0.000435426113821535	0.000989415506188508
1.18	5.86414994653851	0.651863043610361	740.192032292238	-31.3065699156949	6.77014841423611	0.782251351322629	1.02436775564942	0.000497260534283544	0.000960330006646332
