Time [s]	GRFml [N]	GRFap [N]	GRFv [N]	Mml [N.m]	Map [N.m]	Mv [N.m]	Mfree [N.m]	COPml [m]	COPap [m]
0.01	13.8665429214643	9.46835096593529	693.760787047369	-43.4735660717035	4.31439949441797	-2.28746169323062	-1.47797984944619	0.000422538507860338	0.0051613000436588
0.02	13.2883021337699	9.63882027799942	693.93778534184	-43.5290673404324	4.31587984951399	-2.17533455999208	-1.40214208710813	0.000424968000193013	0.0052319259041573
0.03	12.7191384260166	9.809034436319	694.110532664691	-43.5934370373242	4.31821363650869	-2.06531418167106	-1.3277849644357	0.000428555268205087	0.00531461449585766
0.04	12.168365214279	9.9764515234356	694.274403514282	-43.6689767415718	4.32181416593664	-1.95931924993547	-1.25620682681749	0.000433922993517916	0.00541297390446682
0.05	11.6447225834241	10.1384173552889	694.425012983595	-43.757270943091	4.32704281845632	-1.85911209603195	-1.1885990006022	0.000441626869855234	0.00552962492739804
0.06	11.1560729702874	10.2922073425131	694.558401907649	-43.8589526766963	4.33418188916356	-1.76622908047249	-1.12599463989478	0.000452113457749367	0.00566584228135861
0.07	10.7091354120356	10.4350758878336	694.671194533874	-43.9735223112527	4.34341229047725	-1.68192262033011	-1.06922555138348	0.000465684425438928	0.00582127014561051
0.08	10.3092700298845	10.5643131542983	694.760721126051	-44.0992342167738	4.35479770516779	-1.60711772226417	-1.01888989697753	0.000482469903830731	0.00599373527890592
0.09	9.96032181401344	10.6773080996374	694.825101079519	-44.2330608099637	4.36827627461022	-1.54238492865023	-0.975332883200283	0.000502412977535963	0.00617917341587792
0.1	9.66452973660509	10.7716157893425	694.863285237849	-44.3707377789549	4.38366034002383	-1.48793054556022	-0.93864152428724	0.000525266478558663	0.00637167622505593
0.11	9.42250392733138	10.8450262792603	694.875058875098	-44.5068885880707	4.40064417254492	-1.44360398468081	-0.908653427826199	0.000550602315971151	0.00656365750680259
0.12	9.2332702927984	10.8956318708939	694.861009051358	-44.6352210790637	4.41881907461729	-1.40892108905559	-0.884978432227101	0.000577832638994602	0.00674612916737777
0.13	9.09437873764222	10.921889330994	694.822461661565	-44.7487844553159	4.43769474814728	-1.38310148497511	-0.867030957284554	0.000606241266038932	0.00690907037280467
0.14	9.0020682210429	10.9226737428009	694.76139445964	-44.8402714114117	4.45672543464608	-1.36511735383447	-0.854070222564973	0.000635023085492273	0.00704186759581896
0.15	8.9514794009004	10.8973210032452	694.680332700607	-44.9023478116288	4.47533906099176	-1.35375057516738	-0.845245113257679	0.000663328600497607	0.00713379932269865
0.16	8.93690368680983	10.8456565589108	694.582233899264	-44.9279911948944	4.49296748384483	-1.34765496450508	-0.839640449791502	0.000690310488080716	0.00717453714614046
0.17	8.95205621332659	10.7680087261593	694.470367680254	-44.9108194724966	4.50907591887328	-1.34542031009203	-0.836321715977655	0.000715168991112855	0.00715463485637584
0.18	8.99035959127703	10.6652057986589	694.348195924326	-44.845392394422	4.5231897613197	-1.34563508009393	-0.834375848477986	0.000737193156086255	0.00706597884231323
0.19	9.04522529728215	10.5385570353248	694.219257523937	-44.7274705345732	4.53491723741415	-1.34694499585185	-0.832946388236482	0.000755795345391558	0.00690217639662591
0.2	9.11032018978081	10.3898184724441	694.087061151949	-44.5542194819145	4.54396665031959	-1.34810510967651	-0.831262033059677	0.000770537045673176	0.00665886305831997
0.21	9.17980683666318	10.2211452531391	693.954988595039	-44.3243503921063	4.55015737345179	-1.3480235476728	-0.828658309598538	0.000781144705761784	0.00633391553451012
0.22	9.2485480258558	10.0350327664752	693.826210452761	-44.0381918084044	4.55342416911326	-1.34579563979966	-0.82459262617848	0.000787515102685369	0.00592756260101037
0.23	9.31226790847499	9.83424930531473	693.703615369517	-43.6976914613017	4.55381484174417	-1.34072772473992	-0.818653331870686	0.00078971048562686	0.00544239227442879
0.24	9.36766458327677	9.62176317241376	693.589753442956	-43.3063503813535	4.55148164440883	-1.3323504552702	-0.81056358401512	0.000787944424763365	0.00488325909832087
0.25	9.41247145034952	9.40066719168012	693.486794017061	-42.8690949164493	4.54666721922482	-1.32042191603313	-0.800180839739934	0.000782559845835271	0.00425710027617292
0.26	9.445467215724	9.17410343468357	693.396497694375	-42.3920949796541	4.539686146695	-1.30492128193886	-0.787492683112783	0.000774001128980613	0.00357267337806776
0.27	9.46643689149741	8.94519068203353	693.320202064935	-41.8825389570535	4.53090339032888	-1.28603408038901	-0.772609535562062	0.000762782376387758	0.00284023129809235
0.28	9.47608838881077	8.71695674354805	693.258820333263	-41.3483771137381	4.52071104281796	-1.26413036862315	-0.755754629249826	0.000749454009483983	0.00207115198656704
0.29	9.47593123615565	8.49227730223907	693.212851724752	-40.7980460328959	4.50950480612171	-1.23973729844847	-0.737251496275466	0.000734569759454323	0.00127754124585178
0.3	9.46812548347088	8.27382246664921	693.182402276294	-40.2401866330152	4.49766157416321	-1.21350761850912	-0.717509168552644	0.000718655892780948	0.000471826647645841
0.31	9.45530990696448	8.06401175180303	693.167214379786	-39.6833676931667	4.48551934308582	-1.18618566668271	-0.697005301750115	0.000702184200645797	-0.000333640461343959
0.32	9.4404191714643	7.86497779231025	693.166703272917	-39.1358256673045	4.47336046444788	-1.15857234243271	-0.676267521536781	0.000685549913664625	-0.00112695968425031
0.33	9.42649962687746	7.6785387449562	693.179998580346	-38.605229997633	4.46139899888641	-1.13149043312199	-0.655853417898254	0.000669055315355192	-0.00189702014999984
0.34	9.41653293341584	7.506179076009	693.205989014931	-38.0984812687886	4.4497726410495	-1.10575151253413	-0.63632975300968	0.000652899447345557	-0.00263379270052398
0.35	9.41327577502476	7.34903825437249	693.243368457396	-37.6215475071413	4.43853939072354	-1.08212544744291	-0.618251569444135	0.000637173947786886	-0.00332856825957311
0.36	9.41912260445419	7.20790678042996	693.290681835092	-37.1793418471317	4.4276788588062	-1.06131335161741	-0.602141963341422	0.000621864755437659	-0.00397413778451193
0.37	9.43599675775963	7.08322895902471	693.346369494894	-36.7756427725593	4.41709783669323	-1.04392462728852	-0.588473305929443	0.000606859152494787	-0.00456491192528659
0.38	9.46527348380234	6.9751118549568	693.408809079828	-36.4130562921341	4.40663953734737	-1.0304585408747	-0.577650651773074	0.000591957411518237	-0.00509698102223164
0.39	9.50773656348163	6.88333992913368	693.476354236127	-36.0930178021652	4.39609574584483	-1.02129059921805	-0.56999796888457	0.000576888154745413	-0.00556811828132488
0.4	9.56356834983525	6.80739492150768	693.547369759477	-35.8158300791319	4.38522100281289	-1.01666382865937	-0.565747677843452	0.000561326425508639	-0.00597773080827342
0.41	9.63237134137038	6.74648060412857	693.620263005281	-35.5807328618191	4.37374788840733	-1.01668491352914	-0.565033812397344	0.000544913409285181	-0.00632676461918744
0.42	9.71321789134012	6.69955205952144	693.693511518559	-35.3859988347317	4.36140247638221	-1.02132502266846	-0.567888931709372	0.000527276724890554	-0.0066175707548407
0.43	9.8047234225866	6.66534913725877	693.765686881499	-35.2290504988901	4.3479190833696	-1.0304250407744	-0.574244741416569	0.000508050234093097	-0.00685374020857822
0.44	9.9051376094145	6.6424337018812	693.835474744476	-35.1065923823501	4.33305354115156	-1.04370482351252	-0.583936229557638	0.000486892390387536	-0.0070399155572401
0.45	10.0124474331496	6.62923021023516	693.901690929138	-35.01475325644	4.31659436089869	-1.06077600944702	-0.596709001399642	0.000463502264079579	-0.00718158700279532
0.46	10.1244858250773	6.62406905188536	693.963293410353	-34.9492334306738	4.29837132801308	-1.08115784664143	-0.61222940610063	0.000437632538758947	-0.00728488005037024
0.47	10.2390397687282	6.62523196130073	694.019389942055	-34.9054527403603	4.2782612533249	-1.10429542712623	-0.630096985549444	0.000409098968619653	-0.00735634134051342
0.48	10.3539522146173	6.63099867522592	694.069241130436	-34.8786954562237	4.25619079944827	-1.12957966942114	-0.649858736503767	0.000377786008682812	-0.00740272830267667
0.49	10.4672129202976	6.63969387365552	694.112258903416	-34.864248978526	4.23213648862124	-1.15636835019115	-0.671024655298283	0.000343648569295659	-0.00743080738751246
0.5	10.5770343093151	6.64973331842709	694.148000584417	-34.8575337800871	4.20612216938387	-1.18400746396582	-0.693084024628057	0.000306710088040949	-0.00744716474669625
0.51	10.6819095763915	6.65966799926221	694.176159132762	-34.8542225943007	4.17821436409448	-1.21185218799409	-0.715521900768188	0.000267057340283729	-0.00745803242718621
0.52	10.7806514785242	6.66822502196955	694.19655051893	-34.8503472792826	4.14851602923772	-1.23928675070922	-0.737835265922063	0.000224832607403008	-0.00746913248042887
0.53	10.8724114663023	6.67434393564154	694.209099595932	-34.8423921150612	4.11715932951072	-1.26574254889933	-0.759548325220571	0.000180223973749448	-0.0074855408818196
0.54	10.9566799530614	6.67720720257737	694.213826132027	-34.8273725089215	4.08429805106607	-1.29071393093015	-0.780226453784495	0.000133454616636264	-0.00751157281309556
0.55	11.0332695256453	6.67626357327094	694.210832809258	-34.8028982100564	4.0501002581723	-1.31377115978261	-0.799488339388769	8.47719794492326e-05	-0.00755069065781338
0.56	11.1022837155399	6.67124324519511	694.200296905836	-34.767220195992	4.01474173308887	-1.33457018683301	-0.817015923436183	3.44376728449039e-05	-0.00760543595457024
0.57	11.1640745344021	6.66216386308061	694.18246703519	-34.7192604264702	3.97840063636582	-1.35285900004897	-0.832561818725974	-1.72811642839459e-05	-0.00767738648608731
0.58	11.2191923124998	6.64932666269884	694.157665714814	-34.6586237075708	3.94125369213585	-1.36848045210348	-0.84595397659901	-7.01184848131706e-05	-0.00776713958910328
0.59	11.2683314597549	6.63330236961199	694.126297730035	-34.5855910124464	3.9034740507324	-1.38137161756477	-0.857097485997693	-0.000123813591741495	-0.00787432258568595
0.6	11.3122756121543	6.61490683469722	694.088863326714	-34.5010938032759	3.86523082131114	-1.39155986640605	-0.865973508181239	-0.000178112933572492	-0.00799763090628726
0.61	11.3518452622396	6.59516681011644	694.045974328049	-34.4066692204848	3.82669011302905	-1.39915596665393	-0.87263547682545	-0.000232769578948345	-0.00813489396140304
0.62	11.3878504447292	6.5752767275032	693.998370454896	-34.3043964645778	3.78801728740976	-1.40434463607552	-0.877202816269649	-0.000287540735619946	-0.00828316810825385
0.63	11.4210504090795	6.55654781292747	693.946932564343	-34.1968152906138	3.74938001800944	-1.40737304674763	-0.879852542487631	-0.000342183860104957	-0.00843885516436633
0.64	11.4521215161032	6.54035133325384	693.89268931423	-34.0868282444221	3.7109516850476	-1.40853784409434	-0.880809204025034	-0.000396452027615076	-0.00859784388109838
0.65	11.4816339015271	6.52805818376755	693.83681397976	-33.9775890541201	3.67291460745449	-1.40817127212387	-0.880333686920718	-0.000450089286991875	-0.00875567067082714
0.66	11.5100368072217	6.52097736286969	693.780608809433	-33.8723803959846	3.63546263393037	-1.40662699934575	-0.878711443690392	-0.000502826709995175	-0.00890769476392708
0.67	11.5376519346988	6.52029610218914	693.725475371641	-33.7744850150445	3.59880267505387	-1.40426621681623	-0.876240709398841	-0.000554379763493451	-0.00904928194871104
0.68	11.5646737587428	6.52702449956746	693.672870715732	-33.687054827866	3.56315485336967	-1.40144453367933	-0.873221237934294	-0.000604447498728457	-0.00917599021376864
0.69	11.5911754725036	6.54194741565132	693.62425071216	-33.6129830999459	3.52875106793752	-1.39850012997736	-0.869944031644043	-0.000652713880447527	-0.00928375005455344
0.7	11.6171191259404	6.5655861309627	693.581003475445	-33.5547850142172	3.49583190248043	-1.39574354542497	-0.866682452523835	-0.000698851389228592	-0.00936903199524779
0.71	11.6423685598506	6.59817182178684	693.544377132128	-33.5144918873942	3.46464194004024	-1.39344939053241	-0.863684999845929	-0.000742526841445901	-0.00942899405993637
0.72	11.6667039071234	6.6396323178615	693.515407207787	-33.4935639251305	3.43542367079548	-1.39185016722741	-0.861169925091003	-0.000783409199266117	-0.00946160252243472
0.73	11.6898366991063	6.68959288594299	693.494849441121	-33.4928257371783	3.40841028420445	-1.39113228418687	-0.859321738203977	-0.000821179000016295	-0.00946572025921841
0.74	11.7114249375182	6.74739098790168	693.483123809146	-33.5124278867577	3.38381771535247	-1.39143425152435	-0.858289547043889	-0.000855538927615848	-0.00944115838154609
0.75	11.7310878263629	6.81210414743532	693.480274948253	-33.5518365743162	3.36183636476636	-1.39284694417161	-0.858187071113904	-0.000886224981155845	-0.0093886884601128
0.76	11.7484201594826	6.88258928852399	693.485953028522	-33.6098522242619	3.34262293043471	-1.39541573689198	-0.859094086743141	-0.000913017665764355	-0.0093100144850421
0.77	11.7630065888196	6.95753124350005	693.499417590263	-33.6846563371677	3.32629278234097	-1.39914423974192	-0.861058998021723	-0.000935752634377372	-0.009207705617091
0.78	11.7744361271266	7.03549762416806	693.519565035559	-33.7738845789471	3.3129132774208	-1.4039993039767	-0.864102188753797	-0.000954330240155259	-0.00908509266698221
0.79	11.782317251166	7.11499694790543	693.544978565099	-33.874722791189	3.30249836161462	-1.40991692745007	-0.868219796889038	-0.000968723511914255	-0.00894613297494346
0.8	11.7862938670223	7.19453683642599	693.573997549843	-33.9840215035761	3.29500474113911	-1.41680866747992	-0.873387564323285	-0.000978984133514285	-0.00879524984815424
0.81	11.786062192954	7.27267926143027	693.604801801452	-34.09842367603	3.29032983253768	-1.42456816918926	-0.879564450206592	-0.000985246088174657	-0.00863715386382191
0.82	11.7813883354649	7.34809018069115	693.635505094916	-34.2144998418016	3.28831162506463	-1.43307743880461	-0.88669575210454	-0.000987726716908325	-0.00847665409744159
0.83	11.7721260189034	7.41958145236667	693.664251694264	-34.3288845882156	3.28873051310148	-1.4422125335158	-0.894715552252806	-0.000986725034430804	-0.00831846765421292
0.84	11.7582336207219	7.48614358072943	693.689309575671	-34.4384084016558	3.29131308316756	-1.45184840023572	-0.903548390170073	-0.000982617244407809	-0.00816703576044329
0.85	11.7397894061683	7.54696856920558	693.709154514044	-34.5402192986753	3.29573777134197	-1.46186267160322	-0.913110151501413	-0.000975849497311053	-0.00802635413345456
0.86	11.7170036850846	7.60146286965917	693.722540131211	-34.6318893281361	3.30164224358396	-1.47213831425344	-0.923308249078065	-0.000966928036713707	-0.00789982444126679
0.87	11.6902265579578	7.6492510574094	693.728550287993	-34.7115019076235	3.30863229417596	-1.48256511610512	-0.934041248809038	-0.000956406981198834	-0.00779013245663685
0.88	11.659949994669	7.6901713774483	693.726631703775	-34.7777169887398	3.31629200685879	-1.49304008986361	-0.94519815393662	-0.000944874085984441	-0.00769915708846663
0.89	11.6268032004463	7.7242646625269	693.716606259468	-34.8298121632153	3.32419487978299	-1.50346695257763	-0.956657601559829	-0.000932934916914475	-0.00762791292979097
0.9	11.5915405589136	7.7517583008949	693.698663939861	-34.8676989583238	3.33191557991059	-1.51375490971126	-0.968287242201558	-0.000921195945104651	-0.00757652738883907
0.91	11.5550218795067	7.77304693274969	693.673338673021	-34.8919146639044	3.33904196585232	-1.52381702147208	-0.97994356572694	-0.000910247128598917	-0.00754425195516658
0.92	11.5181851839084	7.78867139998359	693.641470328306	-34.9035910308355	3.34518700126526	-1.53356845510686	-0.991472406354521	-0.000900644583609471	-0.00752950577173285
0.93	11.4820128049291	7.79929719802404	693.604156775907	-34.9044020396727	3.35000017477873	-1.5429249273197	-1.00271030888153	-0.000892893958970604	-0.00752994849498207
0.94	11.4474920993952	7.80569332528575	693.562700162353	-34.8964936284903	3.35317804771374	-1.55180161564851	-1.0134868719672	-0.000887435111554355	-0.00754257846882569
0.95	11.4155725519533	7.80871204284295	693.518551428127	-34.8823987739882	3.35447356808491	-1.56011276839012	-1.0236281076208	-0.000884628637756151	-0.00756385153620288
0.96	11.3871214301086	7.80926969087854	693.473256628897	-34.8649416353466	3.35370381861043	-1.56777217331935	-1.03296077450939	-0.000884744749123233	-0.00758981536709203
0.97	11.3628804090331	7.80832839973033	693.428407891212	-34.8471346029768	3.3507559073386	-1.57469456156502	-1.04131756185221	-0.000887954893196064	-0.00761625398277886
0.98	11.3434256928723	7.80687831268697	693.385600925711	-34.8320720602215	3.34559076120125	-1.5807979314423	-1.04854292562796	-0.000894326419680178	-0.00763883717951858
0.99	11.329134103016	7.8059198237537	693.346400033766	-34.8228244880377	3.33824464408742	-1.5860066853426	-1.05449931407071	-0.000903820483944083	-0.00765326976930296
1	11.3201573804803	7.80644533193444	693.312310574738	-34.8223362479798	3.32882829035685	-1.59025538847164	-1.05907346863953	-0.000916293271053171	-0.0076554359258874
1.01	11.3164065688532	7.80942011685102	693.284757999623	-34.8333299967589	3.31752362035748	-1.59349288808449	-1.06218245256924	-0.000931500519295574	-0.00764153441399686
1.02	11.3175478277939	7.8157621301432	693.265071876726	-34.858220245726	3.30457808467085	-1.59568648131882	-1.06377904357945	-0.000949105225508097	-0.00760820105324633
1.03	11.3230104069172	7.82632074580259	693.254472890114	-34.899038108684	3.29029676663177	-1.59682579244529	-1.06385613132313	-0.000968688326077207	-0.00755261539293157
1.04	11.3320068262551	7.84185478784448	693.254060613947	-34.9573688063821	3.27503245623844	-1.59692601809687	-1.06244978397627	-0.000989762065619855	-0.00747258922016077
1.05	11.3435646077182	7.86301042142736	693.264799964185	-35.0343030368336	3.25917399079523	-1.59603022174057	-1.05964069171766	-0.00101178568691846	-0.0073666351666303
1.06	11.3565682290196	7.89029972172655	693.287504590437	-35.1304028934368	3.24313323610067	-1.59421040465269	-1.05555375692588	-0.00103418299733879	-0.00723401429804572
1.07	11.3698093721919	7.92408089689671	693.322816060865	-35.2456826287601	3.2273311537899	-1.59156714699346	-1.05035568036874	-0.00105636128658142	-0.0070747621489934
1.08	11.3820430522127	7.96454121834825	693.371178460193	-35.379604226334	3.21218346200666	-1.5882276952521	-1.04425048735654	-0.00107773098871044	-0.00688969319443639
1.09	11.392046867503	8.01168369348064	693.432808897977	-35.5310874561115	3.19808644367899	-1.58434246651049	-1.03747304460687	-0.00109772540205499	-0.00668038422183388
1.1	11.3986804320503	8.06531840273408	693.507665333468	-35.698533846729	3.18540348455086	-1.58008004010418	-1.03028073293208	-0.00111581971171072	-0.00644913748543836
1.11	11.4009420350211	8.12505922332931	693.595413980207	-35.8798638006331	3.1744529268718	-1.57562080723382	-1.02294355686314	-0.00113154851211446	-0.00619892489176514
1.12	11.3980197219786	8.19032639343944	693.695399271977	-36.0725658949738	3.16549779978846	-1.57114954246304	-1.01573308268484	-0.00114452101441225	-0.00593331479152559
1.13	11.3893342853034	8.26035505623081	693.80661987111	-36.2737572391672	3.1587379306814	-1.56684724143682	-1.00891069290731	-0.00115443315760919	-0.00565638324958482
1.14	11.3745720648185	8.33420959088592	693.927714410273	-36.4802535870832	3.15430485149473	-1.56288263069996	-1.00271571959352	-0.00116107593353244	-0.00537261194185445
1.15	11.3537059623309	8.41080321679361	694.056960528255	-36.6886477184411	3.152259791602	-1.55940379335808	-0.997354063569145	-0.00116433938813774	-0.00508677509517347
1.16	11.327003633222	8.48892207610363	694.192290261944	-36.8953944051647	3.15259489798766	-1.5565303651902	-0.992987915350065	-0.00116421197350606	-0.00480381814721539
1.17	11.2950224027439	8.56725278387125	694.331323994487	-37.0969000650623	3.15523765164278	-1.55434673822882	-0.989727163049314	-0.00116077518616801	-0.00452873105594399
