Time [s]	GRFml [N]	GRFap [N]	GRFv [N]	Mml [N.m]	Map [N.m]	Mv [N.m]	Mfree [N.m]	COPml [m]	COPap [m]
0.01	20.2712628459714	4.2831498247219	921.871725945695	-90.1776908832445	-3.15842756123262	-3.3042221302007	-1.30660721091129	0.000354698241502789	0.00376479138284114
0.02	20.3353336241544	4.51697344617247	922.421308164532	-90.0549601640867	-3.31820929814153	-3.34661122867353	-1.34501468833436	0.000182246936178215	0.00357339171857747
0.03	20.4004359796976	4.74643496869343	922.972031124841	-89.9358055992607	-3.47712927216842	-3.38832645899007	-1.38253718739874	1.08062402934032e-05	0.00338573754706399
0.04	20.4669457627034	4.96706297524305	923.517807651413	-89.8218755651874	-3.63359477681961	-3.42867327613331	-1.41842295277935	-0.000157929085240489	0.00320424359733849
0.05	20.535301932447	5.1746783698052	924.05202908053	-89.7144045930989	-3.78608187975131	-3.46701036085943	-1.45197776302668	-0.00032234231421489	0.00303093125150926
0.06	20.6059648798608	5.36555447350941	924.567621174325	-89.6141358259823	-3.93315965787771	-3.50277261388997	-1.48259246607502	-0.000480921104108916	0.00286733879506446
0.07	20.679370077985	5.53655071722194	925.057162321349	-89.5212742775136	-4.07351307719986	-3.53548962821856	-1.50976573963561	-0.000632282137879413	0.0027144585263368
0.08	20.7558797779892	5.68521343744951	925.513069170426	-89.435475222425	-4.20596452888363	-3.56479873196846	-1.53312094643894	-0.000775193944859386	0.00257270488534309
0.09	20.8357357748212	5.80983974898398	925.927847769688	-89.3558695413288	-4.32949367773716	-3.59045208120228	-1.55241635752846	-0.000908597437548907	0.00244191578482127
0.1	20.9190164140658	5.9095030219366	926.294400975912	-89.2811251542454	-4.44325497370216	-3.61231768774939	-1.567548440829	-0.00103162342311518	0.00232138717358142
0.11	21.0056009656313	5.98404092775275	926.606376055277	-89.2095410203331	-4.54659197230212	-3.63037465941516	-1.57854832657107	-0.00114360619040642	0.00220993869413062
0.12	21.0951442278741	6.0340091747426	926.858530646382	-89.1391677645271	-4.63904753447235	-3.6447032806929	-1.58557194074087	-0.001244092257691	0.00210600627299465
0.13	21.187063742237	6.06060581143539	927.047091131438	-89.0679470016572	-4.72036903745291	-3.6554708488477	-1.58888462369583	-0.00133284349291456	0.00200775575097417
0.14	21.2805413081482	6.06557226590754	927.170075362689	-88.993860017106	-4.79050791642755	-3.6629143874186	-1.58884131086302	-0.0014098340683996	0.00191321034576759
0.15	21.3745396265381	6.05107808561472	927.227551859694	-88.9150757365662	-4.84961314741548	-3.66732147863405	-1.58586353897198	-0.00147524105365008	0.00182038393198876
0.16	21.4678339227547	6.01959665752322	927.221810093456	-88.8300879290954	-4.89801864194934	-3.66901048700842	-1.5804146518634	-0.0015294288432956	0.00172741187514673
0.17	21.5590573756845	5.97377906434596	927.157421184774	-88.7378323338903	-4.93622491435055	-3.66831139395119	-1.57297461497325	-0.00157292801931695	0.0016326714754786
0.18	21.6467581878628	5.91633273167042	927.041174967012	-88.6377758224223	-4.96487576291686	-3.66554833822396	-1.56401580971481	-0.00160640961626659	0.00153488493103342
0.19	21.7294652507319	5.84991071651619	926.881887438859	-88.5299716933669	-4.98473103983482	-3.66102477388336	-1.55398107252102	-0.00163065605931804	0.00143319904465707
0.2	21.8057586625818	5.77701645817103	926.690081574974	-88.4150775957956	-4.99663683994483	-3.65501193250388	-1.54326507446891	-0.00164653024990721	0.00132723757182195
0.21	21.8743409027592	5.69992763298955	926.477553603522	-88.2943352044285	-5.0014945929679	-3.64774102732228	-1.53219991468377	-0.00165494436475551	0.00121712400748215
0.22	21.9341042936133	5.62064149647089	926.256845500401	-88.1695134322125	-5.0002305848859	-3.63939938040727	-1.52104553538246	-0.0016568299044442	0.00110347459918914
0.23	21.9841905077135	5.54084282091076	926.040651915501	-88.0428194631844	-4.99376735996463	-3.63013040558125	-1.50998527269657	-0.00165311038171209	0.000987363307375699
0.24	22.0240382947975	5.46189429952081	925.841195440354	-87.9167840410312	-4.98299827385308	-3.62003715307101	-1.49912655215649	-0.00164467779176479	0.000870262177434494
0.25	22.0534162811452	5.38484813452146	925.669607579142	-87.7941291035617	-4.96876619778942	-3.60918892763255	-1.48850643938005	-0.00163237368022989	0.000753962025627233
0.26	22.0724385851862	5.31047649667646	925.535353690741	-87.6776268982282	-4.95184703883216	-3.59763033820838	-1.4781014836554	-0.00161697524842251	0.000640479381708456
0.27	22.0815620344437	5.23931767009374	925.445738412077	-87.569960084366	-4.93293837052083	-3.58539202908504	-1.46784106160684	-0.00159918654327409	0.000531956216922605
0.28	22.0815648888204	5.17173400603885	925.405523734174	-87.4735920108357	-4.9126530937323	-3.57250228216037	-1.45762325344919	-0.00157963440403174	0.000430559093047303
0.29	22.0735080989055	5.10797732424942	925.416685256036	-87.3906553911167	-4.89151769928063	-3.55899866677069	-1.4473321742466	-0.00155886851046096	0.000338384007974299
0.3	22.0586811827264	5.04825713467264	925.478323632754	-87.322866066124	-4.86997440934693	-3.54493894474806	-1.43685564056543	-0.00153736462330856	0.000257372430624472
0.31	22.0385357244519	4.99280701442638	925.586738446028	-87.2714665717299	-4.84838625617205	-3.53041050935112	-1.42610207723519	-0.00151552994545287	0.000189242886098145
0.32	22.0146102291008	4.94194466394812	925.73566133545	-87.2372019657597	-4.82704402882426	-3.51553774149037	-1.41501565348245	-0.00149370947126937	0.000135441066476658
0.33	21.9884505671454	4.89612157401965	925.91663496148	-87.2203279878353	-4.80617398971263	-3.50048679840009	-1.40358877312239	-0.00147219223332497	9.71099137996173e-05
0.34	21.9615304861092	4.85595884400915	926.119514944592	-87.2206492992128	-4.7859453312057	-3.48546750116094	-1.39187121851891	-0.00145121649243024	7.50795657400299e-05
0.35	21.9351766427921	4.82226647485227	926.333064001423	-87.2375834451808	-4.76647650077749	-3.47073215048014	-1.37997545069896	-0.00143097313513442	6.98755853060506e-05
0.36	21.9105023250315	4.79604438347522	926.545601636073	-87.2702444467916	-4.74783975512896	-3.45657126698161	-1.36807778659451	-0.0014116068222532	8.17426170852398e-05
0.37	21.8883535059281	4.7784644071194	926.745669356028	-87.317538679544	-4.73006358870517	-3.44330641513376	-1.35641539792932	-0.00139321474951356	0.000110679610566905
0.38	21.8692701393664	4.77083363970576	926.922670704443	-87.3782650150475	-4.71313299504729	-3.43128042139797	-1.3452792947927	-0.00137584321134755	0.000156482089932186
0.39	21.8534647080434	4.77454051809668	927.067447474405	-87.4512111265358	-4.69698783368695	-3.42084543046288	-1.33500366142556	-0.00135948247528782	0.000218786667406531
0.4	21.8408190279163	4.79098610289054	927.172758135225	-87.5352383850544	-4.68151986417552	-3.4123493528104	-1.3259520939915	-0.00134406075235897	0.000297113104087629
0.41	21.8308992564692	4.82150392624486	927.233631402683	-87.6293488516064	-4.66656924785661	-3.40612133794736	-1.31850144269226	-0.0013294382657729	0.000390899700610001
0.42	21.8229880103181	4.86727256120832	927.24757650495	-87.7327294135841	-4.65192148651913	-3.40245695757894	-1.31302407696781	-0.00131540255723744	0.000499528606550739
0.43	21.8161315338931	4.92922566108435	927.214641387645	-87.8447700009631	-4.63730584972408	-3.40160380058534	-1.30986946736307	-0.00130166621322756	0.000622338705709505
0.44	21.8091990342191	5.00796458803181	927.137320145438	-87.9650549050817	-4.62239633016018	-3.40374816727001	-1.30934600732091	-0.00128786813447779	0.000758624979560168
0.45	21.8009506574762	5.10367887029299	927.020320629196	-88.0933283538428	-4.60681605628865	-3.40900350579533	-1.31170398132081	-0.00127357930927732	0.000907624575851335
0.46	21.7901101689491	5.21607957978263	926.870211770228	-88.2294375143697	-4.59014588797912	-3.4174011620236	-1.3171205237945	-0.00125831379066289	0.00106849111003243
0.47	21.7754382316804	5.34435030009843	926.694977104209	-88.3732578507124	-4.57193763450081	-3.42888391906559	-1.32568731039978	-0.00124154523238354	0.00124025990161099
0.48	21.7558022659586	5.48711966550349	926.503505835848	-88.5246071347373	-4.55173198172755	-3.44330268927256	-1.33740158653735	-0.00122272892845709	0.001421807802209
0.49	21.7302391995227	5.64245851352392	926.305055312261	-88.6831552977886	-4.52908081847623	-3.46041659414005	-1.3521609765875	-0.00120132885194498	0.00161181192971384
0.5	21.6980079584697	5.80790354065754	926.108718913501	-88.8483376609403	-4.50357323635895	-3.4798965317505	-1.36976234152055	-0.00117684873019675	0.00180871192909067
0.51	21.6586292588704	5.98050802903151	925.922931254896	-89.0192788750718	-4.47486407210646	-3.50133219209388	-1.38990477258382	-0.00114886575859731	0.00201068030866866
0.52	21.611911086388	6.15691878106714	925.755038521772	-89.1947341620963	-4.44270349618433	-3.52424234286137	-1.41219663382892	-0.00111706517542883	0.00221560495537557
0.53	21.5579591372296	6.33347692959566	925.61095614084	-89.3730532374178	-4.40696585664445	-3.548088076844	-1.43616640341445	-0.00108127362771659	0.00242108714870552
0.54	21.4971723788561	6.50633886097804	925.494929328959	-89.5521707060865	-4.36767579044196	-3.57228859128858	-1.46127691753218	-0.00104148907902841	0.00262445733430795
0.55	21.4302247165718	6.67161218194444	925.409404873269	-89.7296248812541	-4.32502953973481	-3.5962389634733	-1.48694249372499	-0.000997904966890519	0.00282280966914444
0.56	21.3580344732054	6.82550056087421	925.355015294388	-89.9026050089955	-4.27940947565988	-3.61932929893678	-1.51254830281985	-0.000950926424626058	0.00301305501018534
0.57	21.2817239646834	6.96445046027703	925.330669780852	-90.0680249388401	-4.23139004634164	-3.64096456233407	-1.53747127044488	-0.000901176646743122	0.00319199069101712
0.58	21.202571857863	7.08529231829492	925.333740333144	-90.222619489324	-4.18173372930034	-3.66058435840965	-1.5611017201955	-0.000849491896062723	0.00335638421384181
0.59	21.1219612152998	7.18536868608145	925.360326700114	-90.3630582420888	-4.13137606996808	-3.67768191413	-1.58286492222063	-0.000796904212170761	0.00350306696320883
0.6	21.041326164498	7.26264221629161	925.405580111915	-90.4860703527232	-4.08139950539154	-3.69182152403819	-1.60224168624495	-0.000744611561626259	0.00362903328817291
0.61	20.9620999882652	7.31577723067936	925.464063601023	-90.5885732587644	-4.03299637227607	-3.70265376007831	-1.61878714131909	-0.000693935937343564	0.00373153984459766
0.62	20.8856671396039	7.34418984739735	925.530125862606	-90.6677979296659	-3.98742223881814	-3.70992781432651	-1.63214688122495	-0.00064627072466882	0.00380819995911844
0.63	20.8133212681076	7.34806326561811	925.598266073998	-90.7214035415778	-3.94594143084989	-3.7135004371059	-1.6420697294072	-0.000603019453836643	0.00385706796948289
0.64	20.7462308390414	7.32832670152036	925.663468751201	-90.7475751414366	-3.90976729159622	-3.71334105160046	-1.648416493642	-0.000565528796322894	0.00387670899278544
0.65	20.6854133675456	7.28659853483139	925.721490406268	-90.7450989323664	-3.88000026798098	-3.70953276589437	-1.65116423820308	-0.000535019278038739	0.0038662503385881
0.66	20.6317187152703	7.2250963293338	925.769083290316	-90.713411185628	-3.8575673065332	-3.70226915975295	-1.6504057955649	-0.00051251762005945	0.00382541177113926
0.67	20.5858213399258	7.14651839440629	925.804145648388	-90.6526183673802	-3.84316622874028	-3.69184689075764	-1.64634446160037	-0.000498794830031474	0.0037545129772651
0.68	20.5482208808394	7.05390331880276	925.825792447263	-90.5634877567693	-3.8372187116413	-3.67865433604678	-1.63928405458937	-0.000494314119416006	0.00365445784953004
0.69	20.519250031782	6.95047530545553	925.834345233241	-90.4474095193622	-3.83983521213919	-3.66315665472425	-1.62961475317763	-0.0004991923948961	0.00352669647715508
0.7	20.4990883161527	6.83948406285563	925.831244403523	-90.3063327860913	-3.85079464743056	-3.64587781454841	-1.61779534489827	-0.000513178468086085	0.00337316697486865
0.71	20.4877801524463	6.72404839218383	925.818891511346	-90.1426796833083	-3.86954090101062	-3.62738026750692	-1.604332699507	-0.000535650269189017	0.00319622039602231
0.72	20.4852554862032	6.60701241593301	925.800433067172	-89.9592423906375	-3.8951973023993	-3.60824307553163	-1.58975941803689	-0.000565632281928437	0.00299853289777602
0.73	20.4913512679133	6.49082263088117	925.779500465674	-89.7590691152454	-3.92659918200841	-3.58903937397065	-1.57461069171431	-0.000601833202742593	0.00278300998864234
0.74	20.5058321678073	6.37743268445644	925.759923010796	-89.545345329412	-3.96234349457917	-3.57031411166581	-1.55940143249263	-0.000642702546005399	0.00255268804311642
0.75	20.5284091255729	6.26824105405645	925.745432414878	-89.3212767088725	-4.00085340652116	-3.55256301901165	-1.54460471154099	-0.000686503657688708	0.00231063828683647
0.76	20.5587546182939	6.16406476866379	925.739377539609	-89.0899799378332	-4.04045472763427	-3.53621372700847	-1.53063246970564	-0.000731399453854439	0.00205987813699234
0.77	20.5965138718934	6.06515008645528	925.74446749792	-88.8543869362464	-4.07946020655913	-3.52160989035649	-1.51781935272045	-0.00077554625420561	0.00180329415269541
0.78	20.6413116158085	5.97121877638758	925.76255956522	-88.617167155	-4.11625706445106	-3.50899905693005	-1.50641038188204	-0.000817190408759815	0.00154357996119879
0.79	20.6927543618406	5.88154649088255	925.794505722269	-88.3806714277576	-4.14939276292294	-3.49852487706399	-1.49655300494079	-0.000854762072628848	0.00128319145174587
0.8	20.7504285505557	5.79506779558556	925.840068185333	-88.146899527968	-4.1776539241313	-3.49022406334228	-1.48829388724296	-0.000886960500956038	0.00102432035580217
0.81	20.8138952285267	5.71050085730546	925.897910133828	-87.9174921285159	-4.20013355790795	-3.48402830129414	-1.48158060334456	-0.000912825617544899	0.000768886149750486
0.82	20.8826821767842	5.62648367457522	925.965663227122	-87.6937463782729	-4.21628229757341	-3.47977108184507	-1.47626817754997	-0.000931791333890904	0.000518545106112073
0.83	20.9562745895679	5.54171312951641	926.040068654777	-87.476652876573	-4.22594017654124	-3.47719918769313	-1.47213020214324	-0.000943717112872546	0.00027471434936524
0.84	21.0341054931075	5.45507807565423	926.117183662886	-87.2669505256196	-4.22934654690459	-3.47598832973827	-1.46887404075854	-0.000948895515924334	3.86079901031899e-05
0.85	21.1155470933511	5.36577815184206	926.19264103703	-87.0651946504983	-4.22712698723132	-3.47576220912585	-1.46615941076445	-0.000948034862925193	-0.000188718156477863
0.86	21.1999041524521	5.27342099284408	926.26194519694	-86.8718329668008	-4.22025739534757	-3.47611408855981	-1.46361944524403	-0.000942217582198777	-0.000406317106293519
0.87	21.2864103257924	5.17809192722669	926.32078565146	-86.687283503365	-4.21000683041879	-3.47662980591135	-1.46088317687944	-0.000932836245741298	-0.000613300460932234
0.88	21.3742281592975	5.08039202088945	926.365346820541	-86.512008490203	-4.19786197175011	-3.47691106482406	-1.45759827797821	-0.000921510589694048	-0.000808791266031478
0.89	21.4624531701694	4.98144232583121	926.392592839968	-86.3465785142675	-4.18543721674252	-3.47659779945215	-1.45345284632408	-0.000909989940144241	-0.00099188358858246
0.9	21.5501221353594	4.88285429937294	926.400507029863	-86.1917219171472	-4.17437537285013	-3.47538843867888	-1.44819505459303	-0.000900046340827666	-0.00116161198395354
0.91	21.6362254147856	4.78666843258136	926.388268236054	-86.0483554208496	-4.16624454685989	-3.47305699008601	-1.44164958466968	-0.000893364268145312	-0.00131693342016739
0.92	21.7197228634553	4.69526503336746	926.356350140586	-85.917593256466	-4.16243715541007	-3.46946602210255	-1.43372994299743	-0.000891433090969454	-0.00145672348224828
0.93	21.7995626586449	4.61125272625389	926.306534667608	-85.8007335497437	-4.16407694986584	-3.4645748362711	-1.42444598750305	-0.000895448373470836	-0.00157978781630266
0.94	21.8747022011189	4.53734145427266	926.241836462835	-85.6992222855928	-4.17193956509577	-3.4584423785416	-1.41390627295404	-0.000906227728316358	-0.00168488882391403
0.95	21.9441301533554	4.4762075248371	926.166341692676	-85.6145967205802	-4.18639138626173	-3.4512247237983	-1.40231511815962	-0.000924146218865175	-0.00177078662708657
0.96	22.0068886566571	4.4303584917676	926.084970630303	-85.5484115295414	-4.20735052230525	-3.44316726414743	-1.38996459230489	-0.000949095310787031	-0.00183629234955743
0.97	22.0620948198062	4.40200540948204	926.003179188065	-85.502152160365	-4.23427243939597	-3.4345920206766	-1.37722188762797	-0.00098046812944487	-0.00188033086873686
0.98	22.108960684956	4.39294927071829	925.926619257409	-85.4771407482705	-4.26616141637138	-3.42588076280597	-1.36451277441741	-0.00101717234878453	-0.00190200945460164
0.99	22.1468110364842	4.4044873188485	925.86078102938	-85.4744404502811	-4.30160752059255	-3.41745484319953	-1.35230201045778	-0.00105767049499971	-0.00190068819381232
1	22.1750986060422	4.43734351033072	925.810642091221	-85.4947641733698	-4.33884735399822	-3.40975282668019	-1.34107169541195	-0.00110004588167579	-0.00187604785149341
1.01	22.1934164202373	4.4916258103873	925.780347856812	-85.5383933875375	-4.37584547113324	-3.40320709966404	-1.33129862178628	-0.00114209089896556	-0.00182815087922387
1.02	22.2015072145152	4.56681136028701	925.772945769153	-85.6051120688383	-4.41039220223495	-3.39822068749316	-1.32343168301703	-0.00118141305608969	-0.00175749163682917
1.03	22.1992699786109	4.66175897715431	925.790191845792	-85.6941598640437	-4.44021269200334	-3.39514548019224	-1.31787036324069	-0.00121555311589232	-0.00166503252769534
1.04	22.1867637910174	4.77474704094412	925.832442806166	-85.8042073855605	-4.4630813396834	-3.39426297612897	-1.31494526041303	-0.0012421089380865	-0.00155222359457509
1.05	22.1642091345862	4.90353366826247	925.898640635708	-85.9333552229847	-4.47693553123608	-3.39576850486084	-1.31490149161658	-0.00125885831532586	-0.00142100410633034
1.06	22.1319868627131	5.04543522039622	925.986389514233	-86.0791568923031	-4.47998260222775	-3.39975969495855	-1.31788570186127	-0.00126387416367689	-0.00127378569651627
1.07	22.090634913502	5.19741866396715	926.092118129543	-86.2386646287206	-4.47079435280067	-3.40622972169605	-1.32393724884208	-0.00125562590358028	-0.00111341760457895
1.08	22.0408427627163	5.35620308869657	926.211314081554	-86.4084957481223	-4.44838412657903	-3.41506561630897	-1.33298396816841	-0.00123306169492903	-0.000943135445063789
1.09	21.9834434852578	5.51836575468642	926.338811884049	-86.5849163233223	-4.41226241948906	-3.42605165665128	-1.34484273854406	-0.00119566730135426	-0.000766495636459696
1.1	21.9194031822194	5.68044833971461	926.469112424729	-86.7639381926442	-4.36246814438489	-3.43887760193576	-1.35922486719061	-0.00114349866916697	-0.000587298131902739
1.11	21.8498074492102	5.83905952265644	926.596709951809	-86.9414248660282	-4.29957397547715	-3.4531512944632	-1.37574610720059	-0.00107718672503237	-0.000409500407520538
1.12	21.775844532033	5.99097060652315	926.716402856677	-87.1132017214449	-4.2246655598247	-3.46841494018249	-1.39394090744865	-0.000997914336662087	-0.000237125800828214
1.13	21.698784853196	6.13320149228101	926.823566679664	-87.2751659749565	-4.13929573740235	-3.48416420723087	-1.41328029132348	-0.000907366766954923	-7.41692857317428e-05
1.14	21.6199567053109	6.26309491154208	926.914371665718	-87.4233922270888	-4.04541618524766	-3.4998691548881	-1.43319257367788	-0.000807658223167834	7.54963373750112e-05
1.15	21.5407180948633	6.37837737612124	926.985932466301	-87.5542298893357	-3.94529003015728	-3.51499592996034	-1.4530859676574	-0.000701238212822574	0.000208211030233288
1.16	21.4624249729144	6.47720578588203	927.036383725953	-87.6643894233268	-3.84138990307653	-3.52902814638148	-1.47237201589944	-0.00059078233349901	0.00032061228499046
1.17	21.3863963905083	6.55819905029073	927.064881731945	-87.7510150252418	-3.7362865932445	-3.54148689721026	-1.4904887141891	-0.000479072819282809	0.000409711697700918
