Time [s]	GRFml [N]	GRFap [N]	GRFv [N]	Mml [N.m]	Map [N.m]	Mv [N.m]	Mfree [N.m]	COPml [m]	COPap [m]
0.01	8.56816172007057	-0.931108597382098	625.179510258645	-62.7042528831179	6.76855842992595	0.679095809315684	1.54861278280266	-0.000801391961649649	0.00100025140831209
0.02	9.19247533174234	-0.668691050077255	625.514829683814	-62.7537249632885	6.85339929216199	0.507721134457635	1.4373537380795	-0.000671220343000262	0.00103379282936665
0.03	9.80420605926365	-0.412164465018245	625.843621013688	-62.8027455865921	6.93908371528029	0.339581153175483	1.32809875927477	-0.000539807232966953	0.00106744518261148
0.04	10.39194350685	-0.16674892460006	626.159742304222	-62.8501675606351	7.02579692101711	0.177712001008004	1.22278873791814	-0.000406732909634772	0.00110034385917553
0.05	10.9451826781788	0.0627254083250639	626.457531411872	-62.8948376654923	7.11372679744231	0.024913256563372	1.12321288379672	-0.000271580731919581	0.00113154183426942
0.06	11.4547445764993	0.272017854356932	626.732030397599	-62.935629660444	7.20302356968852	-0.116360642996767	1.03094049440916	-0.000134005011911211	0.00116002841256486
0.07	11.9131240664275	0.457645024942146	626.979169970563	-62.9714743153851	7.29376484146916	-0.244089813138078	0.947265226906537	6.21104112343007e-06	0.0011847499744005
0.08	12.3147470618763	0.617008102474226	627.195904558173	-63.0013853741561	7.38592887646484	-0.356754616187958	0.87316459557018	0.00014911152849971	0.0012046318987964
0.09	12.6561253440836	0.74847358659884	627.380292132416	-63.0244807553722	7.47937805197518	-0.453374726271835	0.809276356048487	0.000294540858426501	0.00121860089277114
0.1	12.935904056334	0.851404538134413	627.531516694688	-63.0399986957708	7.57385340218876	-0.533520413035686	0.755892324296006	0.00044213458448069	0.00122560711385537
0.11	13.154803652752	0.926142435322992	627.649855022526	-63.0473089049471	7.66898016835419	-0.597296647935433	0.712969095002655	0.00059132768459642	0.00122464569492488
0.12	13.3154643289952	0.973942674133572	627.736592645104	-63.0459190994082	7.76428336539259	-0.645302264703932	0.680154141177458	0.000741378629315325	0.00121477751198136
0.13	13.422206338391	0.996869312269453	627.79389682418	-63.035477498634	7.85921161923265	-0.678567800820622	0.656824949228107	0.000891406585519488	0.00119514921765219
0.14	13.4807237979823	0.997656730850066	627.824656417756	-63.0157719874721	7.95316696870795	-0.698476728737057	0.6421382130227	0.00104043836353719	0.00116501264814504
0.15	13.4977324212233	0.979547368133248	627.832299805324	-62.9867266796791	8.04553798473331	-0.706675501212485	0.635085701584975	0.00118746124484	0.00112374367344756
0.16	13.4805929934449	0.946115512615417	627.82060253129	-62.9483965683578	8.13573344492139	-0.7049781603299	0.634553239149601	0.00133147762168079	0.0010708604022604
0.17	13.4369323535243	0.901087321128908	627.7934960117	-62.9009608397158	8.22321390502841	-0.695271198800215	0.63937929017423	0.00147155743289533	0.00100604040532225
0.18	13.3742822749475	0.848166786722608	627.754887634606	-62.8447152811214	8.30751880666692	-0.679423944954479	0.648409909285427	0.00160688468171103	0.000929136336466879
0.19	13.2997541431744	0.790876393796009	627.708500992092	-62.7800640586672	8.38828721892061	-0.659209021025605	0.660547268747432	0.00173679485453126	0.000840189074477721
0.2	13.2197639520724	0.732419766164927	627.657742966068	-62.7075109975034	8.46527088647438	-0.636236466215947	0.674789575341038	0.00186080079570905	0.000739437343575067
0.21	13.1398181728953	0.675571859812473	627.605602119792	-62.627650389559	8.53833889995541	-0.611904000783729	0.690260888140948	0.00197860548925981	0.000627322744960537
0.22	13.0643667799486	0.622600308928996	627.554580495437	-62.5411572904341	8.60747396496771	-0.587364718935681	0.706230097476161	0.00209010119613006	0.0005044892710344
0.23	12.9967254345839	0.575219535127404	627.506658649381	-62.4487772544644	8.67276087615553	-0.563512319567523	0.722119071125047	0.00219535542414049	0.000371776673405363
0.24	12.9390647944178	0.534577300720271	627.463291717363	-62.351315490021	8.73436835787554	-0.540982891192391	0.737500666950756	0.00229458518879052	0.000230207482746769
0.25	12.8924613484829	0.50127163683558	627.425432610495	-62.2496254844464	8.79252587763508	-0.520171325901066	0.752087908280026	0.00238812187866084	8.0967977137178e-05
0.26	12.8570012521551	0.475394593192	627.39357718643	-62.1445972327397	8.8474973459134	-0.501259697301847	0.765716084938171	0.00247636969966007	-7.46161033492176e-05
0.27	12.8319264631074	0.45659810036587	627.367825467353	-62.0371452867746	8.89955377071331	-0.48425443237958	0.77831985554295	0.00255976108469319	-0.000235107865197134
0.28	12.8158111187616	0.444176442481684	627.347952699763	-61.9281969036563	8.94894693287117	-0.469028852252305	0.789907573995678	0.00263871258865001	-0.000398990059175611
0.29	12.8067555489768	0.437159417714804	627.333484246253	-61.818680597578	8.99588599546925	-0.455367649194874	0.800535045698397	0.00271358463754545	-0.000564696701547102
0.3	12.8025855374459	0.434410201775785	627.323768910249	-61.7095153800441	9.04051867439048	-0.443010087938624	0.810280748745938	0.00278464808532765	-0.000730643910304238
0.31	12.8010453420744	0.434722192128334	627.318046237991	-61.6016009069959	9.08291820241684	-0.431689135067625	0.819224253884396	0.00285205989507971	-0.000895258584724376
0.32	12.7999744373387	0.436909649708682	627.315504514984	-61.495808644608	9.12307684815687	-0.421164287455913	0.82742917393727	0.00291584946333239	-0.00105700393884475
0.33	12.7974598082943	0.439887712205594	627.31532746253	-61.3929740319901	9.16090623962283	-0.411246538186254	0.834931503710366	0.00297591621813728	-0.00121440137443567
0.34	12.7919577550756	0.442738265678096	627.316728926991	-61.2938894777876	9.19624422834705	-0.40181463218918	0.841733712983088	0.00303203821840589	-0.00136604868268841
0.35	12.7823814081035	0.444759166660607	627.318976030529	-61.1992979005384	9.22886755058017	-0.392822470680913	0.847804466050591	0.00308389063589728	-0.00151063502990247
0.36	12.7681523681801	0.445495346323369	627.321402223631	-61.1098864310581	9.25850913105559	-0.384298174577174	0.85308339673678	0.00313107227558173	-0.00164695355111172
0.37	12.7492169509371	0.444751350339576	627.323412377008	-61.0262798570114	9.28487856009664	-0.376335871262555	0.857489998082642	0.00317313773533566	-0.00177391260066215
0.38	12.7260293343871	0.442585830507576	627.324482433313	-60.949033416923	9.30768407700979	-0.369081695303553	0.860935414131713	0.00320963245653963	-0.00189054676288916
0.39	12.6995054113561	0.439289374003811	627.324156199606	-60.878624646819	9.32665432337312	-0.362715772411643	0.863335761973749	0.00324012779038413	-0.00199602860328804
0.4	12.6709522931081	0.435347809195004	627.322041623754	-60.8154441422196	9.34155819100539	-0.357432079886297	0.864625570889439	0.00326425330046618	-0.00208968185626204
0.41	12.6419791808785	0.431393746031724	627.317808414358	-60.7597853075294	9.35222127350935	-0.35341805041975	0.864769998413182	0.00328172382437072	-0.00217099633379335
0.42	12.614395726259	0.428149582032987	627.311188209005	-60.7118334031451	9.35853772088038	-0.350835624647793	0.863774658461861	0.00329235929506757	-0.00223964434867953
0.43	12.5901040664656	0.426365522934419	627.301977757223	-60.6716544422483	9.36047666983644	-0.349805184969841	0.861692155483346	0.00329609593553095	-0.00229549793335877
0.44	12.5709904874576	0.426756323765238	627.290044854118	-60.6391847068732	9.35808284878042	-0.350393448939331	0.858624736772377	0.00329298813742504	-0.00233864566010408
0.45	12.5588221861902	0.429940447380724	627.275336123128	-60.6142218203266	9.35147140290682	-0.352605998428737	0.854722825375056	0.00328320106309576	-0.00236940748576836
0.46	12.5551539260957	0.436385162503464	627.257885271444	-60.5964184084446	9.34081741840728	-0.356384704983053	0.850179549910917	0.00326699471507638	-0.00238834579998305
0.47	12.5612485597939	0.446360765954485	627.237820177273	-60.5852793901432	9.32634101326214	-0.361609914546128	0.845221717662796	0.00324470084776973	-0.00239627078147388
0.48	12.5780144792077	0.459906623897363	627.215367135977	-60.5801638511503	9.30828917807386	-0.368106904141723	0.84009795875512	0.0032166946077179	-0.00239423827791491
0.49	12.6059620898898	0.476811101656651	627.190850787168	-60.58029227554	9.28691577225331	-0.375655841235725	0.835064982057787	0.00318336314765861	-0.00238353871763855
0.5	12.6451804321936	0.496606715733643	627.164688637256	-60.5847596483094	9.26246119465766	-0.384004278410455	0.830373013452894	0.0031450736434216	-0.00236567601665839
0.51	12.6953341207381	0.518581027136892	627.137379631565	-60.5925546169012	9.23513324801234	-0.392881109026422	0.826251527017726	0.00310214314329567	-0.00234233602726142
0.52	12.7556798751082	0.541802940546774	627.109486853043	-60.6025845341061	9.20509060626519	-0.402010893577755	0.822896329575709	0.003054812502331	-0.00231534473934299
0.53	12.8251010954208	0.565163222268582	627.081615060213	-60.6137058262793	9.17243008463553	-0.411127534440286	0.820458926208712	0.00300322631764633	-0.00228661714070827
0.54	12.9021582202017	0.587427246867136	627.054384355569	-60.6247587670772	9.13717862163465	-0.419986415893137	0.819038892437881	0.00294742031473815	-0.00225809831415807
0.55	12.985152012329	0.607297272889018	627.028401735113	-60.6346054140099	9.09929053405548	-0.428374319598137	0.818679726787896	0.00288731707687978	-0.00223169894677272
0.56	13.0721964698667	0.623480973872218	627.004232561649	-60.6421692052226	9.05865022636928	-0.436116653430663	0.819368377746261	0.00282273040281086	-0.00220922790687013
0.57	13.1612977665066	0.634762547316852	626.982374098187	-60.6464745339726	9.015080152737	-0.44308177301241	0.821038355568723	0.00275337796649713	-0.00219232487314142
0.58	13.2504354996812	0.640072517884325	626.963233123487	-60.6466845290374	8.9683534696214	-0.449182410541144	0.823576075160144	0.0026789013795111	-0.00218239615688912
0.59	13.3376425651443	0.638552357169641	626.94710934079	-60.6421352752159	8.91821050372702	-0.45437443674893	0.826829851910814	0.00259889225967068	-0.00218055683319908
0.6	13.4210801793977	0.629610263874923	626.934185814866	-60.632364807709	8.86437791346362	-0.458653354615459	0.830620804071244	0.00251292252017449	-0.00218758209372798
0.61	13.4991049225364	0.612964875124478	626.924527079962	-60.6171354008219	8.80658925684327	-0.462049047610551	0.834754813618922	0.00242057683422818	-0.0022038703671792
0.62	13.5703251534631	0.588674289638068	626.918084912074	-60.596447934273	8.74460560328949	-0.464619375246118	0.839034667027994	0.00232148511418463	-0.00222942024737678
0.63	13.633644730521	0.557148543206467	626.914711118175	-60.5705474454052	8.67823484370883	-0.466443223895682	0.843271536108724	0.00221535287482236	-0.00226382265403284
0.64	13.6882926226334	0.519144544339789	626.914176125125	-60.5399193465672	8.60734845876093	-0.467613585018655	0.847295059707662	0.00210198752134512	-0.00230626896326834
0.65	13.7338376859417	0.475743405018361	626.916191705377	-60.5052761863853	8.53189469040636	-0.468231153823182	0.850961437526846	0.00198131889910623	-0.00235557512110184
0.66	13.7701885753782	0.42831103704402	626.920435893276	-60.4675352435708	8.45190731257282	-0.468398829713847	0.854159132389112	0.00185341284164583	-0.00241022103045317
0.67	13.7975794279415	0.378443777319431	626.926578043796	-60.4277876445582	8.36750949546178	-0.468217368191353	0.856811980025349	0.00171847692833386	-0.00246840381512978
0.68	13.8165425660969	0.327901606868323	626.934302063794	-60.3872600747445	8.27891258439316	-0.467782295514742	0.858879708815065	0.00157685818082637	-0.0025281029429101
0.69	13.8278700012862	0.278532195110738	626.9433260843	-60.3472704919182	8.18640994672403	-0.467182065276472	0.860356060033336	0.00142903295494147	-0.00258715465896681
0.7	13.8325659491693	0.232189496805591	626.953417206365	-60.3091795359406	8.09036635799735	-0.466497321440689	0.86126485858521	0.00127558978795452	-0.00264333275944312
0.71	13.8317928849371	0.190650927491289	626.96440039891	-60.2743395492334	7.99120368124781	-0.46580104430278	0.861654504730899	0.00111720640942462	-0.00269443243642792
0.72	13.8268138585415	0.155537228339256	626.976161108399	-60.2440432685847	7.8893838240937	-0.465159300090555	0.861591432523664	0.000954622489228481	-0.00273835375851693
0.73	13.8189338504253	0.128238998974308	626.988641613934	-60.2194743128188	7.78539012322304	-0.464632293890938	0.861153108271167	0.000788609957715021	-0.00277318132045855
0.74	13.8094428775515	0.109853534918689	627.001831592368	-60.2016615677124	7.67970839575755	-0.464275438035297	0.860421123973816	0.000619942874665229	-0.00279725670301795
0.75	13.7995633615808	0.101135074417582	627.015753721219	-60.1914394562595	7.57280890704435	-0.464140189540123	0.859474881696841	0.000449368838228511	-0.00280924062961632
0.76	13.7904039558116	0.102460867616823	627.030445428912	-60.1894158787396	7.46513043477229	-0.464274473614183	0.8583862734264	0.000277583811998664	-0.00280816208629862
0.77	13.7829216106868	0.113814668424749	627.045938097649	-60.1959493160555	7.35706746466983	-0.464722586904462	0.857215647341885	0.000105212015123245	-0.00279345217940463
0.78	13.7778931608863	0.134788361628575	627.062235136969	-60.211136218399	7.24896134240257	-0.465524554830208	0.856009226659684	-6.72078190190467e-05	-0.00276496112940505
0.79	13.7758971672641	0.164601524629065	627.079290382652	-60.234809360999	7.14109594235476	-0.466714993408275	0.854798022043671	-0.000239228935180033	-0.00272295752189254
0.8	13.7773061754453	0.20213783500246	627.096988244159	-60.2665473559197	7.03369811248102	-0.468321590313766	0.853598162527565	-0.000410495404769638	-0.00266810973249866
0.81	13.782288993597	0.245996420024229	627.115126931593	-60.3056949849713	6.92694283335869	-0.470363367666889	0.852412470415245	-0.000580733452281251	-0.00260145027854683
0.82	13.7908220786858	0.294555544727979	627.133405945786	-60.3513934893857	6.82096270837109	-0.4728489177945	0.851233027740242	-0.000749735897292143	-0.00252432468639797
0.83	13.8027086848201	0.34604548523064	627.151418816606	-60.4026194457122	6.71586110048536	-0.475774812948609	0.850044428123408	-0.00091734083241763	-0.00243832725421975
0.84	13.8176040950773	0.398627058046316	627.168651828857	-60.4582304043688	6.6117279686364	-0.479124382534862	0.848827378633886	-0.001083406075483	-0.00234522678744449
0.85	13.8350450477871	0.450472087004309	627.184489187496	-60.5170150965197	6.50865725083229	-0.482867029882371	0.847562310238583	-0.0012477812586898	-0.00224688594203336
0.86	13.8544813883718	0.4998420891693	627.198224753099	-60.577745752224	6.40676450637421	-0.486958228505562	0.846232670285062	-0.00141027962522024	-0.00214517818797373
0.87	13.8753080271954	0.545161641523675	627.209080137627	-60.6392299383649	6.3062034766083	-0.491340298509863	0.844827603408975	-0.00157065167808232	-0.00204190657096449
0.88	13.8968954513323	0.585083233921098	627.216228607384	-60.7003593314627	6.20718025798443	-0.49594401997808	0.843343775470005	-0.00172856275914924	-0.00193872838570358
0.89	13.9186173042591	0.618540896682639	627.21882391603	-60.7601529920263	6.10996390286492	-0.500691093727482	0.841786155975672	-0.00188357642988401	-0.00183708957648455
0.9	13.9398738864703	0.64479048375314	627.216032908633	-60.8177929979569	6.01489246666033	-0.505497411899979	0.84016764552617	-0.00203514519041212	-0.00173817216283909
0.91	13.9601108125543	0.663435161820055	627.207070519763	-60.8726507096901	5.92237379304375	-0.510277052145488	0.838507513715106	-0.00218260963062192	-0.00164285727800523
0.92	13.978832456081	0.674435367795152	627.191235652327	-60.9243024556524	5.83288065589474	-0.514946860336478	0.836828697032161	-0.00232520658352971	-0.00155170554766115
0.93	13.9956101941385	0.67810321690823	627.167946380136	-60.9725340127378	5.74694023711279	-0.51943143880452	0.835154092527987	-0.00246208628033414	-0.00146495557741919
0.94	14.0100858037587	0.675082037779517	627.136772968495	-61.0173338775038	5.66511829092858	-0.523668311646534	0.833502067542823	-0.00259233792438374	-0.00138254031802024
0.95	14.0219706434804	0.666312348009177	627.097467346544	-61.0588759419832	5.58799870430179	-0.527612998116562	0.831881484173207	-0.00271502254397065	-0.00130412009690241
0.96	14.0310414620719	0.652986136498091	627.049987876527	-61.0974927660321	5.51615948651882	-0.531243692661451	0.830286604239875	-0.00282921148558292	-0.0012291302013379
0.97	14.037133806916	0.636491764289247	626.994518525328	-61.1336411415276	5.45014648835548	-0.534565229515529	0.828692290826768	-0.00293402849996944	-0.00115684012290519
0.98	14.0401340571138	0.618352117696995	626.93148182422	-61.1678620432677	5.39044634463437	-0.537612004943953	0.82704995046588	-0.00302869307741787	-0.00108642096763212
0.99	14.0399710867584	0.600158836366141	626.861545274679	-61.2007373349502	5.33746024049829	-0.540449545055292	0.825284660667182	-0.00311256252376185	-0.00101701713122447
1	14.0366084817335	0.583505492595589	626.785621094641	-61.2328457322825	5.29148011309482	-0.543174444743914	0.82329389665364	-0.00318517024554886	-0.000947818152421176
1.01	14.0300381006323	0.569922521990482	626.704859380723	-61.2647205141554	5.25266881395751	-0.545912465660341	0.820948206388412	-0.00324625783512362	-0.000878126695146794
1.02	14.0202755993473	0.560816511070547	626.620634876866	-61.2968113207366	5.22104557615789	-0.548814668192374	0.818094084049579	-0.00329579881068298	-0.000807418865303625
1.03	14.0073583412418	0.557416152009393	626.5345275886	-61.3294520962979	5.19647786282797	-0.552051562001241	0.814559161593277	-0.00333401226229177	-0.000735393523556338
1.04	13.9913459009858	0.56072679912268	626.448297476008	-61.3628368435329	5.17868033368025	-0.555805386822539	0.810159681688871	-0.00336136516530574	-0.000662007884815574
1.05	13.9723231491455	0.571495128978363	626.363853418694	-61.3970043796231	5.16722127208491	-0.560260772546723	0.804710042066492	-0.00337856272393975	-0.000587497464095615
1.06	13.9504056845724	0.590184939249235	626.283216601444	-61.4318327508449	5.16153638932756	-0.565594165339481	0.798034023016804	-0.00338652676993568	-0.000512379296632004
1.07	13.925747170326	0.616964642575802	626.208478452548	-61.4670434029011	5.16094948982536	-0.571962533517586	0.7899771403652	-0.00338636292898845	-0.000437438282680822
1.08	13.8985479344358	0.651706540215159	626.141753310064	-61.5022146498447	5.16469906770569	-0.579491971281991	0.780419420626633	-0.00337931794104996	-0.000363697436504454
1.09	13.8690640282089	0.693997512392506	626.085126121193	-61.5368034660208	5.17196953749376	-0.588266889059868	0.769287787744955	-0.0033667291377241	-0.000292373705867918
1.1	13.8376158019683	0.743160350853961	626.040595712618	-61.5701741711011	5.18192550412003	-0.59832050676627	0.756567194448486	-0.00334996859876925	-0.000224821825163188
1.11	13.8045949718175	0.798284593614381	626.010014506394	-61.601632212602	5.19374727085397	-0.60962734432581	0.742309635117932	-0.00333038489166954	-0.000162469327668807
1.12	13.7704691222579	0.858265408904821	625.995025981071	-61.6304609929186	5.2066656836606	-0.622098329654998	0.726640245977063	-0.00330924551153211	-0.000106746332026411
1.13	13.7357826284759	0.921848819303765	625.997001657117	-61.6559595525952	5.21999442579874	-0.635579019711753	0.709759831890007	-0.00328768316148988	-5.90140049695209e-05
1.14	13.7011530970008	0.987681361152367	626.016979869826	-61.6774789151035	5.23315800860552	-0.649851261401564	0.691943350947984	-0.00326664883737398	-2.04956679474289e-05
1.15	13.6672626186563	1.05436214136289	626.055609020654	-61.694455020175	5.24571394674717	-0.66463841655915	0.673534126775425	-0.00324687431020735	7.78564611535193e-06
1.16	13.6348434023427	1.1204951866802	626.113098304341	-61.7064364143504	5.2573679444072	-0.67961405288561	0.654933827816294	-0.00322884605654265	2.50597595532337e-05
1.17	13.6046577044426	1.18473998303807	626.189179033488	-61.7131052130437	5.26798133163577	-0.694413776989014	0.636588533103969	-0.00321279200431485	3.0849189392293e-05
