Time [s]	GRFml [N]	GRFap [N]	GRFv [N]	Mml [N.m]	Map [N.m]	Mv [N.m]	Mfree [N.m]	COPml [m]	COPap [m]
0.01	2.97947637240596	8.66088502998377	865.204686793409	-45.0349792373619	1.79176708936615	1.24447414047705	1.38136924423173	-0.00126830101479872	0.00661152875359107
0.02	3.31306871557049	7.51596969449661	858.816377594382	-44.6890874970775	1.87157532329377	1.46235071717721	1.61811542045362	-0.001152927379563	0.00661380604489534
0.03	3.63893009672752	6.39679697362381	852.504472844904	-44.3568886382011	1.94760624076076	1.67561796331329	1.8501228814314	-0.00104321870645353	0.00662690190629164
0.04	3.95060379823108	5.32704522188581	846.389998181065	-44.0502349987783	2.01698507873602	1.88010244650477	2.07285373623668	-0.000942897785686526	0.00665733147053125
0.05	4.24216334362021	4.32919296272331	840.595395393812	-43.7809556301801	2.07704301250196	2.07191846313347	2.28207007110498	-0.000855418481942952	0.00671150177167754
0.06	4.5084631103191	3.42362216923632	835.24084865113	-43.5603425611145	2.12545087226046	2.24762390143101	2.47400703952078	-0.000783795121315592	0.00679532792923754
0.07	4.74534798694023	2.62779933496808	830.440336076194	-43.3986158069863	2.16033285266533	2.4043543830453	2.64552306254134	-0.000730454696280068	0.00691384231034983
0.08	4.94981085058646	1.95557282084073	826.297520683053	-43.3043905458235	2.18035350473809	2.5399289810286	2.79421912708911	-0.000697121288461353	0.00707081718698514
0.09	5.12009006749965	1.41661945666651	822.901630372057	-43.2841728657854	2.18477331445467	2.6529225832835	2.91852112366422	-0.000684740005542273	0.00726842256435696
0.1	5.2557030359703	1.01606627209134	820.323506399693	-43.3419121615413	2.17347040810119	2.74270197819156	3.0177214918338	-0.000693445021322949	0.00750694096778928
0.11	5.35741571290474	0.754304907524801	818.612019651451	-43.4786382699012	2.14692820385681	2.80942484155167	3.09197895769645	-0.000722573177445407	0.00778455985380623
0.12	5.42715182646307	0.627007149499061	817.791061439878	-43.6922095832177	2.1061909896503	2.85400286200704	3.14227765582396	-0.000770721303936831	0.00809725983883331
0.13	5.4678488379401	0.625340617321021	817.857308855294	-43.9771946109059	2.05279131044535	2.87803212923923	3.17034924064507	-0.000835842254530063	0.00843881308616846
0.14	5.48327048144453	0.736374370052511	818.778943506288	-44.3249038798455	1.98865458515881	2.88369551914447	3.17856354852951	-0.000915371964493926	0.00880090103906414
0.15	5.47778773853047	0.943655549989322	820.495467503055	-44.7235819258735	1.91598747005519	2.87364306289379	3.16979485541414	-0.00100637792127364	0.00917335443840175
0.16	5.45614131451984	1.22793052807151	822.918713465401	-45.1587608124092	1.83715710310722	2.85085713147847	3.14727172178498	-0.00110571849248308	0.00954451154463012
0.17	5.42319905159617	1.5679777004535	825.935088739815	-45.6137676017501	1.75456849869882	2.81850968342895	3.11441881614929	-0.00121020263875365	0.0099016831287826
0.18	5.38372127507482	1.94151436013941	829.409031113053	-46.0703690514321	1.67054704206067	2.77981881880976	3.07469899378691	-0.00131674054982414	0.0102317056112044
0.19	5.34214590697649	2.32613710713622	833.187587790487	-46.5095280947928	1.58723231256447	2.73791149042697	3.03146334537138	-0.00142247744802902	0.0105215572371892
0.2	5.30240341766786	2.70025415474201	837.105965162243	-46.912238965655	1.50648841958247	2.69569849687288	2.98781600312093	-0.00152490489625969	0.0107590068850547
0.21	5.26776947163077	3.04396864567143	840.99383778935	-47.2604016692398	1.42983475283654	2.65576688970449	2.94649928893121	-0.00162194611531065	0.0109332614268039
0.22	5.24076062177725	3.33987463934223	844.68215474247	-47.5376923305797	1.35839962653774	2.62029374557257	2.9098033960287	-0.00171201380273006	0.0110355758150025
0.23	5.22307578487775	3.57373162975896	848.010143102607	-47.730384101687	1.29289782885905	2.5909839632699	2.87950329535574	-0.00179404058930033	0.0110597904301102
0.24	5.21558364655797	3.73498909901847	850.832184640968	-47.8280739789734	1.23363166553534	2.569033422877	2.85682402873368	-0.00186748350732054	0.0110027627294682
0.25	5.21835373784747	3.81713944936749	853.024234215604	-47.8242741233335	1.18051378852713	2.55511756009304	2.84243406872907	-0.00193230469708298	0.0108646647966409
0.26	5.23072681149744	3.81788539019833	854.489458165813	-47.7168319828804	1.13310899379249	2.54940422393905	2.836465062596	-0.00198893111799145	0.0106491247773942
0.27	5.25141841139351	3.739116157897	855.162797937713	-47.5081514378344	1.09069130617515	2.55158864847469	2.83855510069097	-0.00203819635535399	0.0103631980760577
0.28	5.27864822836211	3.58669546894452	855.014207393561	-47.2051969259089	1.05231207664436	2.56094751383432	2.84791171266167	-0.00208126781853425	0.0100171631511833
0.29	5.31028699749614	3.3700724945354	854.050369913654	-46.8192735552601	1.01687451222751	2.57640842040871	2.86339013441533	-0.00211956278981367	0.00962414629927987
0.3	5.3440123169025	3.10173504550057	852.314770861497	-46.3655879724992	0.983210039305227	2.59663066180135	2.88358202051598	-0.00215465696028962	0.00919958941078242
0.31	5.37746483493243	2.79653123125206	849.886078940535	-45.8626065721993	0.950152147863925	2.62009295606431	2.90690969203553	-0.00218818930504952	0.00876058376635058
0.32	5.40839672486928	2.47089179392705	846.874872593573	-45.3312388409787	0.916603845163536	2.64518377073139	2.93172117944175	-0.00222176739887972	0.00832510097063355
0.33	5.43480519234485	2.14198984556291	843.418830716156	-44.7938835743308	0.881595517919827	2.67029003860636	2.95638169834935	-0.0022568775156813	0.00791115859789479
0.34	5.45504488195597	1.82687762932598	839.676586271301	-44.2733837987614	0.844330809860683	2.6938803864551	2.97935772916344	-0.00229480401338885	0.00753596263138184
0.35	5.46791439994759	1.54164102522065	835.820512683942	-43.7919419823045	0.804219008602473	2.71457946259593	2.99929050617587	-0.00233656247273742	0.00721507100643574
0.36	5.47271367971041	1.30061173884985	832.028772236792	-43.3700501566869	0.760893342876759	2.73123052459911	3.01505641103144	-0.00238285070464369	0.00696162233839617
0.37	5.46927051438391	1.11567444268122	828.476999671893	-43.0254896883835	0.714215461005278	2.74294410638739	3.02581247444996	-0.00243402094714334	0.00678567119992501
0.38	5.45793619388404	0.995701664237462	825.330020115596	-42.7724525732568	0.664267142597218	2.74913129597109	3.03102589529686	-0.00249007526726605	0.00669366623019329
0.39	5.43955174152238	0.946143105667795	822.734006453743	-42.6208304110334	0.611330944928536	2.74952089195058	3.03048717334658	-0.00255068438943442	0.00668810017805357
0.4	5.41538768090665	0.968788592877222	820.809466556899	-42.5757089280585	0.555861971872964	2.74416044049022	3.02430711195819	-0.00261522804440851	0.00676735209912124
0.41	5.3870615155445	1.06171532899219	819.645415547629	-42.637095496957	0.498453258096095	2.73340185756741	3.01289857055974	-0.0026828527618187	0.00692573184135392
0.42	5.35643811794585	1.21942097385619	819.295033981563	-42.7998951136861	0.439797379675269	2.71787298847172	2.9969444237313	-0.0027525411987414	0.00715372623430015
0.43	5.32551895854273	1.43313474639664	819.773041828205	-43.0541373937143	0.380646842818646	2.69843702460592	2.97735370131374	-0.00282318599353762	0.00743843564833739
0.44	5.29632652603147	1.69128973585177	821.054933912587	-43.385444053082	0.321775585222799	2.67614216637391	2.95520832913038	-0.00289366103268387	0.00776417941775229
0.45	5.27079038224673	1.98013139803138	823.078129260878	-43.7757137740669	0.263943579673942	2.65216427364689	2.9317032494028	-0.00296288398072835	0.00811323959977883
0.46	5.25064105404082	2.28443026331249	825.744989431318	-44.2039900171613	0.207866093234994	2.62774546949182	2.90808295992797	-0.00302986575973678	0.00846670518297651
0.47	5.23731740548413	2.58826159601715	828.927564599519	-44.6474678588515	0.154188667612857	2.60413175082552	2.8855776553607	-0.00309374497539006	0.00880537358396593
0.48	5.23189228570657	2.87581143726382	832.473836150338	-45.0825888288915	0.103468387000557	2.58251260901009	2.86534216311173	-0.00315380757810461	0.00911066338549105
0.49	5.23502015586886	3.13216734367023	836.215145803055	-45.4861683745478	0.0561615258283616	2.56396547737615	2.84840071995363	-0.00320949387242577	0.00936549193541131
0.5	5.24690912170729	3.34405328447326	839.974438310594	-45.8364992164996	0.0126172519169074	2.54940751034015	2.83560031774541	-0.00326039606372167	0.00955507365577805
0.51	5.26731840540425	3.50047152597261	843.574901155872	-46.1143755342277	-0.0269232754674142	2.53955677505361	2.82757485500107	-0.00330624979119702	0.00966759955603308
0.52	5.29558085911896	3.59321972491231	846.848563000656	-46.30398750738	-0.0623233128459191	2.53490442172446	2.82472168280661	-0.00334692266968287	0.00969476520816014
0.53	5.33064873231184	3.61725855528795	849.644414290833	-46.3936429593101	-0.0935434824038595	2.53569881800457	2.82719136958966	-0.00338240200301293	0.00963212290029257
0.54	5.37115963420431	3.57091358263646	851.835638440695	-46.3762822699526	-0.120632339086423	2.54194201502798	2.83489069049678	-0.00341278282817957	0.00947924331828414
0.55	5.4155185529366	3.45590427280799	853.325589131789	-46.2497637994936	-0.143715577156417	2.55339828909547	2.84749804623821	-0.0034382565518902	0.00923968233227026
0.56	5.4619909647182	3.27720242901689	854.052215925341	-46.0169091598021	-0.162984773128091	2.56961390567849	2.86448980532696	-0.00345909981634154	0.00892075868792986
0.57	5.50880153506243	3.04273143312272	853.990722931273	-45.6853101093504	-0.178686384401839	2.58994671233023	2.88517550220584	-0.00347566295004115	0.00853315803985571
0.58	5.55423270773285	2.76292589493673	853.154339115236	-45.2669109460591	-0.191111515741827	2.61360371226167	2.90873944973296	-0.00348835740859607	0.0080903872915589
0.59	5.59671760327758	2.45017822141295	851.593178723972	-44.7773913823646	-0.200586751379504	2.63968442403525	2.93428615009294	-0.00349764191379375	0.00760811018205745
0.6	5.63492209565243	2.11820383474008	849.391270695798	-44.2353844304598	-0.207466149187294	2.66722761204674	2.96088690124879	-0.0035040074446868	0.00710340014934178
0.61	5.66781167051583	1.78136004046909	846.661931216232	-43.6615713288589	-0.212124321464508	2.69525888678854	2.98762516576699	-0.00350796169610783	0.0065939494961395
0.62	5.69469964287847	1.4539547503465	843.54173852153	-43.0777006575998	-0.214950396002088	2.72283672486141	3.01363855415737	-0.00351001397901762	0.00609727470363796
0.63	5.71527446129075	1.1495804102774	840.183439023035	-42.5055813156904	-0.216342567532411	2.74909463976177	3.03815563304514	-0.0035106616982222	0.0056299564336328
0.64	5.72960507727488	0.880505710943625	836.748165106941	-41.9660989186165	-0.216702914511352	2.77327753145848	3.06052616219086	-0.00351037945070393	0.00520694949801843
0.65	5.73812463428643	0.657153219511184	833.397374960682	-41.4783025117171	-0.216432165911982	2.79477063497499	3.08024376582764	-0.00350961143885219	0.00484099312848049
0.66	5.74159395303551	0.487685308883986	830.2849321527	-41.0586035196057	-0.215924150232325	2.81311994984437	3.09696043583277	-0.00350876734311977	0.00454214560071032
0.67	5.74104738858675	0.377714082332927	827.54972743252	-40.7201219127982	-0.215559734797505	2.82804353440564	3.11049263876658	-0.00350822115911218	0.00431746006231776
0.68	5.73772454909923	0.330143834289871	825.30920860752	-40.4722061129088	-0.215700157218802	2.83943356120563	3.12081915354167	-0.00350831192240602	0.00417081071389229
0.69	5.73299205036436	0.345147391568605	823.654128872866	-40.3201436826271	-0.216679752327749	2.84734952271998	3.12807110147464	-0.00350934487122474	0.00410287072978079
0.7	5.72825990471724	0.420270853662645	822.64475312433	-40.2650698927857	-0.218798178009294	2.85200342319059	3.13251494489161	-0.0035115915445746	0.00411123588600213
0.71	5.7248972946237	0.550655153049652	822.308679861287	-40.3040713620333	-0.222312334950676	2.85373816960963	3.13452952031145	-0.00351528761735422	0.0041906811496419
0.72	5.72415236379061	0.729357771187757	822.64034809331	-40.430472630207	-0.227428253355868	2.85300066498987	3.13457842903407	-0.00352062787511742	0.00433353177909498
0.73	5.72708029031107	0.947754073246387	823.602209218477	-40.6342852026558	-0.234293281114411	2.85031129827506	3.13317931847246	-0.0035277584862203	0.00453012601763512
0.74	5.73448331810719	1.19599517533698	825.127458079795	-40.902791659397	-0.242988951332723	2.84623161222317	3.13087173472829	-0.00353676745043575	0.00476934338397567
0.75	5.74686565600788	1.46349805535956	827.124139894148	-41.2212321362417	-0.25352493215474	2.84133191449169	3.12818529218711	-0.00354767461531558	0.0050391709386641
0.76	5.76440525715731	1.73944370604722	829.480384431314	-41.573557028522	-0.26583446848969	2.83616048531257	3.12560987297724	-0.00356042284343649	0.00532727971658547
0.77	5.78694351914462	2.01326038241527	832.070468819997	-41.9432082106783	-0.279771713655556	2.83121584043	3.12356942831405	-0.00357487176711962	0.00562158466774636
0.78	5.81399295365849	2.27507123967139	834.761377822608	-42.3138913748353	-0.295111318714614	2.8269232477333	3.1224007060515	-0.00359079515400125	0.00591076377810603
0.79	5.8447619193898	2.51608868088238	837.419516444394	-42.670304145444	-0.311550597667747	2.82361639072057	3.12233788827157	-0.00360788235749962	0.00618471533565925
0.8	5.87819464550589	2.72894130781434	839.917234345079	-42.9987882244216	-0.328714516662835	2.82152474357389	3.12350371634064	-0.00362574378584731	0.00643493631833392
0.81	5.91302404084358	2.90792326331791	842.13884369304	-43.287878700627	-0.346163664031952	2.82076689302945	3.12590724511439	-0.00364391991063511	0.00665480935146872
0.82	5.94783422214752	3.04915975187949	843.985849908086	-43.5287295154801	-0.363405245012135	2.82134973135146	3.12944794380895	-0.00366189311735791	0.00683979036189634
0.83	5.9811293276435	3.150686432734	845.381165470846	-43.7154005862721	-0.379907011398942	2.82317316922681	3.13392548752168	-0.00367910168413479	0.00698749371270558
0.84	6.01140502118171	3.21244403528221	846.272137344403	-43.84499891815	-0.395113884993275	2.82603978954602	3.13905429188169	-0.00369495531885985	0.00709767603976919
0.85	6.03721913456004	3.23619282398319	846.632284901009	-43.9176728637712	-0.408466869771726	2.82966869008018	3.14448165347339	-0.00370885191630139	0.00717212406907601
0.86	6.05725812573178	3.22535435169622	846.46171377854	-43.9364652197545	-0.419423679092905	2.8337126471859	3.14980827654044	-0.0037201954306326	0.00721445525465033
0.87	6.07039642126848	3.18479023503268	845.786238097794	-43.9070368202428	-0.427480341285875	2.8377776714451	3.15460998496968	-0.00372841491751117	0.00722984306149178
0.88	6.07574622678187	3.12052944303242	844.655305533596	-43.837277482204	-0.432192901945964	2.8414440134411	3.15845951991435	-0.00373298482463373	0.00722468108250467
0.89	6.07269598772201	3.03945681786134	843.138873899281	-43.7368254043129	-0.433198227524681	2.84428770504999	3.16094748285133	-0.00373344647017606	0.00720620190730735
0.9	6.06093632209254	2.94897626891883	841.323431830939	-43.6165193008629	-0.430232845530654	2.84590177888099	3.16170167367499	-0.00372943034675117	0.00718206775985782
0.91	6.04047288512844	2.85666233763226	839.307388200046	-43.4878095929469	-0.423148743542782	2.8459163861399	3.16040426691356	-0.0037206784602927	0.00715995041069971
0.92	6.01162622793779	2.76991366296783	837.196074139669	-43.3621558570905	-0.411925101131185	2.84401712271719	3.15680644384219	-0.00370706542587347	0.00714711777561591
0.93	5.97501924909932	2.69562133151246	835.09660787972	-43.2504374663926	-0.396675050532142	2.83996096818272	3.15074023819805	-0.00368861658790994	0.00715004396593441
0.94	5.93155329078225	2.6398642120013	833.112866481932	-43.1624030104086	-0.377646753475677	2.83358933843985	3.14212745021622	-0.00366552111520342	0.00717405838796577
0.95	5.88237428905625	2.60764218856937	831.340791182306	-43.1061817419925	-0.355218337434781	2.82483784830668	3.13098553779537	-0.00363813794180147	0.00722304783297821
0.96	5.82883065042389	2.60265675097886	829.864226014914	-43.087877096836	-0.329886543744657	2.81374247562655	3.11743041242416	-0.00360699265682815	0.00729922339242729
0.97	5.77242469927939	2.62714670128901	828.751454689979	-43.1112584146561	-0.30224928634853	2.80044191559603	3.1016760650501	-0.00357276401766813	0.00740296152321016
0.98	5.71475963514843	2.6817848217794	828.052560530472	-43.1775625302181	-0.27298268283625	2.78517601554559	3.08403094156567	-0.00353625963724135	0.00753272573677304
0.99	5.65748396794152	2.76563924804301	827.797690912356	-43.2854120827052	-0.242813475325519	2.76828028902379	3.06489099856136	-0.00349838147936478	0.00768507227511091
1	5.6022353778031	2.87620104023366	827.996263333712	-43.4308524072553	-0.212488082477417	2.75017662534481	3.04472941488992	-0.00346008293643088	0.00785473986730899
1.01	5.55058588496549	3.00947709078544	828.637107032543	-43.6075039191388	-0.182739790788862	2.73136043664871	3.02408302520741	-0.00342232028620219	0.00803482035124953
1.02	5.50399012202045	3.16014510754548	829.68949381869	-43.8068221712136	-0.154255780841236	2.71238461664068	3.00353568123121	-0.00338600206570794	0.0082170037271183
1.03	5.46373837936887	3.32176504005438	831.104976020258	-44.018453440026	-0.127645774212784	2.69384081874686	2.98369892796015	-0.00335194024197402	0.00839188821620504
1.04	5.4309159431592	3.48703905955858	832.81991937258	-44.2306699384626	-0.103414067013755	2.67633868947808	2.96519058845455	-0.00332080695326392	0.00854934325763015
1.05	5.40637005941244	3.64811015608197	834.758595151402	-44.4308657022235	-0.0819365814760715	2.66048380673858	2.94861205704542	-0.00329310006880126	0.00867891119940313
1.06	5.39068563245958	3.79688767906632	836.836679377698	-44.6060919629458	-0.0634443208429474	2.64685516335447	2.93452527817677	-0.00326911996292146	0.00877023181938349
1.07	5.38417049526598	3.92538681994461	838.964997674673	-44.7436094778527	-0.0480142664655574	2.63598309429794	2.92343050857954	-0.00324895885510604	0.0088134728116076
1.08	5.38685077169388	4.02606820336475	841.053352210233	-44.8314348727161	-0.0355683290194548	2.62832856450861	2.91574600201894	-0.00323250297486762	0.0087997490326118
1.09	5.39847648920679	4.09216348780238	843.01427171364	-44.8588585719168	-0.0258804845165272	2.62426470789112	2.91179070597113	-0.00321944679838551	0.00872151363297841
1.1	5.41853720407143	4.11797321912206	844.766536187054	-44.8169132990962	-0.0185917219261746	2.62406143519037	2.91177091756673	-0.00320931776668299	0.00857290518838001
1.11	5.44628698535849	4.09912414377214	846.238343828394	-44.6987743615459	-0.013231937309321	2.62787381070643	2.915771623187	-0.00320150928672483	0.00835003655533079
1.12	5.48077769035453	4.03277474851638	847.370007886172	-44.5000758768044	-0.009247464333896	2.63573474034118	2.92375296352412	-0.00319531945248636	0.00805121335104173
1.13	5.52089907785984	3.91775989275808	848.116094628057	-44.2191306301582	-0.00603256540402342	2.64755232441756	2.93555195185217	-0.00318999278828344	0.00767707261513042
1.14	5.56542397449135	3.75466794715655	848.446939219466	-43.857045215845	-0.0029629488847398	2.66311201854739	2.95088925851328	-0.00318476237772758	0.00723063525588199
1.15	5.61305645869806	3.54584673085479	848.34950296611	-43.41772634819	0.000570753764332466	2.68208352645908	2.96938058841576	-0.00317888995575606	0.00671726920190642
1.16	5.6624808799575	3.29533761185249	847.827561998899	-42.9077785608205	0.00513161049428135	2.70403213257215	2.99055194454066	-0.0031717018642564	0.00614456364580385
1.17	5.71240950225257	3.00874025213841	846.901243067692	-42.3362977725379	0.0112090241134624	2.72843398128834	3.01385790493006	-0.00316261916392067	0.00552211824664577
1.18	5.76162665858633	2.69301349013516	845.605945765474	-41.7145692251118	0.0191970169211899	2.75469463537158	3.03870194998696	-0.00315118062323048	0.00486125451735842
1.19	5.8090275243871	2.35622061350223	843.990711464748	-41.0556819428227	0.0293794112185459	2.78217010651403	3.06445785868689	-0.00313705774521262	0.00417465972985264
