Time [s]	GRFml [N]	GRFap [N]	GRFv [N]	Mml [N.m]	Map [N.m]	Mv [N.m]	Mfree [N.m]	COPml [m]	COPap [m]
0.01	26.1805054475936	-2.97206234837694	815.01102699792	-58.1193033966374	8.03527310243712	-6.05791806085621	-4.1613512548461	-0.000273091508338015	-0.00437519792972665
0.02	26.1230019280352	-2.94063381547957	817.73590889983	-58.1596177803001	7.90976680751049	-6.02807060943435	-4.14117342628454	-0.000449379187175566	-0.00455541144670407
0.03	26.0653662911202	-2.91302554215427	820.402264180637	-58.1975159472309	7.78819877767255	-5.9986950562888	-4.1213673039061	-0.000622199215175735	-0.00473443653970403
0.04	26.0078832502636	-2.89262269578259	822.954614501245	-58.2308216937996	7.67391632856729	-5.97022724581497	-4.10224940329827	-0.000786743999834891	-0.00491011797712945
0.05	25.9508178934533	-2.88271641277138	825.339714400603	-58.2573317656632	7.57003499305756	-5.94307355707579	-4.08411810097679	-0.00093842534148557	-0.00508050656130862
0.06	25.8944210975278	-2.88633946140452	827.508547192582	-58.2749139279986	7.47929578022493	-5.91759664759875	-4.06724169548953	-0.00107308685198761	-0.00524391855006551
0.07	25.8389345687082	-2.90611747698971	829.418190175366	-58.2816101965371	7.40394377117476	-5.89410261007891	-4.05184687498131	-0.00118719217715754	-0.00539897673805047
0.08	25.7845946305404	-2.94414400086174	831.033462931376	-58.2757407170061	7.3456346967265	-5.87283008280548	-4.03810824786984	-0.00127797854589902	-0.00554463075015539
0.09	25.731634062492	-3.00188557097722	832.328278517117	-58.2560032518031	7.30537403867978	-5.85394180142862	-4.02613961112291	-0.00134356785971993	-0.00568015546845217
0.1	25.6802815346641	-3.08012082212178	833.286628199578	-58.2215630364008	7.28349090607254	-5.8375190057869	-4.015987581816	-0.0013830305356315	-0.005805127888126
0.11	25.630758467469	-3.17891514056046	833.903145979887	-58.1721279677446	7.27964664570089	-5.8235590227159	-4.00762810611351	-0.00139640039040035	-0.00591938397638679
0.12	25.5832734476947	-3.29763005785225	834.183218848456	-58.1080046982583	7.29287601693456	-5.81197623654465	-4.00096619871775	-0.00138464180563574	-0.00602295821300877
0.13	25.5380146297957	-3.43496442249799	834.142631504052	-58.0301322001929	7.3216569303737	-5.80260653613403	-3.99583907405559	-0.001349573078027	-0.00611600936845867
0.14	25.4951408183651	-3.58902259236225	833.806758781072	-57.9400906621811	7.36400331888383	-5.79521519376582	-3.99202262862797	-0.00129375210942784	-0.00619873669689851
0.15	25.4547721406433	-3.75740354928337	833.209343696942	-57.8400850763895	7.4175747403782	-5.78950799018652	-3.98924104071608	-0.00122033233388848	-0.00627129108083729
0.16	25.416981356142	-3.93730401602224	832.39092221178	-57.732904442928	7.47979582801788	-5.78514525543963	-3.98717908317542	-0.00113289795297444	-0.00633368577511981
0.17	25.3817868990747	-4.12562838023169	831.396975898004	-57.6218590227037	7.54797869253511	-5.78175835143091	-3.98549660579086	-0.00103528812958526	-0.00638571128785072
0.18	25.3491487004599	-4.31909848572992	830.275909339483	-57.5106993807477	7.61944179872362	-5.77896798517732	-3.98384453854885	-0.000931419779560193	-0.00642685864137144
0.19	25.3189676907472	-4.51435708614185	829.076959093625	-57.4035219670935	7.69161961410269	-5.77640361820822	-3.98188169500397	-0.00082511803721461	-0.00645625481780474
0.2	25.2910896490453	-4.70805988644566	827.848144697119	-57.3046665975672	7.76215837499389	-5.77372313533368	-3.97929161231213	-0.000719962423142225	-0.00647261365003225
0.21	25.2653137575644	-4.8969525164887	826.634369139511	-57.2186113738493	7.82899453676741	-5.77063186314074	-3.97579864797608	-0.000619155303758587	-0.00647420480419009
0.22	25.2414058619769	-5.07793036400176	825.475766576138	-57.1498703119499	7.8904137721103	-5.76689999309463	-3.97118256086199	-0.000525417515795856	-0.00645884284001708
0.23	25.2191160565679	-5.24808081368802	824.4063793509	-57.1028982618108	7.94508966061769	-5.76237747298965	-3.96529083581287	-0.000440914160944503	-0.00642389764804392
0.24	25.1981998356854	-5.40470896720392	823.453225603485	-57.0820066660563	7.99210239314707	-5.75700548888908	-3.95804806959791	-0.00036721168436254	-0.00636632685683962
0.25	25.178441708026	-5.54534924148982	822.635794145084	-57.0912924215907	8.03093882972821	-5.75082377022299	-3.9494618246894	-0.000305265556987143	-0.00628273008233508
0.26	25.1596798829437	-5.66776626434708	821.965976467051	-57.1345806943927	8.06147605407255	-5.74397311282349	-3.93962448006299	-0.000255436290537729	-0.00616942415446615
0.27	25.1418304292947	-5.76994913613467	821.448418431154	-57.2153811275293	8.08395113501075	-5.73669272427145	-3.92871076684487	-0.000217530207764638	-0.00602253770429186
0.28	25.1249091931408	-5.85010336441419	821.081248167818	-57.3368556072429	8.09892012975146	-5.72931224525976	-3.91697087014114	-0.000190860423546987	-0.005838122731548
0.29	25.1090497511406	-5.90664459580043	820.857113710719	-57.5017947327383	8.10720945827714	-5.72223857851654	-3.9047192018013	-0.000174322891120796	-0.00561228000943485
0.3	25.0945157761437	-5.93819768991282	820.764445477486	-57.7125994709926	8.10986267044376	-5.71593794890298	-3.89231919294734	-0.000166482131420041	-0.00534129444046565
0.31	25.0817063991262	-5.94360375820477	820.78884613931	-57.971264236839	8.10808535699205	-5.71091390797557	-3.88016470662678	-0.000165661368345027	-0.00502177578445692
0.32	25.0711534601911	-5.92193660592622	820.914504601943	-58.2793578519281	8.1031905695545	-5.70768226548853	-3.86865891356281	-0.000170032196072758	-0.0046507995766078
0.33	25.0635099381403	-5.87252866945415	821.125532193692	-58.6379994944624	8.09654666250484	-5.70674416053817	-3.85819168939631	-0.000177699549535407	-0.00422604258682983
0.34	25.0595293147481	-5.7950051479568	821.407127676966	-59.0478278043805	8.08952899924513	-5.70855865869522	-3.84911676132556	-0.00018677856939856	-0.00374590689171883
0.35	25.0600361428697	-5.68932370722146	821.746492820109	-59.508962667576	8.08347651989069	-5.71351636309207	-3.84172993810619	-0.000195460875971751	-0.00320962658770836
0.36	25.0658886194389	-5.55581600026579	822.13344095765	-60.0209607478626	8.0796537802187	-5.7219155451194	-3.83624978525582	-0.000202068718316675	-0.00261735141154378
0.37	25.07793448529	-5.39522640761814	822.560665782401	-60.5827674244077	8.07921876610477	-5.73394222703185	-3.83280204670793	-0.000205096373620161	-0.00197020208341678
0.38	25.0969620530421	-5.20874293319327	823.023664777276	-61.192669271843	8.08319657417913	-5.74965548308449	-3.83140896060999	-0.000203238973179561	-0.00127029306195051
0.39	25.1236485727852	-4.99801515578366	823.52033922718	-61.8482524383387	8.09245892656095	-5.76897897302688	-3.83198437296667	-0.000195409573272971	-0.00052071958905775
0.4	25.1585084568845	-4.76515455559849	824.050318604616	-62.5463730961755	8.10770944268793	-5.79169939371113	-3.83433522853558	-0.000180745737916082	0.000274492628642625
0.41	25.201844078225	-4.51271339945006	824.61407933543	-63.283146448949	8.1294746030085	-5.81747214927593	-3.83816963161847	-0.000158607144517084	0.00111047506756659
0.42	25.2537019145973	-4.24363963142211	825.211944798397	-64.0539605057925	8.1581003803659	-5.84583412109327	-3.84311124493002	-0.000128565775658982	0.00198163950732937
0.43	25.3138367258813	-3.9612067996383	825.843063543933	-64.8535199471849	8.19375455565949	-5.8762229922963	-3.8487193627144	-9.03901568915979e-05	0.00288183291123388
0.44	25.3816862172367	-3.66891984762355	826.504465271534	-65.6759239299016	8.23643474651572	-5.90800217681061	-3.85451358786156	-4.40248960534399e-05	0.00380451857882023
0.45	25.4563582647137	-3.37039948348566	827.190288788668	-66.5147796818643	8.28598213768368	-5.94049004741697	-3.86000169512569	1.04334614649173e-05	0.00474297649843576
0.46	25.5366322709113	-3.06924967273078	827.891263296088	-67.363351339846	8.34210079378879	-5.97299187672989	-3.86470900361893	7.27634618886176e-05	0.00569051454121583
0.47	25.6209755961441	-2.76891444032048	828.594504809174	-68.2147408435003	8.40438225278278	-6.00483271948139	-3.8682074351501	0.000142647994838943	0.00664068123646805
0.48	25.7075753008621	-2.47253148280876	829.283664768664	-69.0620950072576	8.47233484659407	-6.03538938802893	-3.87014241538457	0.000219705137485609	0.00758747041680993
0.49	25.7943846703521	-2.1827909692146	829.939439783233	-69.8988303531706	8.5454168895562	-6.06411971178757	-3.87025588629697	0.000303519882958059	0.00852550805682258
0.5	25.8791832114775	-1.90180826454916	830.540422134523	-70.718865109887	8.62307254019673	-6.09058742343323	-3.86840393388596	0.000393675879497507	0.00945021216029662
0.51	25.9596480562535	-1.63101909205588	831.064242436321	-71.5168461576803	8.70476881025706	-6.11448127044017	-3.86456787698793	0.000489786094802153	0.0103579175598956
0.52	26.0334340235397	-1.37110484767648	831.488930887328	-72.2883577880381	8.79003190299315	-6.13562729294476	-3.85885808480419	0.000591521111545245	0.0112459589361425
0.53	26.0982590227321	-1.12195442222486	831.794403867196	-73.0300990647583	8.87848084809114	-6.15399361552391	-3.85151025975639	0.000698633603867283	0.0121127071757284
0.54	26.1519910729604	-0.882667042145575	831.963969776035	-73.7400173814807	8.9698562968947	-6.16968754476186	-3.8428744027682	0.000810977479049515	0.0129575562901535
0.55	26.1927329916549	-0.651598413396282	831.985743059027	-74.417387504111	9.06404237609962	-6.18294521799969	-3.83339713462223	0.000928520216102601	0.0137808604080571
0.56	26.2189008005625	-0.426449979353816	831.853858726757	-75.0628278955993	9.16107968747414	-6.19411448295826	-3.82359844776512	0.00105134709961057	0.0145838227303111
0.57	26.2292921150882	-0.204398538132216	831.56939116429	-75.678249311721	9.26116788979281	-6.2036320763662	-3.8140442820964	0.00117965632532789	0.0153683406801035
0.58	26.2231412186305	0.0177390265883046	831.140899769634	-76.2667343413934	9.36465679741201	-6.2119964890621	-3.80531653810729	0.00131374432813914	0.0161368136710552
0.59	26.2001581558182	0.243313398870593	830.584548561393	-76.8323505128245	9.47202555417432	-6.21973813665193	-3.79798225222638	0.00145398113504416	0.0168919218365126
0.6	26.1605499706073	0.475632225010783	829.923775482596	-77.3799035408936	9.58385015525553	-6.2273885855978	-3.79256366195133	0.00160077605937435	0.0176363856020641
0.61	26.105023117654	0.717741944128276	829.188517541393	-77.9146409884146	9.70076034653258	-6.23545060763554	-3.78951078942126	0.00175453461354885	0.0183727170459956
0.62	26.0347670298514	0.972213470278875	828.414027886265	-78.441919804437	9.82338767770041	-6.24437075018599	-3.78917798460589	0.00191560811261812	0.0191029745073415
0.63	25.9514197686718	1.2409431894623	827.639348193104	-78.96685366891	9.95230716598923	-6.25451592300069	-3.79180561046552	0.00208423805118921	0.0198285318281673
0.64	25.8570175552442	1.52498010017344	826.905522364298	-79.4939576461011	10.0879755886177	-6.26615522405445	-3.79750774176415	0.00226049793317066	0.0205498729532377
0.65	25.7539307233163	1.82438864476748	826.253653922536	-80.0268082217107	10.2306698178763	-6.27944787880673	-3.8062664068304	0.00244423577330176	0.0212664213951478
0.66	25.6447892055096	2.13815493061189	825.722918557937	-80.5677363321983	10.3804288080675	-6.29443776932761	-3.81793254689603	0.00263502091217031	0.0219764123866399
0.67	25.5324010308582	2.46414174259496	825.348644581757	-81.1175695219863	10.5370028180069	-6.31105460975871	-3.83223351846116	0.00283209902185848	0.0226768135010183
0.68	25.4196674598677	2.79909514948584	825.160567694281	-81.6754369849618	10.699813202315	-6.32912141014827	-3.8487866358866	0.00303435915628559	0.023363297269874
0.69	25.3094983150726	3.13870277235456	825.181353216088	-82.2386481199387	10.8679256418674	-6.34836748952873	-3.86711795697569	0.00324031636158418	0.0240302670206495
0.7	25.2047307974478	3.47770108731867	825.425459997071	-82.8026515602216	11.0400390366053	-6.36844597646497	-3.88668526406078	0.00344811268035667	0.0246709349462308
0.71	25.1080546423313	3.81002664557301	825.898397232349	-83.3610776596915	11.2144914935436	-6.38895449214109	-3.90690399531625	0.00365553837535872	0.0252774494343725
0.72	25.0219459030053	4.12900396210073	826.596400246046	-83.9058633783687	11.3892839598207	-6.40945756240202	-3.9271747423442	0.00386007392784415	0.025841067020389
0.73	24.9486110025549	4.42756117405285	827.506525898487	-84.427454649381	11.5621211309187	-6.42950925902057	-3.94691085606483	0.00405895194301304	0.0263523630325078
0.74	24.8899420147129	4.69846348772376	828.60714448947	-84.9150778433727	11.7304683646002	-6.44867462727507	-3.96556469819487	0.00424923665985247	0.0268014740814807
0.75	24.8474834710533	4.93455396461786	829.868784494518	-85.3570690542474	11.8916225052765	-6.46654860973416	-3.98265114347618	0.00442791746439732	0.0271783649726252
0.76	24.8224103901555	5.12899134313184	831.255270448603	-85.7412477411203	12.0427938182165	-6.48277141130627	-3.99776707962672	0.00459201177862811	0.0274731123317573
0.77	24.8155167224885	5.27547531022322	832.725083603455	-86.0553198490707	12.1811956852778	-6.49703954904715	-4.0106058657663	0.00473867204105422	0.0276761971676239
0.78	24.8272130319204	5.36845084542911	834.232869961091	-86.2872949118362	12.3041383491091	-6.50911216905409	-4.02096598934393	0.00486529126032143	0.0277787986759824
0.79	24.8575320090858	5.40328484464453	835.731020767614	-86.425901774862	12.4091228238906	-6.51881256715686	-4.02875349447465	0.00496960180913297	0.0277730817705865
0.8	24.9061403393021	5.37641005878267	837.171255930123	-86.4609883823975	12.4939311179679	-6.526025195069	-4.03397812361304	0.00504976268594545	0.027652471068243
0.81	24.9723555214418	5.2854333089211	838.506150120262	-86.3838924274423	12.5567091258754	-6.53068874581864	-4.03674349739549	0.00510443132662017	0.0274119043417631
0.82	25.0551664348001	5.12920682369959	839.690553316789	-86.1877714260128	12.5960389229518	-6.53278617138399	-4.03723202894832	0.00513281709963777	0.0270480587849437
0.83	25.153256747953	4.90786326000804	840.682870852747	-85.8678827971768	12.6109977059403	-6.53233267558578	-4.03568560300087	0.00513471476484558	0.0265595438178741
0.84	25.2650306173433	4.62281641225934	841.446181309912	-85.4218066628741	12.6012012333168	-6.52936283570258	-4.03238332276123	0.00511051732227219	0.0259470546155112
0.85	25.3886404887893	4.27673071824832	841.949182615205	-84.8496061990988	12.5668302927189	-6.5239180319252	-4.02761781911563	0.00506120874351036	0.0252134810867399
0.86	25.5220171458676	3.87346339549279	842.166966452322	-84.1539223707414	12.5086394228543	-6.51603530539322	-4.02167171388377	0.00498833799984548	0.0243639676839415
0.87	25.6629024022611	3.41798339100064	842.081627940572	-83.3400016954426	12.4279478090369	-6.5057386294113	-4.01479582524377	0.0048939765327996	0.0234059202015764
0.88	25.8088849759722	2.91627133122686	841.682721154202	-82.4156572687932	12.3266129245002	-6.49303337565084	-4.00719059972068	0.00478066182552349	0.0223489566408317
0.89	25.9574400894909	2.37520437446233	840.967571538046	-81.3911646362937	12.2069880787392	-6.47790450278415	-3.99899205829039	0.00465133001574251	0.0212048002866558
0.9	26.1059732045968	1.80242936903169	839.941454044261	-80.2790952345889	12.0718655402924	-6.46031870695768	-3.99026326627835	0.00450924054757494	0.0199871143692057
0.91	26.2518680330078	1.2062270898714	838.617641576917	-79.0940910826238	11.9244073118371	-6.44023047121892	-3.98099199372786	0.00435789571190401	0.0187112790628414
0.92	26.3925385898747	0.595369646047164	837.017322984022	-77.8525852309521	11.768065943497	-6.41759165414861	-3.97109484333871	0.00420095761069556	0.017394113102465
0.93	26.5254846144293	-0.0210275009220613	835.169384363146	-76.5724732264804	11.6064979744854	-6.39236398521583	-3.96042770729739	0.00404216465193558	0.0160535439483229
0.94	26.6483492176969	-0.633658027634099	833.11004280533	-75.2727415690102	11.4434726968273	-6.36453360239599	-3.94880199394608	0.00388524920220854	0.014708232172384
0.95	26.7589771807725	-1.23318128181165	830.882318727031	-73.9730598641507	11.2827789446462	-6.33412659003868	-3.93600566276206	0.00373385756263966	0.0133771575233652
0.96	26.855471965404	-1.81038262088281	828.535332260876	-72.6933441397662	11.1281325377584	-6.30122436192184	-3.92182774455631	0.0035914730586821	0.0120791758892456
0.97	26.9362492498558	-2.35633734005134	826.123411165111	-71.4532995985406	10.9830868601544	-6.26597769200099	-3.90608472613954	0.0034613428024694	0.0108325580364618
0.98	27.0000846931372	-2.86257777481283	823.705002460181	-70.2719519179357	10.8509488444999	-6.22861822562532	-3.88864696700954	0.00334640863638833	0.00965452247179892
0.99	27.0461536709678	-3.32126274673938	821.341387326448	-69.1671770533394	10.7347023756167	-6.18946640508179	-3.86946320970845	0.0032492429092427	0.00856077594563211
1	27.0740609138398	-3.7253479045019	819.095208275941	-68.1552403067893	10.6369408316659	-6.14893490976633	-3.84858126125633	0.00317199005038609	0.00756507589132806
1.01	27.0838582947879	-4.06875472559486	817.028828628494	-67.2503561348087	10.5598101639441	-6.10752693442582	-3.82616307047093	0.00311631533683766	0.00667882938075794
1.02	27.0760494359074	-4.34653503447422	815.202556135046	-66.4642807168978	10.5049635869448	-6.06582889752059	-3.80249270714261	0.00308336270731555	0.00591074289458
1.03	27.0515802967704	-4.55502692168459	813.67277438927	-65.8059496173393	10.4735286211828	-6.024497472596	-3.77797615645707	0.00307372385763869	0.00526653631377202
1.04	27.0118154422005	-4.69199699233857	812.490036639716	-65.2811728721752	10.4660869129284	-5.98424115405792	-3.75313235745391	0.00308742104015143	0.00474873303271255
1.05	26.9585002318645	-4.75676301909499	811.697185991346	-64.892399449138	10.4826669568067	-5.94579688962786	-3.72857550822233	0.00312390588525567	0.00435653601827347
1.06	26.8937097060352	-4.75029041987292	811.327573088066	-64.6385621986057	10.5227495767177	-5.90990261954815	-3.7049892931141	0.00318207610022287	0.00408579708522963
1.07	26.8197854439793	-4.6752556200987	811.403446632113	-64.5150130900874	10.5852857828067	-5.87726684213435	-3.68309431038951	0.00326031106757363	0.00392908375542916
1.08	26.7392621336755	-4.53606938244523	811.934593090825	-64.5135566824739	10.6687264193986	-5.84853656202791	-3.66361053966676	0.00335652621646667	0.00387584496794853
1.09	26.6547860087965	-4.33885366710464	812.917299378786	-64.6225874025365	10.7710628497966	-5.82426515801531	-3.6472171349759	0.00346824469521061	0.00391267376125892
1.1	26.5690276778385	-4.09136657130593	814.333706044049	-64.8273333284646	10.8898777842334	-5.8048818195258	-3.63451211516393	0.00359268350167908	0.00402366198569722
1.11	26.4845921864768	-3.80287140417065	816.151608543081	-65.1102058485682	11.0224052397698	-5.79066423484753	-3.6259746154513	0.00372685002481296	0.00419083921639063
1.12	26.4039294090982	-3.48394795969162	818.32475072556	-65.4512508778372	11.1655985161088	-5.78171616230593	-3.62193224657182	0.00386764409552464	0.00439468537034599
1.13	26.3292480448404	-3.14624649253712	820.793637989514	-65.8286933881123	11.3162049687499	-5.7779513741835	-3.62253578683904	0.00401196027124898	0.00461470409711467
1.14	26.2624365774874	-2.80218767302332	823.486878191316	-66.219562993216	11.4708462507663	-5.7790852323867	-3.62774293512823	0.00415678524094414	0.00483004180277505
1.15	26.2049945235634	-2.4646147560556	826.323036946525	-66.600384406388	11.6261025690641	-5.78463484021473	-3.6373122256644	0.00429928590482169	0.0050201351812672
1.16	26.1579771147669	-2.14640717147341	829.21297123587	-66.9479129501599	11.7785993564143	-5.79392832704127	-3.65080750860267	0.0044368847438106	0.00516536839473034
1.17	26.1219562192591	-1.86006753856327	832.06258218015	-67.2398921534545	11.9250945981614	-5.80612337890204	-3.66761269933661	0.00456732038027625	0.00524771963902905
1.18	26.0969997897017	-1.61729652856154	834.775905533877	-67.4558080192345	12.0625648796453	-5.82023464966622	-3.68695585718536	0.00468869255466755	0.00525137587045918
