Time [s]	GRFml [N]	GRFap [N]	GRFv [N]	Mml [N.m]	Map [N.m]	Mv [N.m]	Mfree [N.m]	COPml [m]	COPap [m]
0.01	4.129610458371	2.6936199303664	632.50618720237	0.884421275349888	-10.9760188780406	0.981932995969932	-0.928791014857549	-0.00759514530788497	-0.0297161252837893
0.02	4.37245225458405	3.1070141455621	637.561851615936	0.678606115553353	-10.7638701415868	0.933059698509271	-0.875987222607094	-0.00791713163831664	-0.0292578945807454
0.03	4.56693420073092	3.52380514589059	642.33577996669	0.486293489863818	-10.5286248632805	0.886345125392502	-0.825536080091961	-0.00821780899976976	-0.0287734238143265
0.04	4.67981355747091	3.94143565837973	646.559661516865	0.320135599501662	-10.2563253212579	0.844049081520748	-0.779903912658066	-0.00847723048038662	-0.0282496456985782
0.05	4.68652030588101	4.33786775265527	649.972570192093	0.192585742507036	-9.9371701546676	0.808819342129295	-0.742090131426643	-0.00867577166204614	-0.0276781302414633
0.06	4.57166524188869	4.67061570673809	652.338535895128	0.1148348600997	-9.56504758215263	0.783512004597103	-0.715437478605779	-0.00879577223968997	-0.0270535905416445
0.07	4.32825694872334	4.88443587430033	653.479239555331	0.0949450844105741	-9.13673154259699	0.770687307234911	-0.703037693829939	-0.00882443957617574	-0.0263720805411576
0.08	3.9561251670276	4.92533383798839	653.314356291533	0.135757945559896	-8.65138376968216	0.771932475120401	-0.706913904161451	-0.00875713125919375	-0.0256300427153967
0.09	3.46037252817898	4.75660182556967	651.89817865225	0.233357993128046	-8.11083976138002	0.787236042891428	-0.727251514750745	-0.00859980988690423	-0.0248250479403119
0.1	2.85069653133472	4.37208059702624	649.440623399587	0.376773549166776	-7.52072150067971	0.814630272401054	-0.761941705868054	-0.00836960020798561	-0.023958285697957
0.11	2.14205021309304	3.80272028357731	646.303129353509	0.549236865024321	-6.89191783857943	0.850240222571225	-0.806608477477004	-0.00809291788075817	-0.02303797105488
0.12	1.35644397144186	3.11442281476305	642.964770740385	0.730832667477997	-6.24164026728946	0.888758050585823	-0.855146213229014	-0.0078013940257643	-0.022082237474253
0.13	0.524995912814405	2.3975083469953	639.960460104954	0.90191000419969	-5.59326511995005	0.924238237846338	-0.900647027987176	-0.0075265302223263	-0.0211200608801569
0.14	-0.311068250702536	1.75031988773166	637.800259634149	1.04637979823503	-4.97454075935382	0.951023803703103	-0.936493232848812	-0.00729443429359589	-0.0201893557984701
0.15	-1.10165801522497	1.2609068273328	636.884846812171	1.15406153469557	-4.41433900675731	0.964593683246444	-0.957363373774348	-0.00712195824056172	-0.0193323854853621
0.16	-1.79186292044666	0.991069570971911	637.435114800357	1.22155981952395	-3.93872025032357	0.962171549178121	-0.95995583904252	-0.00701509900223107	-0.0185896390664131
0.17	-2.32842184423945	0.966270695283101	639.452209096603	1.25162196263447	-3.56740393392332	0.943031253728169	-0.943344128131246	-0.00696980725004326	-0.0179939288992848
0.18	-2.66736798134267	1.17329956497174	642.717755286425	1.25137159512031	-3.31163279364975	0.908527701197778	-0.90899102423865	-0.00697464993645702	-0.0175663836412537
0.19	-2.78114637188207	1.56560723379646	646.834100121753	1.23007161628274	-3.17391077736118	0.861929678787574	-0.860514083705996	-0.00701433813536356	-0.0173152690913649
0.2	-2.66363000390763	2.07444935621664	651.294067870261	1.19707157047867	-3.14938373736495	0.808115385055485	-0.803289293853137	-0.0070730855391169	-0.0172374619912265
0.21	-2.33207251294721	2.62282087057982	655.562557359449	1.16038037395186	-3.22802436216785	0.753134668106278	-0.74392367617588	-0.00713705939039222	-0.017321405273592
0.22	-1.82581387446193	3.13886057293216	659.150912852189	1.12599622003207	-3.39655451659147	0.703596101057594	-0.689573825630438	-0.00719565108063425	-0.0175499289646633
0.23	-1.20214174829858	3.56593667093194	661.669894518152	1.09785815849101	-3.6393064730042	0.665850968321367	-0.647088648687707	-0.0072417206509553	-0.0179016379871985
0.24	-0.529915207454205	3.86779238464766	662.85619089173	1.07814892575793	-3.93788117333502	0.645032075659018	-0.622028091515194	-0.00727121000199282	-0.0183505120454805
0.25	0.118519206844062	4.02860134465695	662.576878767388	1.06769298445275	-4.27020570116462	0.644124948222477	-0.617722124056479	-0.00728253191801465	-0.0188644956073727
0.26	0.676613655225562	4.04916375848798	660.822031122039	1.06631231273491	-4.61005722121179	0.663332596337754	-0.634618630497181	-0.00727597977348282	-0.0194046212446507
0.27	1.09324707261455	3.94138722107714	657.695521481094	1.07315249306271	-4.92804700019038	0.699981215200438	-0.670163501159508	-0.00725317017344007	-0.0199261909644741
0.28	1.34106479664564	3.7233636686426	653.408562791632	1.08710528003784	-5.19442971306841	0.749087079986471	-0.719341663678184	-0.00721633609745975	-0.0203826760016004
0.29	1.42110917373318	3.41669977913297	648.272875100547	1.10748510703789	-5.38317727716113	0.804505062614393	-0.77581854107797	-0.00716721600735715	-0.0207316379287553
0.3	1.36119538457716	3.04647690695446	642.684918697299	1.13504546669082	-5.475960471101	0.86038295638255	-0.833427424502261	-0.0071053831127692	-0.020940749522149
0.31	1.20660966490974	2.64276399485078	637.092648152967	1.17325303498573	-5.46441862796228	0.912527184662148	-0.887619691818543	-0.00702612967896388	-0.020991519900813
0.32	1.0041193358933	2.24157468408727	631.942334572796	1.22951079161498	-5.34955170137663	0.959284287030678	-0.936472698996804	-0.00691840358445484	-0.020878917192568
0.33	0.783268726688999	1.88305675901117	627.612691829808	1.31581054037066	-5.13810618329895	1.0016551868285	-0.98093795819224	-0.00676365863784767	-0.0206065761951036
0.34	0.541200326185199	1.60571725179958	624.352366824931	1.44820301114151	-4.83704122482011	1.04255119791223	-1.02418658160269	-0.00653664533896525	-0.0201790992470429
0.35	0.237473921069101	1.43734441484766	622.240415859938	1.64460124926592	-4.44804813095824	1.0853265472706	-1.07013536321463	-0.00620895942016242	-0.0195943457281275
0.36	-0.197092930323558	1.38528453772691	621.185389278268	1.92082956787523	-3.96426708841319	1.13193682494311	-1.12147562151839	-0.0057554998350442	-0.0188389430836324
0.37	-0.838195532136052	1.42997637418939	620.967956457719	2.28544346730059	-3.37069567514035	1.18123079182237	-1.17772833820026	-0.00516296050533016	-0.0178893330690852
0.38	-1.73833572609757	1.52543037240526	621.318313932335	2.73450235634997	-2.64853859575188	1.22793555606165	-1.23394995710958	-0.00443838877185343	-0.0167187856655695
0.39	-2.8993305691306	1.60848214919301	622.007876781084	3.24791925165863	-1.78236517505334	1.26279834573581	-1.28064925723005	-0.00361512114709317	-0.0153086491333838
0.4	-4.25723988444128	1.61564783090267	622.929155329935	3.78899055261719	-0.767926312758749	1.27408611338858	-1.30521320065314	-0.00275346406691546	-0.0136604524371675
0.41	-5.68657363121553	1.50331034278306	624.140168539169	4.30810005981595	0.3818060215312	1.25025582788628	-1.29471073052581	-0.00193451798260258	-0.0118049396800544
0.42	-7.02440190877389	1.26498757955679	625.859331396441	4.75048361937857	1.63429265346694	1.18319644692949	-1.23946100057755	-0.00124738385925638	-0.00980488874296376
0.43	-8.10806332637524	0.93948118068504	628.41032149624	5.0666457428625	2.93956573993875	1.07115197174536	-1.13638511858542	-0.000772114425809933	-0.00775037540039414
0.44	-8.81515100749532	0.605984881095041	632.129848331237	5.22298106528575	4.23631885054535	0.920395038444259	-0.991070431532488	-0.000562444263365713	-0.00574736674908694
0.45	-9.09329720062286	0.36612135199111	637.260808942915	5.20978292244358	5.46033639794288	0.744989997100843	-0.817745210252223	-0.000632887577975527	-0.00390242515606892
0.46	-8.97048156459905	0.317113315919425	643.856774068537	5.04432510245891	6.55314331778194	0.564509286186807	-0.636940454798309	-0.000953914489410956	-0.00230728559886034
0.47	-8.5430092616129	0.523423087874426	651.720754772541	4.76797950332509	7.46892370804693	0.400188278883079	-0.471328309132276	-0.00145679944315913	-0.00102688975242388
0.48	-7.94559989696884	0.995101063877035	660.393063397574	4.4379899250442	8.17846286001468	0.270511292610348	-0.340828930289544	-0.00204704032169623	-9.32779494132174e-05
0.49	-7.3135771463103	1.67940752901925	669.192131072852	4.11601574111912	8.66981216244463	0.187432006183924	-0.258349559895098	-0.00262286597862782	0.000493979031710112
0.5	-6.74906788163966	2.46853324693099	677.300959899026	3.85639504987102	8.94623184979404	0.154261181154543	-0.22735266403684	-0.0030940689572917	0.000761810627693926
0.51	-6.30095353665484	3.22164299620187	683.882734413238	3.69699786912875	9.02249716516515	0.165753686083829	-0.241893154359192	-0.00339660349629811	0.000754323908339405
0.52	-5.9631303334723	3.79545034283986	688.203639215835	3.65461565569411	8.92078059701407	0.210263681507581	-0.28900791958496	-0.00349992836576651	0.000522760043655424
0.53	-5.68948465417128	4.07530419696431	689.740041352403	3.7254205063809	8.66711050827607	0.273235685596037	-0.352643893996155	-0.00340635085425423	0.000117093687168945
0.54	-5.41904207447436	3.9989114115527	688.250999417839	3.8896209451644	8.28899661762215	0.340957399083692	-0.417905358258808	-0.00314384362211573	-0.00041915215446986
0.55	-5.10246310203463	3.56715852171778	683.80475508602	4.11848327338331	7.81435437726552	0.403517197810915	-0.474406761435574	-0.00275526937610893	-0.00105034818785887
0.56	-4.72176911797002	2.84020825552473	676.757742863546	4.3816125151749	7.27146623543053	0.456255608867854	-0.517904096833592	-0.00228731388452819	-0.00174696203571173
0.57	-4.29818421347202	1.92097262407901	667.694366969809	4.65276366835998	6.68945624235554	0.499535710787519	-0.549987122036861	-0.00178177376732991	-0.00248182225252308
0.58	-3.88698516974846	0.931086435600975	657.342901287598	4.9132361062391	6.09865913284415	0.537188585536373	-0.576225414637541	-0.00127058008086245	-0.00322614259853132
0.59	-3.5619489557688	-0.0141242023086267	646.485593503043	5.15275733413339	5.53034451399746	0.574340962149762	-0.603572241158897	-0.000774594742408041	-0.00394693170504701
0.6	-3.39445276776052	-0.825662104043727	635.878930425507	5.36840455424135	5.01549397473352	0.615404404375902	-0.637927702768244	-0.00030523287960893	-0.0046068869055545
0.61	-3.43314601782779	-1.4518375550697	626.194114267765	5.56240621863563	4.58267384673963	0.662805450060761	-0.682551312967023	0.000132455116616526	-0.00516702528245
0.62	-3.68948570370384	-1.87895830296018	617.980355497934	5.73963363303851	4.2554132820604	0.716666147551017	-0.737605227643812	0.000536509139949293	-0.0055913687480475
0.63	-4.13269866229341	-2.12323829200733	611.647201433846	5.90536310661972	4.04977570119256	0.775259316313763	-0.800672289266319	0.000905451342967378	-0.00585225074389084
0.64	-4.69539200729458	-2.21745261814363	607.458771202938	6.06361188634261	3.97289362718261	0.835810093537196	-0.867790028049412	0.00123672427288879	-0.00593450110545085
0.65	-5.28854774565532	-2.19672929515149	605.533137189402	6.21612943161197	4.0230562319165	0.895179628633591	-0.934468456947703	0.00152617056274851	-0.00583703371704714
0.66	-5.82244264543157	-2.08749209329898	605.843417095297	6.36199309823032	4.1915082288156	0.950140283104588	-0.996314072342382	0.0017683177863409	-0.00557117357217313
0.67	-6.22853195432314	-1.90218413244285	608.221619902839	6.49769774066002	4.46554693632891	0.997241458481619	-1.04917362485321	0.00195713451375545	-0.00515618643512805
0.68	-6.47686818687601	-1.64046617394238	612.369821804978	6.6176125813325	4.83197836463337	1.03253445676274	-1.08900039296607	0.00208692149986889	-0.00461354230612082
0.69	-6.58439297422613	-1.29565269057898	617.88418370929	6.71468765095554	5.27972103104379	1.05155057083276	-1.11180529548754	0.00215307139341425	-0.00396205254548115
0.7	-6.61139407686447	-0.863734117898836	624.294998295223	6.78131946435379	5.80047731665115	1.04984949111305	-1.11401885320911	0.00215255911946699	-0.00321588936533168
0.71	-6.64621396426252	-0.351772965270904	631.120915553768	6.81032170266831	6.38694674731769	1.0242016141006	-1.09337563611547	0.00208418675828581	-0.00238658853997198
0.72	-6.78131942127988	0.217158530518694	637.929373669216	6.7959696813217	7.02889541119255	0.974138677725624	-1.05013219867918	0.00194874546835466	-0.00148870223169301
0.73	-7.086342174143	0.804177907297993	644.390349066263	6.73507238751235	7.70825449280134	0.903338578622885	-0.988171580978813	0.00174930482605928	-0.000547284361707534
0.74	-7.58496523292132	1.36003577936288	650.309093827991	6.62796668355998	8.39498799464993	0.820223676453158	-0.915450035375136	0.00149175858789596	0.000395597886069188
0.75	-8.24207452341797	1.83435633416297	655.626938439617	6.47925242599289	9.04550102688374	0.737308228389868	-0.843366980837995	0.00118557121235041	0.00127820621230562
0.76	-8.96533717978255	2.18610303142148	660.387284630709	6.29804702958544	9.60477761536196	0.66920228940527	-0.784966447083976	0.000844468232962803	0.00202224229193665
0.77	-9.6217325817513	2.39229227392741	664.674480123623	6.09757836026152	10.0123787762592	0.629650561396243	-0.75230253035369	0.000486698000944141	0.00254189433877461
0.78	-10.0654689527122	2.45241017707871	668.542788957684	5.89406023566682	10.2112248840389	0.628383805795075	-0.75366410188008	0.000134522561634265	0.00275702473491418
0.79	-10.170381160065	2.3871708446007	671.95736312207	5.70496138632705	10.1571421715378	0.668721407617103	-0.791500463563696	-0.000187240095186003	0.00260722898843119
0.8	-9.85845639221746	2.23189681433041	674.766594113123	5.54692009555616	9.82681375358128	0.74669596436231	-0.861735282608235	-0.00045356783043371	0.00206306288516811
0.81	-9.11717558915782	2.02644485137882	676.715753012187	5.43362604019413	9.22217412472998	0.852009335453371	-0.954733378115481	-0.000642199454284009	0.00113152370131253
0.82	-8.0016428977193	1.80471620119011	677.498562722955	5.37398751601995	8.37028429155124	0.970535498265804	-1.05764324200705	-0.000736755603517714	-0.000145403093944452
0.83	-6.62191340762901	1.58694976839178	676.831169416969	5.37086220559583	7.31896359141793	1.08758685813618	-1.15738812647938	-0.000729441858551727	-0.00169830102693969
0.84	-5.11997745992627	1.37705736971882	674.526463845222	5.42058683321386	6.12950063662548	1.19095441571485	-1.24340026281198	-0.000622716138622748	-0.00344157310129822
0.85	-3.64314792771834	1.16549373581952	670.548102569245	5.51349117952082	4.868288685084	1.27289344337734	-1.30935204395649	-0.000429368449974321	-0.00528535280162057
0.86	-2.32049718035848	0.9362048022454	665.031861204707	5.63548104468899	3.59912667907081	1.33067175316212	-1.35355405794746	-0.000170694334463706	-0.00714548264707904
0.87	-1.24684262743195	0.674843237598783	658.273348799422	5.77057897872758	2.37734023423709	1.36582600730211	-1.37817475816707	0.000127134534113504	-0.00895015049603476
0.88	-0.475673093230247	0.37523999474747	650.690905509414	5.90403018956663	1.2461117575935	1.38266090541714	-1.38778640457804	0.000437859730516132	-0.0106431324612482
0.89	-0.019648095648834	0.0421352562427266	642.77714790677	6.02530085588949	0.234785388832415	1.38663767889511	-1.38783274933776	0.000739961023896174	-0.0121845713974748
0.9	0.144162033026497	-0.310088313749999	635.051195531695	6.13015361987576	-0.641369689050034	1.38313365237659	-1.38345300582705	0.00102018731044529	-0.0135505101962296
0.91	0.0670471972744609	-0.661274640046511	628.017960666202	6.2210971148804	-1.38038250747188	1.37673936728524	-1.37880476091358	0.00127468970825917	-0.0147320312869932
0.92	-0.178979965334129	-0.989745172772543	622.134511666095	6.30589894726321	-1.9919641098604	1.37096857893772	-1.37676803785409	0.00150730617091965	-0.0157341475439361
0.93	-0.509059952493044	-1.2750265125242	617.779782340092	6.39442855724575	-2.49498493582371	1.36812253763494	-1.37880281956057	0.00172544128551788	-0.0165739819725029
0.94	-0.834257204695179	-1.49835583783129	615.224412428833	6.49466696338666	-2.91395530492449	1.36910654427475	-1.38479603496108	0.00193481306414911	-0.0172776111533681
0.95	-1.07170641627107	-1.64169911191174	614.601497446822	6.60907223615508	-3.27466531903124	1.37317597909831	-1.39290078129698	0.0021347927046641	-0.0178753322396975
0.96	-1.15558159822441	-1.68694363308322	615.883888065085	6.73247460964971	-3.59954879638885	1.37777046220806	-1.39952543026367	0.0023159586733138	-0.0183958600196927
0.97	-1.04705637762996	-1.61689675933894	618.876378446429	6.85227082093027	-3.90368608634741	1.37867231711512	-1.39967815168416	0.00246083467682046	-0.0188606864386875
0.98	-0.74067042168723	-1.41877174326717	623.229778555395	6.95100940089547	-4.19243136819883	1.37065674794301	-1.38778340419096	0.00254778697025215	-0.0192801436177893
0.99	-0.264836105897125	-1.08944486600792	628.478683754712	7.0107224951128	-4.46133511767526	1.3486194981316	-1.35890338297503	0.00255704342701701	-0.019652389098105
1	0.324347570677447	-0.640596104915013	634.097889897924	7.017804815192	-4.69840738502592	1.30895776273614	-1.31010553500952	0.00247709276211261	-0.0199656621483727
1.01	0.954773960797135	-0.101449509644901	639.566839144006	6.96704682870511	-4.88806684714999	1.25083424935517	-1.24160320386765	0.00230954894524005	-0.0202030934830564
1.02	1.55251401890207	0.482595549429983	644.4295525573	6.8636577417776	-5.01563190229533	1.17693350125928	-1.15730931107	0.00207097018520186	-0.0203485423724696
1.03	2.05476381910674	1.05582801982836	648.33980488697	6.72268816813613	-5.07113632628003	1.0934333500645	-1.06457955376322	0.00179097074702905	-0.020391724592601
1.04	2.41842672556811	1.56142163800549	651.086515126704	6.56600051138775	-5.0516126697152	1.0091232638553	-0.973134450483552	0.00150699652139574	-0.0203313449266023
1.05	2.62293051467529	1.9516242724362	652.600014433767	6.41761168557838	-4.96160970596191	0.933836414765732	-0.893369396023041	0.0012570493534545	-0.0201758233995292
1.06	2.6679730911746	2.1962211827688	652.943662764466	6.29865042901188	-4.81231790066577	0.87655061046025	-0.83442297479085	0.00107218515894847	-0.0199420952277655
1.07	2.56846975130314	2.28708469318476	652.296050489178	6.22321815772529	-4.62001850454045	0.843601099014603	-0.802433618496552	0.000970635797287289	-0.019653488394264
1.08	2.349427793647	2.23784022940638	650.927183046298	6.19612165969252	-4.40453767428645	0.837415578876962	-0.799363494325316	0.000954922915399892	-0.0193376606683385
1.09	2.0427115906919	2.07912917286123	649.169282528935	6.21287281137292	-4.18804755039686	0.856044879133483	-0.822627950817601	0.00101249722850205	-0.0190250991521502
1.1	1.68612132500498	1.85113055058305	647.381131885569	6.26171248381123	-3.99411533186467	0.893566000867327	-0.865582021475923	0.00111950280022444	-0.0187480425045974
1.11	1.32363017294687	1.59554507567509	645.905511454613	6.3269102658034	-3.84659174231616	0.941233611192731	-0.918732115750885	0.00124650810088989	-0.0185392207590559
1.12	1.00471674550931	1.34902621368534	645.022189713254	6.39235948411731	-3.76790479399556	0.989102108495693	-0.971403217788955	0.00136467207259194	-0.0184297497576584
1.13	0.780889093220661	1.13922042262291	644.902806251677	6.44456819773436	-3.77659346658965	1.02776501809794	-1.01352474954608	0.00145089917303909	-0.0184458886862499
1.14	0.698672680356719	0.983514634569729	645.576857432275	6.4744748138617	-3.8843507312585	1.04986993936452	-1.03720690922991	0.00149100736833208	-0.0186049894153762
1.15	0.790063363886623	0.889706643298759	646.918170842177	6.4779529144765	-4.09324341436955	1.05115179058577	-1.03785168212213	0.00148060009884388	-0.0189115440954613
1.16	1.06302456559274	0.857430855349252	648.658093636389	6.45526026633112	-4.39395007041247	1.03085556013953	-1.01465531664591	0.00142397281273188	-0.0193545021973153
1.17	1.49534940578386	0.879374766351496	650.4258343829	6.40991910654563	-4.76571357965306	0.99155654440464	-0.970483675514917	0.00133181437996488	-0.0199068448322482
1.18	2.03470711212988	0.941938684269215	651.809764845747	6.34754823402073	-5.17828061230939	0.938498231977039	-0.911212011282328	0.00121859600822993	-0.0205278275337418
