Time [s]	GRFml [N]	GRFap [N]	GRFv [N]	Mml [N.m]	Map [N.m]	Mv [N.m]	Mfree [N.m]	COPml [m]	COPap [m]
0.01	-0.958833917609106	3.32343082495889	858.071564305821	-11.4369595253736	65.2729429489181	0.216790574743878	-0.456803893020762	-0.0045730784359399	-0.000169836579871574
0.02	-1.09850675724761	3.2937303132996	858.20682729734	-11.3329656320191	65.3054133791088	0.247919274821471	-0.484036660250883	-0.00445302990872642	-0.000140832077385356
0.03	-1.23332541042791	3.25703741040259	858.305059673683	-11.2290316127896	65.3379351164681	0.276164421222114	-0.507940462714512	-0.00433350056807502	-0.00010827041026068
0.04	-1.36044204432665	3.20919894797029	858.33950895608	-11.126037575242	65.3702614964961	0.299124306998603	-0.525852934743044	-0.00421583936322556	-6.98988331757078e-05
0.05	-1.47811899300373	3.14947372955522	858.300258872638	-11.0240133510256	65.4015272989608	0.315469969523651	-0.536419754802039	-0.00410020014626067	-2.5759213208576e-05
0.06	-1.58504035515176	3.08032294621567	858.194886039977	-10.9219396698808	65.4302627266043	0.325142538019798	-0.53978267775291	-0.00398530314195711	2.17571445212394e-05
0.07	-1.67922227068851	3.00607061728484	858.043785957138	-10.8179787663404	65.4546698455375	0.329239694707221	-0.537378588826994	-0.0038687612264926	6.86574624922387e-05
0.08	-1.75713941640816	2.93110343187687	857.872606047016	-10.7100404418731	65.4730676032975	0.329651277539041	-0.531452427885525	-0.00374783125505562	0.00011056798393283
0.09	-1.81371984454212	2.85840572710243	857.704928046698	-10.5964567271931	65.4843551135865	0.328568634381896	-0.524460174978541	-0.00362028739940568	0.000143962687118082
0.1	-1.84354325093698	2.78897565808476	857.557638842108	-10.4764931574671	65.4883391123373	0.328008901882814	-0.518539460836742	-0.00348506986413322	0.000166991963116425
0.11	-1.843030884446	2.72219931946154	857.439845623206	-10.3504897388987	65.485819360088	0.329464620346193	-0.515165723240484	-0.0033424581954794	0.000179701721884085
0.12	-1.81288150593074	2.65681260904556	857.354561529625	-10.2195743511479	65.4784089279722	0.333730395356801	-0.515025820693625	-0.00319371346916086	0.000183680434875655
0.13	-1.75973560253449	2.59186183912776	857.30144391749	-10.0850662190189	65.4681557086175	0.340898874065685	-0.518068364995667	-0.003040349373027	0.000181365738285644
0.14	-1.69618161859637	2.52716239111891	857.278926833754	-9.94781861339383	65.4570939154835	0.350480088459302	-0.523657014316535	-0.00288334432319182	0.000175314128599169
0.15	-1.63872821359753	2.4630781722995	857.284949510694	-9.8077852715227	65.4468656260984	0.361588796522162	-0.530762121635186	-0.00272263601353484	0.000167675495405584
0.16	-1.6040757811541	2.39982711783178	857.316562223793	-9.66401616189975	65.4385093246162	0.373156054493592	-0.538158634787991	-0.00255713268444324	0.00015996662837664
0.17	-1.60466998675922	2.33676918111091	857.369357388021	-9.51512047525819	65.4324356316409	0.384138085032053	-0.544626917106191	-0.00238526996956012	0.000153085886811399
0.18	-1.64487400021724	2.27213854077678	857.4375933651	-9.36004052021813	65.4285360508516	0.393704421323169	-0.549159046129763	-0.00220591622728983	0.000147428276965123
0.19	-1.71902500852779	2.20345064647643	857.515191609205	-9.19883734810895	65.4263330482088	0.401385277389283	-0.55115506201643	-0.00201927234186672	0.000142975267285739
0.2	-1.81215769780086	2.12846824357727	857.597003259953	-9.03315962900787	65.425094749691	0.407152455620055	-0.550567529989909	-0.00182739019751377	0.00013932040632636
0.21	-1.90342261091812	2.04631718266814	857.67940523028	-8.86617056052236	65.4238932014298	0.411410162811369	-0.547940798786642	-0.00163406190996063	0.000135687628511072
0.22	-1.97141774993121	1.95823783013017	857.75963462786	-8.70190842850872	65.4216471737286	0.414888536586914	-0.544307858845307	-0.00144406438270306	0.000131042143399596
0.23	-2.00002235749434	1.86758482450377	857.834089554186	-8.54427800558377	65.4172196290889	0.418460091007545	-0.540950278024349	-0.0012619926561267	0.000124356274139925
0.24	-1.98306883339366	1.77898667544342	857.896595739796	-8.39602357394521	65.4096143240232	0.422925433206819	-0.539076908574494	-0.00109108328598406	0.000114994472808883
0.25	-1.92641906612172	1.69691744553292	857.937870260299	-8.25805509444688	65.3982460231447	0.42882578591875	-0.539510849899795	-0.000932446508444706	0.000103078925860367
0.26	-1.8466999694512	1.62417539105504	857.946935938825	-8.12937342191926	65.3831842759321	0.436329723395731	-0.542475267473453	-0.000784980990265582	8.9651728121809e-05
0.27	-1.76692498016142	1.56081500874442	857.914289814687	-8.00761476626094	65.3652390406016	0.445215205844024	-0.547537096439176	-0.000645990364585347	7.64964412182656e-05
0.28	-1.71019022902874	1.50392652981517	857.835699110315	-7.88999857197481	65.3457944043722	0.45493863809568	-0.55371829662444	-0.000512256510079023	6.56087489049328e-05
0.29	-1.69326237034127	1.44836597476212	857.715064210153	-7.77431313027249	65.3263935403963	0.46476304120525	-0.559737624801411	-0.000381157637228235	5.84580129880941e-05
0.3	-1.72193686937497	1.38822147575856	857.565071200152	-7.65957089652855	65.308190702598	0.473912431517271	-0.564317030750456	-0.000251417522529995	5.52884252132402e-05
0.31	-1.78950033857832	1.31856962007174	857.405229496484	-7.54610948348008	65.2914618319542	0.481724681392923	-0.566479834378334	-0.000123233921467514	5.4719593232222e-05
0.32	-1.87865946670612	1.2369990309174	857.257950026344	-7.43514160360104	65.2753681502822	0.487781444832534	-0.565777261209403	2.21128303068419e-06	5.38154060095164e-05
0.33	-1.96624141585958	1.14446506575096	857.144077606975	-7.32797184996271	65.2580926038369	0.491995069221031	-0.562397155585462	0.000123617370102025	4.86355007727757e-05
0.34	-2.02919104530637	1.0452429492667	857.079399102465	-7.22521416008867	65.2373439958281	0.494630511815591	-0.557128834535745	0.000240432371259924	3.51282321761071e-05
0.35	-2.05013571513613	0.945994747829127	857.07306526633	-7.12632142518063	65.2110933762516	0.496243364258388	-0.551181817879912	0.000353373636295617	1.01244046320503e-05
0.36	-2.0210966196994	0.854190960095825	857.127883127388	-7.02959768394749	65.1783178197877	0.497531061045741	-0.545886156568997	0.00046440841137263	-2.78254165084202e-05
0.37	-1.94462678967048	0.776283634322411	857.241551132783	-6.93266862646173	65.1395091182679	0.499123191187352	-0.542336305634532	0.000576218821620844	-7.79686878196739e-05
0.38	-1.83245990302171	0.716089028385382	857.407571472421	-6.83321655293257	65.096765564791	0.501367929778659	-0.541068956476048	0.000691366865939846	-0.000137322016050823
0.39	-1.70237902490352	0.673792965131433	857.614961583352	-6.72970183109387	65.0534050193924	0.50418842708172	-0.541873082024414	0.000811472638236554	-0.000201089568523161
0.4	-1.57429637251718	0.645844945891581	857.846813415483	-6.62181611917563	65.013180063023	0.507072333246676	-0.5438061971977	0.000936697153752997	-0.000263440371468915
0.41	-1.46647207317412	0.625783348156507	858.078754218741	-6.51052396106745	64.9792988319483	0.50921773197447	-0.545434719362454	0.00106569907516607	-0.000318503526517633
0.42	-1.3925187052805	0.60578619393189	858.278930465563	-6.39770064081692	64.9535221461229	0.509801765236493	-0.545243372310488	0.00119606421057805	-0.000361412875255429
0.43	-1.35951089746456	0.578541141388198	858.410929223243	-6.28550831053927	64.9355982829311	0.508286003352881	-0.542094507676342	0.00132505122952353	-0.000389223898181468
0.44	-1.36727341011737	0.538940135038566	858.44005905023	-6.17572419945475	64.9232110620188	0.504647825080129	-0.535589428140876	0.00145040851748146	-0.000401535411679199
0.45	-1.40879328959071	0.485160125916324	858.341971213167	-6.06922612273651	64.9124761177497	0.4994433858076	-0.526205845986168	0.00157101850574937	-0.000400682878377245
0.46	-1.47164607267244	0.418873513795745	858.111278586917	-5.96576527861665	64.8988633659634	0.493663011765539	-0.515155198505519	0.00168720508501774	-0.000391434691769166
0.47	-1.54026600923724	0.344580469469809	857.767209376482	-5.86405217722705	64.8782977226837	0.488415518933471	-0.503998138114491	0.00180065705349541	-0.000380215233039272
0.48	-1.59877648236151	0.268292478801968	857.353777243923	-5.76209265989529	64.8481355468196	0.484545622456245	-0.494142314182054	0.00191402702487098	-0.000373983361948271
0.49	-1.63394018151586	0.195954513612065	856.933418361807	-5.65766777153978	64.807750094227	0.482321242170555	-0.486391502901214	0.00203032495537869	-0.000378985499112972
0.5	-1.63765619524203	0.132033710993757	856.575074907173	-5.54885696413679	64.7585745732248	0.481310428616059	-0.480701358075545	0.00215223130283382	-0.00039964898121797
0.51	-1.60841184276159	0.078624329054429	856.339571097831	-5.43453551240233	64.7036082661259	0.480504592592886	-0.476227819641845	0.00228142894436334	-0.000437863452885212
0.52	-1.55125482230387	0.0352552288969026	856.266144279946	-5.31480012782731	64.6465390265049	0.478657074434186	-0.471653094948098	0.0024180307248689	-0.00049281397455464
0.53	-1.4761869153779	-0.000609158440779748	856.363790898254	-5.19126942659005	64.5907304171649	0.474725455329538	-0.465676824747779	0.00256018501152744	-0.000561398720513195
0.54	-1.39531705994089	-0.032556203535947	856.609753737437	-5.06717382100136	64.5383417611384	0.46826291935439	-0.457501613476559	0.00270396972289222	-0.000639121408118115
0.55	-1.31951209919303	-0.0639948235282835	856.955489101599	-4.94712474882881	64.4897981385142	0.459616235079333	-0.447143932090901	0.00284370208685047	-0.000721232695516882
0.56	-1.25549758355381	-0.0970372217338449	857.338452879187	-4.83647595329734	64.4437274861765	0.449853169296934	-0.43546306217989	0.00297275418134191	-0.00080383626659708
0.57	-1.20428457950958	-0.131782207151472	857.696593933807	-4.74028203636354	64.3973632759088	0.44043791082719	-0.423900163064178	0.0030848499332049	-0.000884688261601152
0.58	-1.16142258910403	-0.166185146339886	857.981869659484	-4.66200800053445	64.3473011663187	0.432764799814583	-0.414021263590129	0.00317564464904829	-0.000963498799594842
0.59	-1.11900588689904	-0.196550307924031	858.169472745574	-4.60229734990386	64.2904172331603	0.427714399096999	-0.407026009778853	0.00324421189651469	-0.00104167243249315
0.6	-1.06877821148063	-0.218518182766682	858.26064392166	-4.55819543916075	64.2247176778462	0.425390887701717	-0.403394225333049	0.00329396525312931	-0.0011215716884358
0.61	-1.00529752411867	-0.228284420244799	858.278649807966	-4.52318860911646	64.14990306036	0.42513594354665	-0.402790686760875	0.00333259324522084	-0.00120551981024319
0.62	-0.928089562174312	-0.22371992290252	858.259315203095	-4.48823685167039	64.0674953210266	0.425813400109252	-0.404252833860667	0.00337080785691335	-0.00129483871819669
0.63	-0.842065610519162	-0.205089027415559	858.238943543056	-4.44368414631398	63.9804850740909	0.426257792191188	-0.406581189779276	0.00342005634854281	-0.00138921548466281
0.64	-0.756092729323782	-0.175180291246526	858.243121920897	-4.38161638467649	63.8925886973596	0.425717681402339	-0.408778191286123	0.00348971553609934	-0.0014865944324382
0.65	-0.680261787243059	-0.138835949570363	858.279569776226	-4.2980193675465	63.8073244184569	0.424127641027599	-0.41036799397828	0.00358453906389478	-0.00158362451279581
0.66	-0.622851414213512	-0.102035438590842	858.336932052883	-4.19406842402453	63.7271818596994	0.422111924002301	-0.411483948071	0.00370314578266495	-0.00167650825614346
0.67	-0.588057414889213	-0.0707997539294645	858.389611386016	-4.07609249423236	63.6531378078805	0.420730890241504	-0.412709595353482	0.00383808166541777	-0.00176196886081936
0.68	-0.575217812215246	-0.0502009507402185	858.406934149648	-3.95414541994366	63.5846581353632	0.421082718476165	-0.414760538027897	0.00397752443152444	-0.00183802820757645
0.69	-0.57965105263271	-0.0436811952656299	858.363705128457	-3.83955504335601	63.5201556967275	0.423923848819878	-0.418154118682179	0.00410818444570793	-0.00190437894493145
0.7	-0.594593274241514	-0.052741016464174	858.24889314012	-3.74214800428003	63.457710462924	0.429450456007014	-0.423006437404221	0.00421857383763502	-0.00196229597094
0.71	-0.613335787630264	-0.0769093770099653	858.069871539946	-3.66794407455799	63.395769379337	0.437301942441273	-0.429027876422967	0.00430170855804757	-0.00201419333389996
0.72	-0.630686065874216	-0.113831075651285	857.851068562633	-3.61794646456386	63.3335704065056	0.44674617561396	-0.435693104666494	0.00435651055477193	-0.00206302343710602
0.73	-0.643283171415406	-0.159346977934465	857.627599399357	-3.58829240313842	63.271169452874	0.456933778994225	-0.44248480710073	0.00438760669123761	-0.00211170663890814
0.74	-0.648894740546419	-0.207587325356306	857.435924712845	-3.57160883754533	63.2091322752883	0.467098121489228	-0.449086690152409	0.00440371487398528	-0.00216269296609478
0.75	-0.645324866605659	-0.251266681855548	857.304375233705	-3.55908816342278	63.1481021534584	0.476629344355342	-0.455438400634049	0.00441519367599308	-0.00221765370097859
0.76	-0.629734805117463	-0.28244358531605	857.246291688007	-3.54265659938786	63.0884976684707	0.485033608668791	-0.461641311043884	0.00443149532613918	-0.00227724311831345
0.77	-0.598943345025427	-0.293900792827195	857.257630301499	-3.51667165313393	63.0305112502506	0.491856803117318	-0.46778060663634	0.00445918306998316	-0.00234089158623552
0.78	-0.550745541607687	-0.281016762010025	857.319498184619	-3.47880014429036	62.9744084559167	0.496668759630865	-0.473768663839728	0.00450091845393019	-0.00240667131965744
0.79	-0.485717272774208	-0.243648775265682	857.404652478467	-3.43000048908636	62.9209549391812	0.499161140832642	-0.479299644113734	0.00455550306450614	-0.00247135453397918
0.8	-0.408625640689066	-0.187312081097573	857.485933950705	-3.37377135947852	62.8717104936015	0.499333021849654	-0.483944770772546	0.00461877946873568	-0.00253079384857308
0.81	-0.328605028494894	-0.122975491961468	857.544175853295	-3.31497535473333	62.8289732558913	0.497665931056716	-0.487342798943685	0.00468502510906399	-0.00258066621480019
0.82	-0.257679394343834	-0.0651513994653284	857.573401481648	-3.25858523491133	62.7953123074933	0.49516580922915	-0.48938817857347	0.00474842859124458	-0.00261746381396916
0.83	-0.20784936019354	-0.0285380442818701	857.581975416022	-3.20864933742795	62.7728188508433	0.493191123315795	-0.490316363475056	0.00480429904682744	-0.00263946497959455
0.84	-0.187570203216326	-0.0240577063731637	857.5895336579	-3.16766645344191	62.7623444769311	0.49307941012528	-0.490633625822717	0.00484978568325389	-0.00264735735912541
0.85	-0.198788667827943	-0.0554827882353508	857.620652251661	-3.13643495966563	62.763018677738	0.49568701886799	-0.490914516931391	0.00488403372853896	-0.002644256281716
0.86	-0.235641923622004	-0.117788635542354	857.697025303152	-3.11432611649853	62.7722412492256	0.501019378873566	-0.491556897184949	0.00490783966291808	-0.0026350437682231
0.87	-0.285451761449329	-0.197905996482898	857.830235792128	-3.09984696480296	62.7861749127515	0.508118414572883	-0.492609708548497	0.00492296918478408	-0.00262517822915348
0.88	-0.331915404586248	-0.27781579577183	858.016992201037	-3.09131325037943	62.8005904410447	0.515288743532552	-0.493759909178152	0.00493135450586446	-0.00261930688829631
0.89	-0.359644482765784	-0.339183697527218	858.238070283744	-3.08744709538623	62.8118040937636	0.520617192683717	-0.494495219235228	0.00493439301659249	-0.00262008796689356
0.9	-0.358697613450644	-0.368225512428986	858.461309714238	-3.08774269455594	62.8174283556505	0.522621989769187	-0.494380032631309	0.00493253294669294	-0.00262757453233159
0.91	-0.327676924811771	-0.359393969166463	858.648059149165	-3.0925015118158	62.8167289840937	0.520806542027362	-0.493327941751294	0.00492525939380772	-0.00263934688241163
0.92	-0.274356844135259	-0.316811543303163	858.761629735512	-3.1025231282649	62.8105132049747	0.515913203337258	-0.491748770310134	0.00491149088382226	-0.0026513575813481
0.93	-0.213562969733883	-0.253033985869245	858.775785429756	-3.11854146105645	62.8006204838451	0.509768771418971	-0.490493180707239	0.00489027272349052	-0.0026592396365081
0.94	-0.162876237403137	-0.185510701459065	858.681213727343	-3.14059763441797	62.7892035915171	0.504752122879678	-0.490596153114024	0.00486153433549996	-0.00265968740698941
0.95	-0.13742295174449	-0.131775709540114	858.488345283904	-3.16760341090816	62.7780396570808	0.503047279213067	-0.492902090652121	0.00482660701401805	-0.00265149574049434
0.96	-0.145304680276851	-0.104756940624529	858.225755388502	-3.19733110403593	62.7680835437577	0.505925977895383	-0.497708090647204	0.00478822415435387	-0.0026359469404677
0.97	-0.185035231367869	-0.109525407965431	857.934471567987	-3.22694497142646	62.7593783370871	0.513303070451591	-0.504566745305013	0.00474987261815696	-0.00261643934355427
0.98	-0.245751362975675	-0.142340965250924	857.659531508564	-3.25398623023757	62.7513034673556	0.523723431484317	-0.512341525624445	0.00471460525071665	-0.00259749217131428
0.99	-0.310140570946063	-0.192137656521496	857.440805380718	-3.27750927413391	62.7430194075789	0.534797275606943	-0.519521433005305	0.00468367733094588	-0.0025834585232915
1	-0.359232182278381	-0.243862752513622	857.305252240786	-3.29893732685242	62.7339067922151	0.543949647253939	-0.524706939995228	0.00465552026149796	-0.00257736267773573
1.01	-0.377657499150823	-0.28257657858676	857.26240588176	-3.322240194119	62.7238223543218	0.549241766979057	-0.527110430616872	0.00462552278683359	-0.00258021857846463
1.02	-0.35785203109375	-0.297088813590127	857.304088705074	-3.35324953811546	62.7130930805411	0.549994877032694	-0.526897514212528	0.00458683740368027	-0.00259100530205042
1.03	-0.301985761278641	-0.282166327602987	857.408315384776	-3.39824917973868	62.702298546545	0.547010991201938	-0.525239165162293	0.00453204902903093	-0.00260723964675119
1.04	-0.221082473264044	-0.238877078784034	857.546294068715	-3.46227886731793	62.6919906100017	0.542317814917304	-0.524036038154289	0.00445518762410524	-0.00262588267364777
1.05	-0.131637241087863	-0.173234064220634	857.690604403798	-3.54773561192546	62.6825241493844	0.53852196004127	-0.525385783490232	0.00435339365406406	-0.00264421893596012
1.06	-0.0508091791200671	-0.0937743746265745	857.822260002045	-3.65377427971122	62.6741118359194	0.537982547721332	-0.530954404875835	0.00422764065366354	-0.0026603857942018
1.07	0.00829326951707346	-0.00892207524309169	857.934606211333	-3.77672432445519	62.6670984333624	0.542073275295084	-0.541451075386167	0.00408225337991042	-0.00267338603534001
1.08	0.0397636898496329	0.0750882048057472	858.032871902349	-3.91136596673623	62.6623290473092	0.550766099169652	-0.556376252598933	0.00392340062944541	-0.00268262937144759
1.09	0.0455501973831465	0.155242797311448	858.129500670185	-4.05259671668243	62.661415056858	0.562656217378639	-0.574123168240391	0.00375711317768812	-0.00268723946976018
1.1	0.0335264298911172	0.231642764012165	858.236769437831	-4.19688921157054	62.6667138611221	0.575396617678889	-0.59239381826713	0.0035875362243365	-0.00268546480366022
1.11	0.0137761231896341	0.306522852277895	858.359213171129	-4.34303879460908	62.6809339719104	0.586376109420287	-0.608786403669566	0.00341601732670116	-0.00267450627680726
1.12	-0.00551894286361529	0.382874920185946	858.488624341783	-4.49197927759619	62.7064232263751	0.593406061126891	-0.621361301674573	0.00324130482379381	-0.00265092658487742
1.13	-0.0210935450907066	0.463185630015924	858.603706508862	-4.64579566320237	62.7443414383507	0.595200340299855	-0.629014896857837	0.00306071771886063	-0.00261158239782
1.14	-0.0354390951738071	0.548661356109074	858.674969710475	-4.80634958614858	62.7940023068835	0.591526993859954	-0.631572747955405	0.00287180253552732	-0.00255479851545648
1.15	-0.055179503547023	0.639078911624751	858.673615496831	-4.97405299493366	62.8526526000084	0.583036982085233	-0.629619202812828	0.00267384010291272	-0.00248136813642053
1.16	-0.0875782854724957	0.733161573577017	858.581614722811	-5.14724155836347	62.9158344717363	0.570883536077691	-0.624166480135253	0.00246865296528642	-0.00239497543498557
