Time [s]	GRFml [N]	GRFap [N]	GRFv [N]	Mml [N.m]	Map [N.m]	Mv [N.m]	Mfree [N.m]	COPml [m]	COPap [m]
0.01	24.666099918721	-2.06869486289153	612.704606421035	-29.0364051743754	-1.40071058727878	2.54157899318087	3.70934037395469	-0.00623412969679921	0.0293821555955905
0.02	24.3703617184388	-2.32413027119369	616.865567578516	-28.5196699211257	-0.812909898270233	2.62925435141943	3.7599028016396	-0.00527036157835163	0.0283707056000822
0.03	24.0650533826249	-2.62258861845464	620.661971909822	-27.9446062580651	-0.225032016395897	2.71902373542446	3.81093269251616	-0.00430670600104083	0.027265398360535
0.04	23.7484600845735	-2.97774155637147	623.88617356014	-27.2922218521506	0.356581075980944	2.81066376721566	3.86184485312006	-0.0033526854135769	0.02604494696129
0.05	23.419486798023	-3.40031235461984	626.344563929918	-26.5470922198973	0.925455873260727	2.90374502173017	3.91207072215121	-0.00241768822654486	0.0246932318067895
0.06	23.077923033148	-3.8969432388992	627.868636345782	-25.698957846861	1.47505546933633	2.99758829073218	3.96104320168648	-0.0015109318733192	0.0232014610593689
0.07	22.7246425478232	-4.46930541032133	628.325257311488	-24.7440267801667	1.99886587035382	3.09124062668846	4.00817495792856	-0.000641436482351701	0.0215699433173753
0.08	22.3617185269969	-5.11352596297911	627.625541167989	-23.6858789019173	2.4905039230114	3.1834752184639	4.05283397996173	0.000181999765344036	0.0198093126792882
0.09	21.9924417623734	-5.81998313934202	625.731778308022	-22.5358963319138	2.94384758250895	3.27281710189718	4.09432149688738	0.000950832102656772	0.0179410825702827
0.1	21.6212371923704	-6.57349526764634	622.661952261448	-21.3131772659768	3.35318642160187	3.35759449578266	4.13185832444295	0.00165681652344746	0.0159974493590999
0.11	21.2534821455011	-7.35390126687352	618.4914951099	-20.0439256141588	3.71338761936841	3.43601336640272	4.16458597758182	0.00229208354960154	0.0140203168121947
0.12	20.8952371880662	-8.13700367330649	613.352069052391	-18.7603437220582	4.02007038634367	3.50625083324566	4.19158809939464	0.00284925080565706	0.0120595650732217
0.13	20.5529071005698	-8.89582048099378	607.427318030394	-17.4990880648463	4.26978004349615	3.56656138157022	4.21193570584844	0.00332158791939346	0.0101706406798331
0.14	20.2328547779684	-9.60207121575566	600.945699153917	-16.2993761743761	4.46015188145468	3.61538865897077	4.22475644947612	0.00370324617240569	0.00841159487925589
0.15	19.9409944531455	-10.2278068068575	594.170670192401	-15.2008555984502	4.59005453619271	3.65147498131947	4.22932387449062	0.00398956029359401	0.006839743832032
0.16	19.6823923835769	-10.7470828669457	587.388666981694	-14.2413611915629	4.65970293324189	3.67396059707746	4.22515807547412	0.00417741935498862	0.00550816334920127
0.17	19.4609029432432	-11.137572445473	580.89544364922	-13.4546947279444	4.67073183786209	3.68246525634871	4.21212511831571	0.00426568741024983	0.00446225879358874
0.18	19.2788659740933	-11.3820172956212	574.98146012214	-12.868560402045	4.62622263144927	3.67714566181213	4.19051997952081	0.00425563374395256	0.00373666275304313
0.19	19.1368874403035	-11.4694259125054	569.917077773924	-12.5027813953107	4.53067801417732	3.65872386737597	4.16111747783956	0.00415131149335802	0.00335270349152818
0.2	19.0337201666927	-11.3959414203551	565.938359431166	-12.367906942868	4.3899417881504	3.62848353223067	4.12517827767025	0.00395980873565904	0.00331665140219558
0.21	18.9662550900308	-11.1653218484349	563.234260747749	-12.4642972339835	4.21106356726678	3.58823300605103	4.08440256435532	0.00369129580846026	0.00361888773962073
0.22	18.9296264322928	-10.7889982218304	561.935945222914	-12.7817463702776	4.0021110448717	3.54023637504721	4.04083174124892	0.0033588125309209	0.00423405517639126
0.23	18.9174269773095	-10.2857008027602	562.108856740598	-13.2996730902515	3.77193518213285	3.48711569388418	3.99670707598068	0.00297777916059864	0.00512215602599937
0.24	18.9220226608977	-9.68066925023766	563.748046044076	-13.9878768199338	3.52989621763764	3.43172952608513	3.95430177241135	0.00256526723574601	0.00623047920371102
0.25	18.9349494082206	-9.00448690913482	566.777078179299	-14.8078246669178	3.28556061083244	3.37703449087102	3.91574766351013	0.00213911599888152	0.00749617826491413
0.26	18.947369956129	-8.29160145934608	571.05065593779	-15.7144050431205	3.0483808024197	3.32593766562309	3.88287845071608	0.00171701066190698	0.0088492994534922
0.27	18.9505645907442	-7.57861247659802	576.360890598188	-16.6580573503266	2.8273709068849	3.28114834768581	3.85710804450465	0.00131564006991886	0.0102160679351061
0.28	18.9364275249162	-6.90242003503209	582.446947624746	-17.5871660373541	2.63079207250297	3.2450377981643	3.839356030108	0.000950023827213299	0.0115222692217035
0.29	18.897940144563	-6.29833656431793	589.007603436001	-18.4505924822508	2.46586120605537	3.21951517060145	3.83002420863613	0.000633053399172151	0.0126965943949143
0.3	18.829593567317	-5.79826633717685	595.716081333985	-19.2002103501457	2.33849604685718	3.20592690110308	3.8290202889638	0.00037524369510046	0.0136738392820964
0.31	18.7277357780009	-5.42905313371503	602.236400304314	-19.7933097103888	2.25310820399168	3.20498546804605	3.83581853864533	0.000184654771436035	0.0143978549853135
0.32	18.5908228376248	-5.21108708343571	608.240377833069	-20.1947422325714	2.21245379232906	3.21673171043772	3.84954340100044	6.69246042946103e-05	0.0148241441105849
0.33	18.4195590344054	-5.15724702871255	613.424382850927	-20.3786937778789	2.21754880121391	3.24053293590672	3.8690610555994	2.53531744455618e-05	0.0149219920647114
0.34	18.2169170293033	-5.27223587638995	617.524940313853	-20.3299908379399	2.2676534204849	3.27511697589682	3.89306549195842	6.09903502082855e-05	0.0146760240723513
0.35	17.9880356827896	-5.55234442841157	620.33234469504	-20.0448723957717	2.36032637469514	3.31864028427851	3.92014938342361	0.000172698683731071	0.014087091126361
0.36	17.7399999590899	-5.98565538970294	621.701542777542	-19.5311874778577	2.49154704127736	3.36878624912826	3.94885512660988	0.000357181714819048	0.0131724129439013
0.37	17.4815137215645	-6.55267500678795	621.559690840073	-18.8080093367652	2.65589992653386	3.42288820679693	3.97770690874639	0.000608985306508394	0.0119649410140188
0.38	17.2224820167027	-7.22735646161249	619.909969482542	-17.9046881629079	2.8468131201276	3.4780703054841	4.00522957573333	0.000920492578064485	0.0105119461353404
0.39	16.9735242947472	-7.97845802441617	616.831440929523	-16.8593937880259	3.05683980908663	3.53139843254392	4.0299634801112	0.00128194214548534	0.00887287825425691
0.4	16.7454436876378	-8.77116120306325	612.474947388027	-15.7172264233904	3.27796994940025	3.58003294013272	4.05048571871914	0.00168150507238412	0.00711658830119851
0.41	16.5486797804605	-9.56886065192061	607.05526300925	-14.5279956660221	3.50195787861503	3.62137489491693	4.06544692664648	0.00210545833047393	0.00531803948515603
0.42	16.3927731643296	-10.3350291036748	600.839914357699	-13.3437846558209	3.7206510784725	3.65319802977242	4.07362921888177	0.00253849105337737	0.0035546676082434
0.43	16.2858694169587	-11.035057457987	594.135263887192	-12.2164265399673	3.92630549016318	3.67375945369715	4.07402553525973	0.00296417292773001	0.00190257563856328
0.44	16.2342880703407	-11.6379724956716	587.270597946705	-11.1950238181405	4.11187372773186	3.68188342287404	4.06593447084515	0.00336559964070993	0.000432766464637638
0.45	16.2421787165443	-12.1179422812794	580.581067323102	-10.3236375982572	4.27125416481409	3.67701401448476	4.04905881141074	0.00372620673314389	-0.000792371680465823
0.46	16.3112818652212	-12.4554916854433	574.390388570433	-9.63926355720609	4.39949108413712	3.65923428482479	4.02359166169577	0.0040307107614725	-0.00172211258542623
0.47	16.4408067514291	-12.6383668687244	568.994225230315	-9.17019509747829	4.49291874419237	3.62925133488903	3.99027236274644	0.00426609925250832	-0.0023197719879401
0.48	16.6274322962501	-12.6620070861578	564.645129075883	-8.93485275560065	4.54924517677734	3.58834854694588	3.95039612794224	0.00442255701747661	-0.0025642529506121
0.49	16.8654311699571	-12.5296037125257	561.539834988082	-8.94113354773655	4.56757461404059	3.53830799417454	3.90576669224131	0.00449419794594171	-0.00245064436510381
0.5	17.1469107317149	-12.2517487791688	559.809573850993	-9.18630601929253	4.54837048365022	3.48130756968657	3.85858966523236	0.0044794800210903	-0.00198983508050226
0.51	17.462158843715	-11.8456973523041	559.513903091925	-9.65744780254252	4.49336374300916	3.41979865175898	3.81131421768039	0.00438122236083331	-0.00120719265937158
0.52	17.800077474018	-11.3342886017807	560.638363264246	-10.3323940190383	4.4054138018645	3.35637105678787	3.76644005831917	0.0042062107788846	-0.000140439504088038
0.53	18.1486828572553	-10.7445883305306	563.096061865926	-11.1811383877877	4.288331284797	3.29361258870919	3.72631311815715	0.00396445523247432	0.00116307635894941
0.54	18.4956479619986	-10.1063301252652	566.733073739481	-12.1676057911337	4.14667331792623	3.2339706540031	3.69293534681807	0.00366822535644247	0.0026494852627512
0.55	18.8288612362476	-9.45024240469865	571.337342470013	-13.2516964933049	3.98552282804226	3.17962317791989	3.66781116286389	0.0033310199370488	0.00426164466468817
0.56	19.1369751152096	-8.80635396586425	576.650580339536	-14.3914891382146	3.81026349312649	3.13236545446477	3.65184634555774	0.00296661599721622	0.00594232965225683
0.57	19.4099185565085	-8.20237089809958	582.382505737128	-15.5454827149971	3.626361492818	3.09351863286156	3.64530637501202	0.00258830102516975	0.00763720196453021
0.58	19.6393498331834	-7.6622129516933	588.226635012991	-16.674757188173	3.43916412289732	3.06386434471073	3.64783248689041	0.00220833515133017	0.0092974339176591
0.59	19.8190288284458	-7.20478788681704	593.876767093602	-17.7449384204601	3.25372373894012	3.04360857780637	3.65850664719983	0.00183763715803976	0.0108818952876093
0.6	19.9450919629081	-6.84306851822534	599.043267828253	-18.7278650090843	3.07465348905079	3.0323763799535	3.67595218070708	0.00148565157317214	0.0123588337928945
0.61	20.0162174432265	-6.58351987403877	603.468278468825	-19.6028720323873	2.90601901495722	3.02923740656211	3.69845509734198	0.001160337784262	0.0137069968943064
0.62	20.0336735352828	-6.42590405780365	606.939037651515	-20.3576285022144	2.75126789132478	3.03276078483723	3.72409193023769	0.000868223266996529	0.0149161592195565
0.63	20.0012478161935	-6.36346914040153	609.298614896102	-20.988490347227	2.61319618865876	3.0410963254287	3.75085250317232	0.000614475396448176	0.0159870399081732
0.64	19.9250606335234	-6.38350689482545	610.453499730787	-21.5003576522184	2.49394933692033	3.05207783220274	3.77674972686691	0.000402963438876667	0.0169306190894978
0.65	19.8132710935137	-6.4682436233796	610.377665841665	-21.9060521906895	2.39505257384613	3.06334319574666	3.79991250281633	0.000236299365090636	0.0177668918233783
0.66	19.6756886234652	-6.59600986469266	609.112924351895	-22.2252575340835	2.31746480057439	3.07246514929728	3.81866137256797	0.000115860303303755	0.0185231289061501
0.67	19.5233073333755	-6.74261944162269	606.765583692976	-22.483087781286	2.26164872328905	3.07708604894086	3.83156911516084	4.18056140525291e-05	0.0192317440735523
0.68	19.3677838830523	-6.88287697770144	603.499634399465	-22.7083709407364	2.22764978136448	3.07504983372842	3.83750970920917	1.31074861771086e-05	0.0199278934003874
0.69	19.2208822073177	-6.99212629790232	599.526864637344	-22.9317481329408	2.21517655656075	3.06452443468662	3.83569885368783	2.76156669306187e-05	0.0206469525177673
0.7	19.0939101499602	-7.04775040244622	595.094476293052	-23.183699243943	2.22367608857795	3.04410833156529	3.82572778437985	8.21744395463758e-05	0.0214220285099383
0.71	18.9971737191919	-7.03053703704193	590.470903296261	-23.4926089384558	2.25239871462663	3.01291568736755	3.8075898871275	0.000172803190186964	0.0222816643627015
0.72	18.9394742468582	-6.92583206694408	585.930626629282	-23.8829838590412	2.30044859602417	2.9706354957679	3.78169722602253	0.000294941089640849	0.0232478835156471
0.73	18.9276721902172	-6.72441540820115	581.738829450506	-24.3739225659382	2.36681785988306	2.91756141575023	3.7488822650541	0.000443742587974012	0.0243347000914798
0.74	18.9663386802169	-6.4230504462229	578.136738568216	-24.9779248208884	2.45040412143972	2.85459038986341	3.7103793746429	0.000614395886477691	0.0255471875541611
0.75	19.0575122615669	-6.02467674902172	575.328455258423	-25.7001070106741	2.55001291298872	2.78318968560627	3.6677815621529	0.000802424918026073	0.0268811572517515
0.76	19.200573704168	-5.53823638633408	573.469991681569	-26.5378669354091	2.66434808878437	2.7053335932957	3.62297028083323	0.0010039308211213	0.0283234526033027
0.77	19.3922464585581	-4.97814514130985	572.661103762169	-27.4810151590987	2.79199448199678	2.62341258219158	3.57801977858379	0.00121573468871962	0.0298528199471328
0.78	19.6267244924223	-4.36344017765112	572.94035422122	-28.5123630854351	2.93139786940858	2.54011918107714	3.53508150576295	0.0014354000394959	0.0314412787817523
0.79	19.895923134184	-3.71665417937086	574.283659027223	-29.6087313962502	3.08084759709852	2.45831613284164	3.49625767274542	0.00166113770303896	0.0330558863870951
0.8	20.1898424482169	-3.06248159810175	576.606376617968	-30.7423179738926	3.23846701987068	2.38089340347936	3.46347525966274	0.00189162103724621	0.0346607760010724
0.81	20.4970268790096	-2.42631456974612	579.768802330785	-31.8823433247225	3.402216231785	2.31062134274641	3.43837208839763	0.00212575799363714	0.036219342286432
0.82	20.8050997383425	-1.83273364666618	583.584741245695	-32.9968750558113	3.56991047432296	2.25000764865791	3.4222049177854	0.0023624729497269	0.0376964492988609
0.83	21.1013468681004	-1.30404131618318	587.83266141842	-34.0547221117508	3.73925619293272	2.20116575024633	3.41578634837675	0.00260054415818263	0.0390605410391514
0.84	21.3733207597385	-0.858924176927469	592.268785685486	-35.0272849299338	3.90790508584974	2.16570178129172	3.41945337449267	0.00283852535632594	0.0402855409768787
0.85	21.6094347694544	-0.511322717969137	596.641371885814	-35.8902497499311	4.07352477962833	2.1446264819965	3.43306653378956	0.00307475854044599	0.0413524348468945
0.86	21.7995169900248	-0.269576243298793	600.705364640124	-36.6250239718585	4.23388310710439	2.13829716741499	3.45603548483572	0.00330746531216204	0.0422504422689377
0.87	21.9352948998133	-0.135895196378971	604.23658073318	-37.2198242773366	4.38694148418026	2.14639339350049	3.48736494006093	0.00353489081287049	0.0429776993610782
0.88	22.0107850887597	-0.106194767767863	607.04461616816	-37.6703494187796	4.53095169682033	2.16792820574277	3.52571434448057	0.00375546862849255	0.04354139770053
0.89	22.0225670447399	-0.170303189203755	608.983735032318	-37.979994034927	4.66454961243847	2.201294959578	3.56946539164067	0.0039679764081436	0.0439573544838727
0.9	21.9699259586879	-0.31253663461364	609.961114771183	-38.1595871783993	4.78683898631391	2.24434775620872	3.61679305842906	0.00417165822987767	0.044249022904324
0.91	21.8548564702662	-0.512611342150316	609.941973220594	-38.2266678633169	4.89745867790745	2.29451164938144	3.66573782863811	0.00436629859215094	0.0444459879868974
0.92	21.6819268487331	-0.746843637417964	608.951281548502	-38.2043381680616	4.99662722433089	2.34891705650665	3.71427862245412	0.00455224227715005	0.0445820283902098
0.93	21.4580108520202	-0.989571125105797	607.071964136604	-38.1197605605045	5.08515980558642	2.40455135472927	3.76040717225011	0.00473036276316975	0.0446928560533306
0.94	21.1919019682829	-1.21471446126846	604.439690211506	-38.0023885436183	5.16445411422924	2.45841955119076	3.80220485611158	0.00490198843325278	0.0448136704761793
0.95	20.8938314571624	-1.39738968469354	601.234560964203	-37.8820370346499	5.23644341971515	2.50770526117837	3.83792222141498	0.00506879999551846	0.0449766808579316
0.96	20.5749171446671	-1.51547670676269	597.670178322374	-37.7869099622817	5.30351708304566	2.54992305944624	3.86605976519791	0.00523271401548447	0.0452087558820179
0.97	20.2465739218454	-1.55105059327503	593.980736601791	-37.7417066263059	5.36841080524307	2.58305361258279	3.88544638808346	0.00539576621350293	0.045529356881005
0.98	19.9199190803768	-1.49158877052806	590.406896561037	-37.7659250634242	5.43407085340586	2.60565384751961	3.89530986624819	0.0055600044651651	0.0459488953800774
0.99	19.6052058277538	-1.33087898256338	587.181275575221	-37.8724700986048	5.50349827383287	2.61693572561499	3.89533229213868	0.00572739596813822	0.0464676312910475
1	19.3113165274839	-1.06956913282462	584.514412931759	-38.0666564816695	5.57958055801591	2.61680890568792	3.88568321677624	0.00589974703429186	0.0470751948063689
1.01	19.0453435040118	-0.715320188271992	582.582043720123	-38.3456744843778	5.66491927858942	2.60588459864826	3.86702444552887	0.0060786290633423	0.0477507756395916
1.02	18.8122798632794	-0.282545990096519	581.514439572516	-38.6985579041898	5.76166278847791	2.58544012509318	3.84048302910643	0.00626530209419096	0.0484639806822365
1.03	18.6148360464922	0.208252195985311	581.388453772726	-39.1066642172476	5.87135313719277	2.55734595479785	3.80759254252941	0.00646062894506991	0.0491763187739687
1.04	18.4533901857436	0.731524649348229	582.222748952282	-39.5446454668398	5.9947958952051	2.52395919615577	3.77020657994548	0.00666497817801408	0.0498432323645656
1.05	18.3260722557308	1.25803154216523	583.976497112155	-39.981858266557	6.13196061426992	2.48798947926872	3.73039173040527	0.00687812138969843	0.0504165629831511
1.06	18.2289740330911	1.75644698623855	586.5516352732	-40.3841339031018	6.28191824205419	2.45234481469317	3.69030945898178	0.00709913710032405	0.0508473122327331
1.07	18.1564694923462	2.19511963283426	589.798548071457	-40.7158066506233	6.4428200327751	2.41996620661949	3.65209690584808	0.00732633724955056	0.0510885431234006
1.08	18.1016239498692	2.54389025911625	593.52484389084	-40.941881501142	6.61192045139503	2.39366047721876	3.61775562531291	0.00755723154792653	0.0510982579263682
1.09	18.0566654043919	2.77586208596222	597.50670610128	-41.0302126622631	6.78564437056067	2.37594087319429	3.58905507496344	0.0077885398737263	0.0508420881637264
1.1	18.0134884033521	2.86902096126772	601.502146925618	-40.9535620342618	6.95969662690526	2.36888456708253	3.56745483354291	0.0080162552382407	0.0502956397499694
1.11	17.9641595589695	2.80760999405397	605.265377809726	-40.6914126414305	7.12920985618437	2.37401516192117	3.55404674883899	0.00823575195255153	0.049446351691382
1.12	17.9013945879667	2.58317635593231	608.561443872995	-40.2314253567769	7.28892457764348	2.39221682064445	3.54951607462271	0.00844192765003932	0.0482947500113177
1.13	17.8189793667609	2.19522605011965	611.180255119566	-39.5704474515748	7.43339384684772	2.42368476368192	3.55411951651294	0.00862936499018125	0.0468550091309132
1.14	17.7121117709493	1.6514444520372	612.949184472015	-38.7150073216099	7.55720352506206	2.46791472683286	3.56767806532118	0.00879249937951778	0.0451547695711882
1.15	17.5776466899336	0.967465072858895	613.743489989812	-37.6812596362543	7.6551983828173	2.52373168030218	3.58958337354118	0.00892578227117767	0.0432342016853932
1.16	17.4142331778343	0.166194842429429	613.493950399039	-36.4943773136666	7.72270390219524	2.58935582039558	3.61881782364264	0.00902383449865649	0.0411443478507623
1.17	17.2223397689097	-0.723270277762234	612.191271074538	-35.1874191911567	7.75573377798926	2.66250169802306	3.65398981279998	0.00908158952671348	0.0389448176203535
1.18	17.0041710745762	-1.6670818763836	609.887011426993	-33.7997330603796	7.75117372834487	2.740504472756	3.6933865936328	0.0090944314160865	0.0367009492846055
1.19	16.7634854242385	-2.62834999566187	606.690992224701	-32.3749810051204	7.70693327291825	2.82046578907337	3.7350468339703	0.00905833578136243	0.0344805848684575
1.2	16.5053290893969	-3.56903457828192	602.76534988351	-30.9588960727899	7.62205856186249	2.89941074846798	3.7768536791856	0.0089700232578259	0.0323506318352925
