Time [s]	GRFml [N]	GRFap [N]	GRFv [N]	Mml [N.m]	Map [N.m]	Mv [N.m]	Mfree [N.m]	COPml [m]	COPap [m]
0.01	22.2803930212952	-6.98854193202683	577.501534762525	-17.0663678092399	7.49100087161478	3.29811696743937	4.05025294464077	0.00988261667115894	0.00993184841766138
0.02	22.4009394637137	-6.41076082379451	577.640656221247	-17.7766333134617	7.53229462856795	3.24324655493962	4.01895087643811	0.00995221811311285	0.011137995016771
0.03	22.5286753847623	-5.83070249659927	577.881727665225	-18.5035568291538	7.57602793267719	3.18686282265235	3.98698624395812	0.0100229085529952	0.0123633414956682
0.04	22.6645201861459	-5.25393789403451	578.272789404483	-19.248681618346	7.62385743145326	3.12896850786602	3.95447804531526	0.0100962388038992	0.0136066730025078
0.05	22.8088169281515	-4.68628573936982	578.857964390244	-20.0126450698222	7.67744928282783	3.06969959108007	3.92163894096225	0.0101739105644731	0.0148656137270798
0.06	22.961166765845	-4.13379757420178	579.674343821497	-20.7946987956371	7.73837786747847	3.00936152400289	3.88878769427976	0.0102576876786222	0.0161360721131341
0.07	23.1203082771632	-3.60271931751295	580.749129375187	-21.5923179074049	7.80802712557198	2.94845297835981	3.85635183489771	0.0103493007816098	0.017411812629138
0.08	23.284053881778	-3.09942259612324	582.097213198121	-22.400934868044	7.88750015135996	2.88767418766269	3.8248595442078	0.0104503492445836	0.0186841956860379
0.09	23.4492913039555	-2.63030203798295	583.71935417648	-23.213822831667	7.97754212003227	2.82791828134994	3.79492091702437	0.010562204830417	0.0199421117070356
0.1	23.6120532709315	-2.20163802498706	585.601077501734	-24.0221415768448	8.07848081895641	2.77024543340678	3.7671999016663	0.0106859220500033	0.0211721192602762
0.11	23.7676537341221	-1.81942778343818	587.712385853383	-24.8151469849279	8.19018805747691	2.71584104327389	3.74237920911343	0.0108221606691642	0.0223587819675064
0.12	23.9108841987199	-1.48919089356363	590.008326579072	-25.5805533763621	8.31206408684059	2.66596042943949	3.72112117721208	0.0109711259182543	0.0234851855224152
0.13	24.0362595515083	-1.21575810611285	592.430412281603	-26.3050276179378	8.4430459294693	2.62186355930846	3.70402788903431	0.0111325314764894	0.0245336050658164
0.14	24.1382993385474	-1.0030545834766	594.908844616874	-26.9747853257502	8.58163925311989	2.58474409877532	3.691603747261	0.0113055891142755	0.025486284514065
0.15	24.211827954935	-0.853890194832304	597.365445358642	-27.576253126544	8.72597219102945	2.55565750108763	3.68422323763645	0.0114890270003921	0.0263262831909335
0.16	24.2522757936568	-0.76977019252671	599.717157370105	-28.0967570571695	8.87386836456131	2.53545295067908	3.68210587291721	0.0116811362965969	0.0270383412109718
0.17	24.2559631171874	-0.750739429064347	601.879943369056	-28.5251958735155	9.02293536803662	2.52471374032834	3.68529943423136	0.0118798430760873	0.0276097135024664
0.18	24.2203492543499	-0.795272237362691	603.772884335562	-28.8526592531859	9.17066417837369	2.5237101170536	3.69367177322418	0.0120828001823865	0.0280309232109589
0.19	24.144231612732	-0.900218236779828	605.322263735257	-29.0729544222805	9.31453439779836	2.53236782965704	3.70691074342833	0.0122874917463805	0.0282963885810777
0.2	24.0278818030794	-1.06081173701163	606.465419542405	-29.1830103116934	9.45211995713553	2.55025460948959	3.72453138751861	0.0124913419769568	0.0284048833026234
0.21	23.873109717118	-1.27074922900275	607.154153858283	-29.18313555434	9.58118991654151	2.5765856868474	3.74588935203398	0.012691819688798	0.0283597986092064
0.22	23.6832504665604	-1.52233585289086	607.357509575255	-29.0771150052576	9.69979930048054	2.61024826509016	3.77019960026309	0.0128865308464702	0.0281691858230609
0.23	23.4630734350106	-1.80669792424025	607.063754188658	-28.8721384940337	9.80636547816821	2.64984372045098	3.79655975786937	0.0130732930758914	0.0278455700367415
0.24	23.2186170601376	-2.11405480717948	606.281450993562	-28.5785646827968	9.89972641729572	2.69374524080785	3.82397772965108	0.0132501884068811	0.0274055385334378
0.25	22.9569570969569	-2.4340398786003	605.039545407397	-28.2095316968002	9.97917815066574	2.74016772595244	3.8514034386958	0.0134155931740244	0.0268691205871979
0.26	22.6859197772514	-2.75605725542938	603.38644642491	-27.7804341524321	10.0444899433911	2.78724609704839	3.87776455495294	0.0135681866858222	0.0262589876273504
0.27	22.4137542687907	-3.06965855866342	601.388137283661	-27.3082929265794	10.0958968649506	2.83311774022469	3.90200584311972	0.0137069426323052	0.0255995135964824
0.28	22.1487809881597	-3.36492242816763	599.125402167472	-26.8110491711485	10.1340706837637	2.87600465708095	3.92313127909367	0.0138311089207378	0.0249157439525748
0.29	21.8990335230275	-3.63281889688574	596.690304093475	-26.3068174530317	10.1600711405194	2.91429101327441	3.9402474354145	0.0139401824501366	0.0242323275528694
0.3	21.6719121236921	-3.8655411391143	594.182090129165	-25.8131343734272	10.1752806539478	2.9465921473794	3.95260594685192	0.0140338851027988	0.0235724681485892
0.31	21.4738659418192	-4.05678851737155	591.70273129828	-25.3462385788858	10.1813263124343	2.97181169186407	3.95964229261094	0.014112145934033	0.0229569511390862
0.32	21.3101194981654	-4.20198719285201	589.352324074879	-24.9204158109121	10.1799935638023	2.98918421928743	3.96100782202297	0.0141750923461886	0.0224032965313257
0.33	21.1844563752137	-4.29843770002208	587.224587072354	-24.5474387366512	10.1731363070694	2.99830170351649	3.95659201999069	0.0142230502918011	0.0219250809491891
0.34	21.0990700215598	-4.34538262742467	585.402680053982	-24.2361260250822	10.1625881053014	2.99912301706926	3.94653250828324	0.0142565507685005	0.0215314605723153
0.35	21.0544880177524	-4.34399166430692	583.955553204591	-23.9920388075087	10.1500789871539	2.99196661075174	3.93121118361939	0.0142763376221085	0.0212269139109879
0.36	21.0495723972927	-4.29726551194612	582.935003990383	-23.817325654602	10.1371618123775	2.97748738412803	3.91123610158862	0.0142833704878288	0.0210112094668746
0.37	21.0815948504584	-4.20986425923462	582.373578886018	-23.7107198994861	10.1251514837092	2.95663950684452	3.88741006465259	0.0142788169029058	0.020879589862436
0.38	21.1463820582016	-4.08786953681934	582.283410319185	-23.6676859179379	10.1150794451125	2.93062755440918	3.86068816861848	0.0142640292426031	0.0208231521802425
0.39	21.238523180815	-3.93849287612818	582.656028308829	-23.6807041986474	10.1076649717229	2.90084875368271	3.8321276145511	0.0142405048468398	0.0208293950242533
0.4	21.3516288030263	-3.7697450378366	583.463134562988	-23.7396790120034	10.1033037897588	2.86882938261248	3.80283375019763	0.0142098309189817	0.0208828967602191
0.41	21.4786285205615	-3.59008252433089	584.658277322496	-23.832447471635	10.1020736227445	2.83615843811781	3.77390648034723	0.014173618765591	0.0209660865662882
0.42	21.6120929137084	-3.40804800114291	586.17932080625	-23.9453649687444	10.1037553956681	2.80442158932149	3.74639087171375	0.0141334340498766	0.0210600699180247
0.43	21.7445649260694	-3.23192093599264	587.951566121955	-24.0639394627394	10.1078680845878	2.77513819328505	3.72123504377471	0.0140907305371105	0.0211454722254914
0.44	21.868885652901	-3.06939349407719	589.891352772436	-24.1734859773416	10.1137146085469	2.74970379601807	3.69925741103713	0.0140467942347973	0.0212032677179094
0.45	21.9785002137508	-2.92728472947646	591.9099525665	-24.2597728540131	10.120435744667	2.7293401051405	3.68112418676143	0.0140027031095796	0.0212155646188618
0.46	22.0677306815489	-2.81130354959512	593.917561285072	-24.3096327661764	10.1270688154566	2.71505393525255	3.66733694053234	0.0139593051486304	0.0211663216848648
0.47	22.1320048840112	-2.7258679922514	595.827197615919	-24.3115140572587	10.1326078481767	2.70760612434969	3.65822906820311	0.0139172149499346	0.0210419750645258
0.48	22.16803218232	-2.67398524297043	597.558332781219	-24.255951450728	10.1360620283919	2.70749092775271	3.65396938772766	0.0138768267363905	0.020831958157201
0.49	22.1739199499531	-2.65719372760908	599.040096540465	-24.1359393800671	10.1365095445909	2.71492593868954	3.65457077135625	0.0138383400078053	0.0205291008103739
0.5	22.1492272936706	-2.67556571835773	600.213934058387	-23.9471958743434	10.1331443230703	2.72985218020668	3.65990176249822	0.0138017931108412	0.0201298979195757
0.51	22.0949554457645	-2.72776633575048	601.035621436543	-23.6883098802936	10.1253136533623	2.75194367412314	3.669699454442	0.0137670998026287	0.0196346413657692
0.52	22.0134770785782	-2.8111627249746	601.47658337393	-23.3607698814465	10.1125452734785	2.78062552613533	3.68358244115677	0.0137340842855976	0.0190474132513734
0.53	21.9084094220076	-2.92197560003008	601.52449235067	-22.9688764818868	10.094563089863	2.81509937333938	3.70106327914769	0.0137025110247006	0.0183759425156103
0.54	21.784438387305	-3.05546431133688	601.183162998486	-22.5195460736026	10.0712913187782	2.85437491788788	3.72156051108074	0.0136721067443153	0.0176313311138833
0.55	21.6471028185854	-3.20613608976851	600.471786288626	-22.022016647724	10.0428474254377	2.89730621077679	3.74441079618747	0.0136425731858366	0.0168276599089352
0.56	21.5025494314226	-3.36797010808927	599.42357453726	-21.4874701195882	10.0095247788969	2.94263134255035	3.76888199483555	0.0136135903701402	0.0159814881266027
0.57	21.3572699051955	-3.53464740880647	598.083909095243	-20.9285881278447	9.97176641225479	2.98901423115726	3.79418812577513	0.0135848111694841	0.0151112635816663
0.58	21.2178319485118	-3.69977848778385	596.508097447294	-20.3590600854318	9.93013166081248	3.03508725923846	3.81950695380981	0.0135558488962001	0.0142366638087273
0.59	21.0906159581966	-3.85712129993316	594.758855169252	-19.7930632849749	9.88525773150266	3.07949359278954	3.84400060883745	0.0135262603224788	0.0133778906816624
0.6	20.9815681712635	-4.00078357220081	592.903630993584	-19.2447351035261	9.8378184258894	3.12092810151462	3.86683914926572	0.0134955270258276	0.0125549430118826
0.61	20.8959800193721	-4.12540448384196	591.011890604902	-18.7276568498007	9.78848229208323	3.15817589212856	3.88722644645556	0.0134630381803197	0.011786892898321
0.62	20.8383018110079	-4.22631193300164	589.152467432473	-18.2543676133094	9.73787241901478	3.19014755626085	3.90442726931471	0.0134280778602304	0.0110911921470848
0.63	20.811996979633	-4.29965269809903	587.391077469976	-17.8359246910999	9.68652991600473	3.21591032425354	3.9177940678723	0.0133898195759104	0.0104830347426822
0.64	20.8194410503014	-4.34249378731477	585.788080952387	-17.4815248818228	9.63488285307493	3.23471440719204	3.92679174977836	0.0133473301274707	0.00997479998142258
0.65	20.861867303544	-4.35289413179549	584.396557490174	-17.1981982574562	9.58322208948083	3.24601390570123	3.93101874419467	0.0132995839756697	0.00957559834098492
0.66	20.9393589654452	-4.32994651447069	583.260743905179	-16.9905830660028	9.53168501019193	3.24948176972708	3.93022285200739	0.0132454882630691	0.00929093839820634
0.67	21.0508857333206	-4.27379024348661	582.414866368037	-16.8607873021148	9.48024774625686	3.24501841268616	3.92431075845238	0.0131839174790524	0.00912252817514988
0.68	21.1943806526853	-4.185595590571	581.88238125116	-16.8083393234164	9.42872600053004	3.23275371877353	3.91335057938438	0.0131137556817305	0.00906821839323788
0.69	21.3668518721746	-4.06752143671349	581.675623025965	-16.8302267989738	9.37678416042984	3.2130423348302	3.89756735712471	0.0130339433064293	0.00912208859908875
0.7	21.5645226767804	-3.92264791772316	581.795843074923	-16.9210203540502	9.3239519777868	3.18645230680162	3.87733194543587	0.0129435250251717	0.00927467046697186
0.71	21.7829924703752	-3.75488615714232	582.233610864547	-17.0730756103399	9.26964775258705	3.15374730210768	3.85314416391651	0.0128416949543344	0.00951329631434596
0.72	22.0174110551139	-3.56886742883898	582.969538818232	-17.2768049864409	9.21320668800934	3.11586284788082	3.82561141587386	0.0127278357610376	0.00982255550028011
0.73	22.2626586224284	-3.36981431982068	583.97528459871	-17.5210086755494	9.15391289855223	3.07387720417362	3.79542412914539	0.0126015488526082	0.0101848373201689
0.74	22.5135242901691	-3.16339667703748	585.214779400543	-17.7932526946956	9.09103345535634	3.02897767309365	3.76332939851832	0.0124626737521365	0.0105809365067331
0.75	22.7648767366896	-2.95557532980949	586.6456281924	-18.0802808230646	9.02385284150733	2.98242331124963	3.73010410363015	0.0123112958341632	0.0109906965441922
0.76	23.0118214254252	-2.75243678928631	588.220627464418	-18.3684466201404	8.95170625867244	2.93550515598633	3.69652858374435	0.0121477426726011	0.0113936665603361
0.77	23.2498400050689	-2.56002234220526	589.889347668541	-18.6441515265313	8.87401036449125	2.88950518847931	3.66336171301799	0.0119725702044543	0.0117697492953069
0.78	23.4749086312192	-2.38415517833143	591.599730861898	-18.8942752774487	8.79029021465634	2.84565533280453	3.63131797792187	0.0117865406350304	0.0120998201876033
0.79	23.6835931097853	-2.23026941446243	593.299658700536	-19.1065854665852	8.70020142009485	2.80509782493454	3.6010469460247	0.0115905944424596	0.0123663005805439
0.8	23.8731198441291	-2.10324509198705	594.938451483227	-19.2701140446347	8.60354679324711	2.76884827616426	3.5731153548445	0.0113858189650657	0.0125536710886938
0.81	24.0414225238945	-2.00725341257734	596.468265010015	-19.375489775133	8.50028703374496	2.73776270037177	3.54799195072192	0.0111734158974621	0.0126489140051773
0.82	24.1871652869585	-1.94561661440738	597.845358212667	-19.4152171517248	8.390545279437	2.71250967419715	3.52603516871554	0.0109546696330503	0.0126418761083429
0.83	24.3097436976653	-1.92068695094934	599.031210486357	-19.3838939567008	8.27460561163875	2.69354865589573	3.50748375402868	0.0107309178435663	0.012525545272985
0.84	24.4092653125792	-1.93374918426248	599.993473109433	-19.2783614642742	8.15290584316696	2.68111530622438	3.492450466008	0.0105035250605359	0.0122962359322428
0.85	24.4865118633161	-1.98495081247834	600.706743854645	-19.0977832208964	8.02602512526449	2.67521443869215	3.48091905714604	0.0102738593989717	0.0119536797702329
0.86	24.5428852016883	-2.0732638870438	601.1531577247	-18.8436503307366	7.89466707785976	2.67562098348511	3.47274476188758	0.0100432720140256	0.011501019203133
0.87	24.580339162186	-2.19648171503498	601.322789630935	-18.5197132035357	7.75963927166562	2.68188908678678	3.46765854605354	0.00981307846936271	0.0109447024072394
0.88	24.601299443053	-2.35125297003581	601.213866815789	-18.1318417542612	7.62182996757866	2.69336919287013	3.46527534407183	0.00958454097004442	0.0102942800610089
0.89	24.6085735333204	-2.53315474754111	600.832790034755	-17.6878180512365	7.48218304833118	2.70923267809099	3.46510643949522	0.00935885040312323	0.00956210575053791
0.9	24.6052526591399	-2.73680490673167	600.193963191611	-17.1970673634264	7.34167206163311	2.72850333148298	3.46657602118182	0.0091371073449112	0.00876294426904685
0.91	24.5946077208185	-2.9560126634195	599.319431572233	-16.6703354274235	7.20127423802534	2.75009471362209	3.46904177486252	0.00892030161880817	0.00791349488146905
0.92	24.5799812628235	-3.18396487754141	598.238329415035	-16.119321504437	7.06194525772769	2.77285218141732	3.47181915452848	0.0087092905773855	0.00703184000198828
0.93	24.5646776691028	-3.41344386586866	596.986138684324	-15.5562783843253	6.92459542834558	2.79559814943229	3.47420873196532	0.0085047769638083	0.00613683352317993
0.94	24.5518539960146	-3.63707093296226	595.603762956479	-14.9935918665639	6.79006781024129	2.81717897677404	3.47552576233204	0.00830728788106482	0.00524744701271214
0.95	24.544414120159	-3.84756822844166	594.136423608532	-14.4433533484392	6.65911870001834	2.83651173171819	3.47513084960859	0.00811715694506199	0.00438209583014312
0.96	24.5449091502287	-4.03803009239767	592.632390228514	-13.9169399141946	6.53240076568845	2.85262900382238	3.47246037195654	0.00793451199781977	0.00355797050692295
0.97	24.5554472829345	-4.20219383427386	591.141563411793	-13.4246166781912	6.41044902878024	2.86471991506474	3.46705515923068	0.00775927070477592	0.00279040103308965
0.98	24.5776164213169	-4.33469899560078	589.713935749579	-12.9751760254566	6.29366981527107	2.87216553639314	3.45858582825414	0.00759114589166355	0.00209228257719379
0.99	24.6124228696499	-4.43132366152486	588.39796553468	-12.5756277575164	6.18233275160354	2.8745670507809	3.44687319793951	0.00742966159263473	0.00147359028930012
1	24.6602492315273	-4.48918638878875	587.23890698278	-12.2309529483564	6.07656586302067	2.87176522189151	3.43190234132382	0.00727417956551888	0.000941008012699921
1.01	24.7208342393922	-4.50690287211594	586.277149890039	-11.9439325248044	5.97635383386632	2.86385002764976	3.4138290908402	0.00712393465083113	0.000497690983027696
1.02	24.7932766255492	-4.48468761858073	585.546629775267	-11.7150592159108	5.88153950471711	2.85115969386831	3.39297819014207	0.00697807604521974	0.000143176191340286
1.03	24.8760643173155	-4.42439265401915	585.073375765966	-11.542538608771	5.7918286981106	2.83426880225506	3.3698327602224	0.00683571059363834	-0.000126553471204712
1.04	24.9671292330016	-4.3294776259976	584.874266863204	-11.4223816819912	5.70679847096061	2.81396563168865	3.34501528555722	0.00669594381645806	-0.000318853216464614
1.05	25.0639268191723	-4.20490853415104	584.956066934016	-11.348587478098	5.62590887575035	2.79121939884634	3.31926088243566	0.00655791472659731	-0.000444058239799698
1.06	25.1635382655283	-4.05698560858241	585.314804189589	-11.3134106728393	5.54851826465994	2.76713856785222	3.29338413476499	0.00642082156411524	-0.000515000087424798
1.07	25.2627921334639	-3.89310442634899	585.935551641078	-11.3077048819167	5.47390208494963	2.74292187055706	3.26824122062542	0.00628393722325262	-0.000546419588634904
1.08	25.3584010134572	-3.72145802278931	586.792651050551	-11.32132881423	5.40127498896617	2.71980409148878	3.24468936143358	0.0061466150647741	-0.000554302259220266
1.09	25.4471078587089	-3.55069130668322	587.850404564021	-11.3435990445428	5.32981592218372	2.69899899865563	3.22354577537192	0.00600828760373441	-0.000555164318077436
1.1	25.5258358945041	-3.38952229645578	589.064236274389	-11.3637704430659	5.25869566713385	2.68164202137232	3.20554829855154	0.00586846185179277	-0.000565318368180367
1.11	25.5918355293321	-3.24634732732628	590.382301532363	-11.3715233520565	5.18710612390734	2.66873537263581	3.19131966395847	0.00572671558386317	-0.00060014774726708
1.12	25.6428215338464	-3.12884922098111	591.747496329293	-11.3574355948761	5.11429041642015	2.66109827633968	3.18133713182216	0.00558269837094969	-0.000673417897139168
1.13	25.6770939278132	-3.0436282793249	593.099794156211	-11.3134174501962	5.03957274672899	2.65932478605264	3.17590879084858	0.00543613995339069	-0.000796652039502504
1.14	25.693636524066	-2.99587573390757	594.378815127781	-11.2330888760649	4.96238679593161	2.66375137700208	3.17515744687502	0.00528686667882475	-0.000978596992413653
1.15	25.6921879032658	-2.98910789165247	595.526513532384	-11.1120805148337	4.88230140589999	2.67443606852943	3.17901262733733	0.00513482467038551	-0.00122480294321424
1.16	25.6732806969571	-3.02497668156297	596.489856829696	-10.9482432737087	4.79904228358633	2.69115030976858	3.1872108864643	0.00498010652757195	-0.00153733812696049
1.17	25.6382463866795	-3.10316872332848	597.223362652236	-10.7417554157596	4.71250855588831	2.7133842617844	3.19930430965874	0.00482297704724525	-0.00191465534930473
1.18	25.5891843199317	-3.22140058279114	597.691361347979	-10.4951209137361	4.62278316887828	2.74036546475692	3.21467688095465	0.00466389292213918	-0.00235162193889555
1.19	25.5288952286027	-3.37551279569516	597.869860309401	-10.2130580684926	4.53013636498739	2.77109022198136	3.232568176332	0.00450351171821822	-0.00283971798815019
1.2	25.4607811383621	-3.55965982815254	597.74790253152	-9.90228279774757	4.43502177381368	2.80436639772407	3.25210365329745	0.00434268659036461	-0.00336739982450824
1.21	25.3887151060444	-3.76658773104755	597.328334778196	-9.57119626703869	4.33806499971423	2.83886574687867	3.27233060046003	0.00418244498286181	-0.00392061693533921
