Time [s]	GRFml [N]	GRFap [N]	GRFv [N]	Mml [N.m]	Map [N.m]	Mv [N.m]	Mfree [N.m]	COPml [m]	COPap [m]
0.01	-1.24704630097918	2.14966535470695	753.28963571696	-1.95412097733892	-1.83082165152138	0.761055941139981	-0.752574872946459	-0.00169257884996088	0.000991833778948015
0.02	-0.473885363763841	1.90019934152091	751.508072567929	-1.84182643878104	-2.02385924614626	0.793179222354336	-0.786780876996036	-0.00155113489510827	0.000729672799525904
0.03	0.268287942272434	1.67474576507688	749.522163411447	-1.74293549793091	-2.20332013350334	0.821026011679226	-0.81660597647303	-0.00142806796798345	0.000484366155104277
0.04	0.952929432158653	1.49278503162203	747.167103822305	-1.66804921264116	-2.35827814683295	0.841674589918584	-0.839042415301589	-0.00133793772486424	0.000269527002173975
0.05	1.55144868249064	1.36532684369043	744.388841499211	-1.62333405826318	-2.47902052286868	0.853908543978667	-0.852801354307157	-0.00128912258284075	9.78908608854634e-05
0.06	2.03393448401943	1.29313967780261	741.263904289076	-1.60967163075175	-2.55751338783557	0.858318661865822	-0.858418789372195	-0.00128262845313998	-1.91927006672477e-05
0.07	2.37220023296869	1.26742500019347	737.986562834436	-1.62303357417852	-2.58803905705967	0.856847646239509	-0.857803112273882	-0.00131260461714422	-7.27385300686723e-05
0.08	2.54428571438321	1.27272724674995	734.829458790403	-1.65594488409614	-2.56785707543509	0.851953743985766	-0.853399826022011	-0.0013683744848636	-5.7328577254101e-05
0.09	2.539218489111	1.29123580027514	732.089355745483	-1.69957920737487	-2.4977165476204	0.845699827351499	-0.847280166436622	-0.00143735181995264	2.7788405420115e-05
0.1	2.36088119901447	1.30724761848385	730.031362998126	-1.74585817049335	-2.38206816515274	0.8390912019551	-0.840477794709315	-0.00150797900239474	0.000178016589805874
0.11	2.03006449351499	1.31056185000164	728.843343211462	-1.78897597272906	-2.22886233403467	0.831886163019289	-0.832798467066778	-0.00157188925167828	0.000383402827118184
0.12	1.58409609806095	1.29796868913822	728.608317822652	-1.82601800936368	-2.04887277141225	0.822927748442842	-0.823151306047865	-0.00162482879912396	0.000629436544976936
0.13	1.07380212655953	1.27263115371926	729.297792745889	-1.85668197590898	-1.85456284606421	0.810857289210618	-0.810261464397842	-0.00166633556514773	0.00089864439845716
0.14	0.557989543820897	1.24181474027312	730.784248457821	-1.88240256953388	-1.65861418671347	0.794935373482381	-0.793488319857028	-0.00169857113223593	0.00117277951651057
0.15	0.0961200647364177	1.21387377682832	732.867539134254	-1.90531777974335	-1.47234076980514	0.775658750270278	-0.773436330653643	-0.00172489557245359	0.0014352346945139
0.16	-0.259705699546825	1.19551706999695	735.308195203176	-1.92746285324586	-1.30427852232489	0.754933946285522	-0.752118824279914	-0.00174871354442618	0.00167321123601261
0.17	-0.472046751967493	1.19014088374338	737.860697785291	-1.95038742998912	-1.15923579409312	0.735724948530174	-0.732592950736934	-0.00177287000055271	0.001879196529192
0.18	-0.523290557378869	1.19754870338243	740.301294881163	-1.97516450935609	-1.03800107368113	0.721279777551024	-0.71817280956354	-0.001799571005908	0.00205145387194255
0.19	-0.417619272728561	1.21485953553097	742.447165859434	-2.00260007396146	-0.937747931802047	0.714194230987673	-0.711481915878792	-0.00183058827412075	0.00219347367938943
0.2	-0.179345954515726	1.23802406943614	744.166001918849	-2.03341689740004	-0.852995928759517	0.715635610206624	-0.713670524712464	-0.00186745352011353	0.00231260755298196
0.21	0.151998770226998	1.26324322121775	745.37687335284	-2.06826687554191	-0.776835751050387	0.724999524394828	-0.724072630174653	-0.00191145089721489	0.00241832303748152
0.22	0.528696407441785	1.28774145208871	746.044442925185	-2.1075618054703	-0.702058845238906	0.740123824825406	-0.740426987295917	-0.00196339156105119	0.00252060512541885
0.23	0.902383974235667	1.30971082729196	746.169240238327	-2.15122529989753	-0.621876596528294	0.757987300380932	-0.759588685142859	-0.0020233004787179	0.00262895286269937
0.24	1.23048162727837	1.32765695638952	745.776963711855	-2.19850472774126	-0.530067225634106	0.775648361256973	-0.778484405073268	-0.00209019056904058	0.00275218884668083
0.25	1.48031497607156	1.33966556053752	744.909642001026	-2.2479355904721	-0.420606830669233	0.791094969500667	-0.794980086722053	-0.00216203580832253	0.00289898314626708
0.26	1.63051010981176	1.34313405149413	743.620849402395	-2.29746070910641	-0.287051470930205	0.803713940707443	-0.808366578906447	-0.00223593655366339	0.00307869751625817
0.27	1.67006870397891	1.33525133140794	741.975912847744	-2.34463214876493	-0.122059635715662	0.814232662706004	-0.819313940789373	-0.00230837678084272	0.00330199358958999
0.28	1.59612360012468	1.31407272872175	740.056256365675	-2.38681015813226	0.0825788716989013	0.824185428527461	-0.829344368265762	-0.00237546388538301	0.00358069755383839
0.29	1.41152416311187	1.27963839609822	737.965125324567	-2.42132722439418	0.33521929767387	0.835134825658778	-0.84005218624243	-0.00243312337493584	0.0039266796669799
0.3	1.12308275001817	1.23444298172345	735.830626619239	-2.44567215170869	0.643035218635812	0.847967341091497	-0.852388715593213	-0.00247734297135349	0.00434991004987018
0.31	0.740707487284436	1.1827962572976	733.802042206663	-2.45781266402464	1.01046134102444	0.86254547035384	-0.866294494512666	-0.00250464423217978	0.00485624514794486
0.32	0.277054590271159	1.1291511360533	732.037098522598	-2.45676656105806	1.43794357821796	0.877847763218099	-0.880813080219408	-0.00251293759336035	0.00544571686076145
0.33	-0.252959060339791	1.07607707278584	730.681032255326	-2.44343295041018	1.92149826643742	0.892520758895786	-0.894616338012653	-0.00250276637053026	0.00611202218848916
0.34	-0.833303753113815	1.02291194841067	729.841922699597	-2.4215296665379	2.4533329512561	0.905586025418199	-0.906692859644162	-0.00247870313491083	0.006843535424499
0.35	-1.44868230434458	0.96600431112552	729.56948486962	-2.39831148889858	3.02339453676349	0.916968765070911	-0.916874587322528	-0.00245041732866835	0.00762560453235273
0.36	-2.08654401282731	0.900841432182224	729.845047533567	-2.38464883420703	3.62133098115902	0.927579796381801	-0.9259388148949	-0.00243280443202221	0.00844335986932937
0.37	-2.73839821213986	0.825475709653409	730.588125683039	-2.39410427343273	4.23813866034719	0.938869464955229	-0.935202917150189	-0.00244466070913718	0.00928398362844224
0.38	-3.39964463055872	0.743904273168249	731.680192949505	-2.44088662406685	4.86682597465507	0.952005068613111	-0.945754139422246	-0.00250574492799649	0.0101375089629689
0.39	-4.06764354576408	0.667805216896028	733.000344884395	-2.53694539557124	5.50176004744606	0.967002931203316	-0.957629884926794	-0.00263262183961366	0.0109957343874881
0.4	-4.73846598893216	0.615475412148058	734.462540052175	-2.68886667761001	6.1368695808899	0.982191346818522	-0.969307357472109	-0.00283425001862758	0.0118495829164175
0.41	-5.40338608582986	0.607836173786059	736.04199578169	-2.89547621200291	6.76336722342458	0.994266718845183	-0.977752323301785	-0.00310861823285769	0.0126859285513874
0.42	-6.04643879087346	0.662586218787713	737.780290526309	-3.14700645652839	7.36793507862273	0.998977614383789	-0.979059518582481	-0.00344165304778532	0.0134852733223196
0.43	-6.64415172885693	0.788475022717297	739.764636068211	-3.42630600739401	7.93226169798824	0.992226196191722	-0.969484359500439	-0.00380906808791315	0.0142215139849001
0.44	-7.16793884635066	0.981826712178145	742.085031798896	-3.711965019068	8.43442336764332	0.971216927224566	-0.946515557105459	-0.00418095191335066	0.0148644010507679
0.45	-7.58882691074136	1.22673476333917	744.780981205754	-3.98261116246726	8.85198930368023	0.935271880832363	-0.909630207087005	-0.00452800020621613	0.0153843650941859
0.46	-7.88343609692219	1.49900882073036	747.794356960195	-4.22123168556554	9.16610738966793	0.886066127867143	-0.860501339819608	-0.00482772428374201	0.0157584868575711
0.47	-8.03967232011372	1.77251620944043	750.944897587119	-4.41835392942428	9.36541304008649	0.827249653873058	-0.802629329826855	-0.00506893590478774	0.0159758424923552
0.48	-8.06052529552235	2.02562917266143	753.939342509771	-4.57327838971532	9.44854981265637	0.763622036416106	-0.740556061504953	-0.0052533342271377	0.0160404720778916
0.49	-7.96469984728311	2.24548258535576	756.415793563453	-4.69316590695958	9.42442763493435	0.700139251687105	-0.678926291849954	-0.00539390867882028	0.0159708172612427
0.5	-7.78345410544074	2.42869485187533	758.014330963777	-4.79040850666873	9.30997586524433	0.641033658701177	-0.621662292228715	-0.00551079919267405	0.0157954773737012
0.51	-7.55385975267495	2.57871344863467	758.456479952942	-4.87914579069922	9.12588447667314	0.589243235364033	-0.571439176605257	-0.0056259080951101	0.0155462371886986
0.52	-7.30961222472745	2.70136082499526	757.612503681307	-4.97190301698452	8.89144783606921	0.546225503602803	-0.529535661422338	-0.00575774918604866	0.015250188842555
0.53	-7.07135496869846	2.80084866198526	755.537932419365	-5.07713101739355	8.6199466860596	0.512122443196163	-0.496030102544608	-0.00591774681412482	0.0149231417793603
0.54	-6.83903742012258	2.87818497176643	752.46864298119	-5.19804005671172	8.31592349462247	0.486170063645632	-0.470236628080435	-0.00610862006597401	0.0145662665328335
0.55	-6.58884876624023	2.9326666976693	748.774927967748	-5.33270599847494	7.97523180075865	0.467213359646378	-0.451235753088003	-0.0063248422978287	0.0141671008016151
0.56	-6.27654834096434	2.96558081775363	744.886099201677	-5.47512980437002	7.58798821598565	0.454187395106629	-0.438346643027648	-0.00655466981233443	0.0137048688056095
0.57	-5.84753100327136	2.9840430760514	741.204993286625	-5.6168165891317	7.14372697466742	0.446452164632345	-0.431414274838606	-0.00678300266485876	0.0131588455660584
0.58	-5.25201528042587	3.00264635644143	738.034024034858	-5.74848634143343	6.63738625732213	0.443918272608438	-0.430843014209766	-0.0069943689397608	0.0125175819753269
0.59	-4.46190688999104	3.04142528064765	735.530609149398	-5.86165345368077	6.07444484650594	0.446963290492873	-0.437387596166436	-0.00717551152872187	0.0117864674465463
0.6	-3.48484977486473	3.12024033773364	733.701219891957	-5.94992620713191	5.47368004680219	0.456197091450194	-0.451788640790213	-0.00731727534437565	0.0109914567997241
0.61	-2.37121232688452	3.25136605873324	732.432679970549	-6.00992867817596	4.86659923862092	0.472167582251451	-0.474383330866407	-0.00741565259106935	0.0101777364095636
0.62	-1.21131339953924	3.43310043471722	731.549805303359	-6.04174341768025	4.2934460012327	0.495094644433679	-0.504815375526429	-0.00747192669932673	0.00940338600706297
0.63	-0.122636280416603	3.64712815054219	730.882530239344	-6.04876584074706	3.79656240264301	0.524686904810792	-0.54191849393873	-0.00749190789512943	0.00872935551488174
0.64	0.770630476123902	3.86116582176273	730.324485570557	-6.03690961982888	3.41256959109025	0.560055448441193	-0.583781802318723	-0.00748434071581383	0.00820799508981562
0.65	1.36139684963237	4.0365523273787	729.868322407693	-6.01323204799054	3.1651445897204	0.599713558600242	-0.627954982127486	-0.0074587187849795	0.00787273845198289
0.66	1.58160189103636	4.13864092807019	729.609604197981	-5.98422986467022	3.06005849715314	0.641650570183262	-0.671732837416602	-0.00742293334642996	0.00773128308092796
0.67	1.41740640096001	4.14678204642993	729.719035567988	-5.95421418456223	3.08363841580484	0.683481243854058	-0.712468324315342	-0.00738132215468834	0.00776381726325542
0.68	0.914210431187465	4.06073257737162	730.390393661316	-5.92422301136541	3.20504370879898	0.722680379032491	-0.74788183862358	-0.00733367631846416	0.00792670374592819
0.69	0.170199115480346	3.90143999553431	731.777283241516	-5.89182181242484	3.3818836337739	0.756900990764381	-0.776344578343532	-0.00727555441673777	0.00816080102963729
0.7	-0.680470826045138	3.7059058130591	733.934639812976	-5.85189340420223	3.56794782240117	0.784343180579492	-0.797109230868581	-0.00719988293475626	0.00840256613371682
0.71	-1.49152528135221	3.51762590075786	736.780117934248	-5.79821017896173	3.72135586413147	0.80410418137828	-0.810449638530107	-0.00709941102405987	0.00859548439939239
0.72	-2.13060006645651	3.37536977077977	740.086119782559	-5.72532926530297	3.81137735637054	0.816417887151792	-0.817666225437665	-0.00696929274679525	0.00869936658013754
0.73	-2.50205476557185	3.30345202187442	743.506033741099	-5.63025163293633	3.82254821539048	0.822698796195459	-0.820925857270009	-0.00680901338536655	0.00869565022743118
0.74	-2.5618845013629	3.30611778564375	746.629864394965	-5.51337595134743	3.75541574746447	0.825342525929993	-0.822933930522325	-0.0066230876633111	0.0085878873290634
0.75	-2.32185755794016	3.36742975671826	749.056968892594	-5.37851865900023	3.62409144984037	0.82729283271199	-0.826474851485716	-0.00642035906062954	0.00839780925274142
0.76	-1.84252748049625	3.4564974352121	750.469146420074	-5.23206929718034	3.45154310227194	0.831447296811911	-0.833893708034878	-0.00621217052139056	0.00815839940659785
0.77	-1.21734945871669	3.53646529219311	750.687203687994	-5.08159815338851	3.26401270470212	0.840024535996632	-0.846617746467823	-0.00601000114742911	0.00790599228785599
0.78	-0.552086263294565	3.57474143865955	749.698455103874	-4.934355855889	3.08599310315238	0.85404202756242	-0.864824863882283	-0.00582327170251873	0.00767341335375238
0.79	0.0554941278156666	3.55171564766804	747.650208333479	-4.79608028895598	2.93684737065896	0.873045645987696	-0.887352359673505	-0.00565790285702572	0.00748561688343319
0.8	0.531131138491592	3.46570898264953	744.812974482223	-4.67038435186776	2.829541134064	0.895184670564883	-0.91189840080703	-0.00551593006280426	0.00735837066621786
0.81	0.831930052585861	3.33295876135229	741.524474898624	-4.55879652321953	2.77128045440506	0.917642964000807	-0.93550222853657	-0.00539614186016379	0.00729957221539995
0.82	0.945970385453136	3.18278012630375	738.12947719124	-4.46132687999493	2.76531452111125	0.937335636190173	-0.9552094869351	-0.00529541540596734	0.0073120552395054
0.83	0.885318519908787	3.04930927540716	734.930078939099	-4.37728500546615	2.81292411371005	0.95169151027598	-0.968760991246671	-0.00521024695531525	0.00739646068190014
0.84	0.675696448618519	2.96210249912694	732.156564539366	-4.30601696859386	2.91472348807456	0.959300031685453	-0.975116330468156	-0.00513795220304902	0.00755295832327413
0.85	0.346559102700092	2.93812445497843	729.961895695507	-4.24727043012718	3.07079262980487	0.960230207718632	-0.974657617288022	-0.00507714130138914	0.00778120702034246
0.86	-0.0753809177511939	2.97724911403105	728.435521347143	-4.20103076052377	3.27967778972471	0.955926049055647	-0.96900978519316	-0.00502732019203056	0.0080787067130253
0.87	-0.567802358518023	3.06242681805585	727.626810452096	-4.16686176107374	3.53676449235844	0.948715783294907	-0.960531997372183	-0.00498776630728914	0.00843835259652231
0.88	-1.11023114837497	3.16439451741425	727.566616572358	-4.1429752521718	3.83278169617252	0.941091424812164	-0.951635050060036	-0.00495608552994309	0.00884633031380361
0.89	-1.67956680056985	3.24956357328947	728.277653856805	-4.12538042676896	4.15316385789376	0.934976846860825	-0.944123716761652	-0.0049269943553496	0.00928139411203677
0.9	-2.24658657249059	3.28885392620085	729.769564505159	-4.10747817045746	4.47870849803273	0.931187943936648	-0.938737916343462	-0.00489183489104505	0.00971610342315565
0.91	-2.77575644938755	3.26500859981598	732.020892925654	-4.08035620911653	4.78753571243588	0.929212283537	-0.93499017469118	-0.00483912560423472	0.0101199367558954
0.92	-3.22912749788151	3.17640235673541	734.955461080228	-4.03384123960086	5.05793706429548	0.927334745162087	-0.931305857512917	-0.00475614248923439	0.0104635873550045
0.93	-3.57322100985542	3.03642648665044	738.423124013502	-3.95813963303866	5.27143116816245	0.923048629282782	-0.925402029230528	-0.00463121502771291	0.0107233739846055
0.94	-3.78639295759572	2.86886984141263	742.193862179166	-3.8457197524022	5.41529684120178	0.913640832491344	-0.914806848944953	-0.00445620632875698	0.0108846766763267
0.95	-3.86381258055128	2.70089821080438	745.970155822679	-3.69300534311239	5.48402589697087	0.89682544628014	-0.897418580956609	-0.00422858315086683	0.0109436115809754
0.96	-3.8180366425276	2.55586325180863	749.417092834716	-3.50147374378764	5.47944997868714	0.871309173905671	-0.872014233538862	-0.00395256847507175	0.0109066649691872
0.97	-3.67484077317199	2.44803254588109	752.20458302439	-3.27786591657467	5.40963630980934	0.837190468045939	-0.838628427030329	-0.00363906211512954	0.0107885349945576
0.98	-3.46576226654369	2.38049149991904	754.052961364945	-3.03338351455218	5.28691078318339	0.796117437354285	-0.798731967576197	-0.00330425429181469	0.0106088184230697
0.99	-3.21996648849489	2.34626932511015	754.772861507673	-2.7819395173128	5.12549341555088	0.751161459599565	-0.755156695009131	-0.0029670974291246	0.0103883391693403
1	-2.95812632936438	2.33166993463348	754.292202790866	-2.53772042542849	4.93922049697645	0.706409418869292	-0.711749553986292	-0.00264601991626168	0.0101458525848828
1.01	-2.69004107828794	2.32025783366223	752.666392427274	-2.31248892629645	4.73972519640366	0.666335268978142	-0.672795464634522	-0.00235544951041777	0.00989565347066929
1.02	-2.41619548981557	2.29611551202158	750.071160763377	-2.11317566983987	4.53531249034622	0.635067813238141	-0.642311589259023	-0.00210283782356735	0.00964636745619257
1.03	-2.13204199844474	2.24569034651193	746.779972022457	-1.94033291867812	4.33063496488133	0.615706234994733	-0.623361416040917	-0.0018868913797595	0.00940098568414294
1.04	-1.83303051070761	2.15839741055537	743.129502075497	-1.78790790870875	4.12716188495842	0.609831469992506	-0.617544201887012	-0.00169756228768403	0.00915803064825593
1.05	-1.51851885746438	2.02672212385258	739.477601664266	-1.64452678988495	3.92432353831369	0.617316189706919	-0.624775902063882	-0.00151800934699231	0.00891359851496726
1.06	-1.19349296488514	1.84662405913288	736.158933953237	-1.49610467916201	3.72109888033557	0.636461189683651	-0.643402425319936	-0.00132825773758238	0.00866389148461644
1.07	-0.868075350433978	1.61860402720874	733.444223856322	-1.32921578520865	3.51771146932324	0.664404971770818	-0.670599694586033	-0.00110979152168644	0.00840774267277844
1.08	-0.555639703532111	1.34912710203488	731.509408422682	-1.13439949108503	3.31704169164992	0.697691600137639	-0.702945890899592	-0.00084997868156178	0.0081485866506984
1.09	-0.270681303649369	1.05156305565977	730.420259340437	-0.908548373054963	3.12538834767828	0.732856815252151	-0.737020020991973	-0.000545194841379049	0.00789538767210085
1.1	-0.0273767617758768	0.745704690645946	730.1357630302	-0.655752957455718	2.95233268367805	0.766907689663794	-0.769893568659144	-0.000201823355519548	0.00766222227032765
1.11	0.160819494160761	0.455334715224011	730.529814972045	-0.386402302285089	2.80965065194004	0.797617345434922	-0.799429455672668	0.000165116607468763	0.00746649277764455
1.12	0.280864710226236	0.2040695790865	731.426494395941	-0.114823012982555	2.70943459727443	0.823615759384293	-0.824366026145542	0.000535309243845594	0.00732605309587542
1.13	0.319905714129778	0.0104840291230579	732.640693825298	0.143874235597786	2.66176768912386	0.844311612318356	-0.844222431535566	0.000887523862284634	0.00725577758915602
1.14	0.26605314022883	-0.116032813679872	734.014463081395	0.376898635100464	2.6724032156006	0.859714395824999	-0.859099634924464	0.00120388655720738	0.00726424055953329
1.15	0.110733846763027	-0.177327617567135	735.440717235859	0.576069111606746	2.74092195065717	0.870234214220316	-0.869460826801292	0.00147300327386446	0.00735117793003409
1.16	-0.147474113139717	-0.185682184583271	736.869631036203	0.73880689956995	2.8597797017904	0.876520484470064	-0.875957897566328	0.00169128673449714	0.00750628680082793
1.17	-0.498438041637446	-0.160299041131708	738.29793458419	0.867730201779116	3.01452602773096	0.879368140274625	-0.879335625676658	0.0018623656258675	0.00770970773971857
