Time [s]	GRFml [N]	GRFap [N]	GRFv [N]	Mml [N.m]	Map [N.m]	Mv [N.m]	Mfree [N.m]	COPml [m]	COPap [m]
0.01	-2.63803703035925	0.165387358648307	573.362586341972	-5.65680281640382	18.9715346777704	0.491326095884356	-0.47077562595777	0.00205993084532907	0.00916406347526488
0.02	-3.13839171263429	0.51025220689456	572.373331163346	-5.91391796717228	19.2531244550935	0.44914405732546	-0.433847553814311	0.00159375297373543	0.00971460411579839
0.03	-3.58780572562025	0.836905177455526	571.587786597035	-6.15815172859652	19.5212691645977	0.410643522839114	-0.400601723624413	0.00115409497804597	0.0102291809963449
0.04	-3.93892131217806	1.13072017974552	571.192125696189	-6.37686053962879	19.7639057990365	0.379173897470508	-0.37446532724904	0.000766690733228104	0.0106753532458484
0.05	-4.15565197130653	1.37966653465094	571.304620017053	-6.55795697469016	19.969135739981	0.357760603330415	-0.358497475383344	0.000454932657808715	0.0110251528857466
0.06	-4.2182177235244	1.57504258456235	571.952353349934	-6.69107423609938	20.1258757242707	0.348778014548574	-0.355027591522295	0.000237390236155544	0.0112576361645684
0.07	-4.12676429636617	1.71186990786974	573.063060713529	-6.76930976269745	20.2251693962462	0.353515778709473	-0.365191140109458	0.000124629667620835	0.011361646651649
0.08	-3.9025400492379	1.78878736135893	574.474674123498	-6.79100677533919	20.2618004703983	0.371794252997202	-0.388525262170475	0.000116319365622841	0.0113380142027339
0.09	-3.58587891113645	1.80753651562394	575.961996269164	-6.76092606084501	20.2357625245963	0.401795995682665	-0.422803492846032	0.000199726300994962	0.0112004630121394
0.1	-3.23089803605386	1.77237148315263	577.276173043736	-6.69030918721799	20.1532013336418	0.440210663697761	-0.464219482382781	0.000350377287551384	0.0109748378218264
0.11	-2.89763301111781	1.68976915355136	578.189426110499	-6.59566124101136	20.0265709673653	0.482678087712529	-0.507908970533645	0.000535034675390067	0.0106966652550852
0.12	-2.64302441217397	1.5686045103329	578.535979861158	-6.49646521981785	19.8738821535272	0.5244133315304	-0.548683320261314	0.000716448021913396	0.0104073876599998
0.13	-2.51250942931028	1.42059405510757	578.240911664421	-6.412350774275	19.7170569462551	0.560852836644551	-0.581787542176887	0.000858827242165128	0.0101497820091248
0.14	-2.53385136138376	1.26050383997419	577.331593146638	-6.36037243221161	19.5795412619779	0.588186413732911	-0.603513048515185	0.000932811832305314	0.00996312995173565
0.15	-2.71429244126515	1.10556091775234	575.930532775114	-6.35296332411942	19.4834607849534	0.603714429908075	-0.61157464605739	0.000918939100042038	0.00987868934520519
0.16	-3.04129984652914	0.973769858213727	574.232465171458	-6.39685896753228	19.4467095546442	0.606048657483903	-0.605258228503246	0.000809149411289178	0.00991596644708553
0.17	-3.48631964378281	0.881320258355799	572.471324617795	-6.49294490604202	19.4803974606199	0.595215594854073	-0.58541068768713	0.000606495382067695	0.0100802017283942
0.18	-4.01029443774233	0.839748987656928	570.883758032419	-6.63671484300026	19.5870305846187	0.572703877111222	-0.554347724988477	0.000323694206445513	0.0103613460775339
0.19	-4.56942039280457	0.853749740052154	569.675257332479	-6.81894131396314	19.7596691233484	0.541438952796124	-0.515705254721635	-1.87008448701009e-05	0.0107346199373891
0.2	-5.11979833695742	0.920371410455023	568.993478469823	-7.02628182199857	19.9821477676167	0.50561123930093	-0.474194500605996	-0.000393956991389666	0.011162551781102
0.21	-5.62021826319557	1.02986714314067	568.91157605442	-7.24179499820618	20.2303092630371	0.470273528993269	-0.435188226335319	-0.000770537610256028	0.011598241046939
0.22	-6.03312075769916	1.16785919247871	569.422836558125	-7.4455874404024	20.4741270208965	0.440680066134055	-0.404096180597663	-0.00111351694302009	0.0119895254644134
0.23	-6.32453038396158	1.31804000034493	570.446570182014	-7.61592033324577	20.6805677374731	0.421445229625242	-0.385575221559862	-0.00138654918245484	0.0122837469694377
0.24	-6.46418078553615	1.46453262392927	571.843934429036	-7.73101067386477	20.8170247196054	0.415704124481152	-0.3827217845325	-0.00155476851599412	0.0124328467695783
0.25	-6.42697108064066	1.59331235218077	573.440994734359	-7.77149693466336	20.8550874870127	0.424504326902132	-0.396455773062081	-0.0015885838759615	0.0123985039005977
0.26	-6.1963003160909	1.69259709373691	575.055042122464	-7.7232174005969	20.7742871110875	0.446615433964031	-0.425286424130122	-0.00146783460623334	0.0121569214774752
0.27	-5.76890407240941	1.75259771330143	576.519422954822	-7.57971529866338	20.5653070532017	0.478821523726651	-0.465551366959852	-0.00118542089277751	0.0117026890747498
0.28	-5.15988960317172	1.76525602671779	577.702385053765	-7.34384711546359	20.23205608836	0.516610597802993	-0.512079011612195	-0.000749481458750978	0.0110510044250897
0.29	-4.40609365150792	1.72449503470495	578.51693997699	-7.02805433726143	19.7920483521805	0.55505843111651	-0.559100888262246	-0.000183489256025182	0.0102375454250819
0.3	-3.56593636170509	1.62714028780924	578.921218662347	-6.65319564838069	19.274770106432	0.589668589119384	-0.601184417736679	0.000475843910257123	0.00931553211951192
0.31	-2.71467959943522	1.47424033812754	578.911494314559	-6.24619695976984	18.7181063903	0.616983211117476	-0.633984468704695	0.00118242591170015	0.00835000916190815
0.32	-1.93523694748681	1.27222959024585	578.51196872509	-5.83702915354521	18.1633533516576	0.634887953905525	-0.654701950330019	0.00188562166091344	0.00741000749523335
0.33	-1.30604153761081	1.03335946911823	577.765775268187	-5.45559083428158	17.6497115801985	0.642645732919766	-0.662243302072538	0.00253521373091015	0.00655982300642344
0.34	-0.888495090577977	0.775054060958211	576.730249495707	-5.12895987149157	17.2093099828812	0.640760794152406	-0.657150357570215	0.00308582117403122	0.00585097399114376
0.35	-0.716827797963241	0.518191398539239	575.476910155551	-4.87925770899569	16.8636804021367	0.630778406457105	-0.641392110028419	0.00350043856042237	0.0053163249477286
0.36	-0.792666037085918	0.284608833497561	574.093891318422	-4.72214967955178	16.6222192743433	0.615080122462431	-0.618084663027917	0.00375306082631022	0.00496737723017243
0.37	-1.08540559150187	0.0942773566305391	572.686969694295	-4.66587213302489	16.482656126351	0.596674921993438	-0.591160923480984	0.00383051639449739	0.00479496258195022
0.38	-1.53802870244125	-0.0374150909816462	571.375581881818	-4.71067217287334	16.4330710531928	0.578947811027847	-0.564979130067735	0.00373360057141614	0.00477277640873441
0.39	-2.07675928503167	-0.101909159325318	570.2822473274	-4.84864656144356	16.4547189232392	0.565328047367903	-0.543858258055225	0.00347743285374291	0.00486261319530812
0.4	-2.6222798785417	-0.0989508044440356	569.516721166172	-5.06410298709481	16.5249036535493	0.558874826128619	-0.531557737699455	0.00309076949327203	0.00501999038965062
0.41	-3.10025798587117	-0.0370250385550521	569.158706751488	-5.33465043564004	16.6193731420837	0.561828061149765	-0.530761301194404	0.00261391901372721	0.00519909000772417
0.42	-3.4495266965054	0.0674947880728828	569.243959764188	-5.63318490355289	16.7140582416658	0.575210938712286	-0.542656993269415	0.00209503071259642	0.00535647421438401
0.43	-3.62715622400386	0.192597092496844	569.75770671989	-5.93075260486834	16.7863064255346	0.598581871988784	-0.566710012698477	0.00158486982020467	0.00545361354016694
0.44	-3.6105241890426	0.314129936234518	570.636936416489	-6.1999937498977	16.8159391692983	0.630011768901328	-0.600696823251945	0.00113066908653181	0.00545867762023888
0.45	-3.3970924426387	0.410034139533718	571.780380963074	-6.41860163688674	16.7864409109742	0.666314719447593	-0.64101473096085	0.000770081008808265	0.00534814091196556
0.46	-3.00279963882102	0.464475311103956	573.063051536112	-6.57209715821773	16.6863995464656	0.703499499501149	-0.683215830877169	0.000526451084225221	0.00510854564686619
0.47	-2.45979649709772	0.470906738797133	574.351734206184	-6.65530228968062	16.5110568279852	0.737351903181933	-0.722656472267452	0.000406459014468341	0.00473835958689961
0.48	-1.81382477628597	0.433252574171467	575.518816282436	-6.67219724433064	16.2636026156509	0.764020995620921	-0.755121634361002	0.000400639192109975	0.00424945221442391
0.49	-1.1210859509661	0.364833668683986	576.453473101125	-6.63426847105804	15.9557463064424	0.780480796273417	-0.777291805640203	0.000486558183229069	0.00366746756614245
0.5	-0.444175537923249	0.28524219806111	577.070635075572	-6.55784184101938	15.6071583568565	0.784779190492548	-0.786971534274513	0.000633758922840788	0.00303040189898263
0.51	0.153289437101137	0.215919465346012	577.318583039983	-6.46109892383894	15.2435772539565	0.776059369145847	-0.783081000740144	0.000809228887905911	0.00238500562282318
0.52	0.613341206704807	0.175527283689871	577.185381586539	-6.36142385503092	14.8936657567656	0.754420123244995	-0.765495678539342	0.000982232855401999	0.00178113481525294
0.53	0.891037356227801	0.176222879860508	576.70313230206	-6.27346566041248	14.5850002445257	0.720734997057186	-0.734868282104054	0.00112780186121675	0.00126473462184457
0.54	0.961381590413721	0.221651169695081	575.947995417047	-6.20796014966269	14.339815860859	0.676548699005132	-0.692555314697675	0.00122876335512179	0.000870588642662151
0.55	0.824314343483006	0.306957573088165	575.033795241318	-6.1710981132924	14.1712504300582	0.624107677752462	-0.640696768420833	0.00127665921647646	0.00061618551961129
0.56	0.506404143081044	0.420564007031766	574.098099250694	-6.1641634766308	14.0807995277654	0.566485447555483	-0.582391607722023	0.00127203692490041	0.000497964859794142
0.57	0.0584218359996153	0.547013927079544	573.281714781015	-6.18330447851644	14.0575140022604	0.507677522949554	-0.52182281241762	0.00122439518511475	0.000490816010702499
0.58	-0.451159523387311	0.670005450290979	572.704896893504	-6.21954690697921	14.0791749556094	0.452510221590655	-0.464159915749245	0.0011516744516411	0.000551101621233785
0.59	-0.945778464465964	0.774833313414345	572.445317782536	-6.25935989786571	14.1153320109426	0.406253288247553	-0.415123783896725	0.00107885444878641	0.000622806553231103
0.6	-1.35185008100788	0.849791798514047	572.523250535325	-6.28611009818902	14.1317608506387	0.37393439349108	-0.38022005446816	0.00103517323415114	0.000645828099511636
0.61	-1.60932577454417	0.886519810861603	572.898131580844	-6.28254077656653	14.0956486937714	0.3594804523447	-0.363785826453565	0.00104979613530298	0.00056504974053323
0.62	-1.6799556011352	0.879640364310313	573.477935511922	-6.23404827819116	13.9806929231536	0.364902606528216	-0.368091267567149	0.00114634068957653	0.000338739902093543
0.63	-1.55199692559235	0.826235683372738	574.139408576866	-6.13214194416099	13.7713140220471	0.389758724760273	-0.392752248437253	0.00133727228993497	-5.50160714075099e-05
0.64	-1.2408500543751	0.725653937835793	574.754229434475	-5.97723090616332	13.4653308740377	0.431060594056118	-0.434634072180482	0.00161955610553233	-0.000614767604429522
0.65	-0.785849929197966	0.579897256807777	575.214569220366	-5.77990122310947	13.0746955550617	0.483667728960259	-0.488288055030116	0.00197289379284449	-0.00131545878934908
0.66	-0.244043044013125	0.394494689733673	575.451834874491	-5.56015295497521	12.6241917146424	0.541073139436139	-0.54681352131001	0.00236135604069143	-0.00211140978934715
0.67	0.317870869415512	0.179450434977515	575.444498910893	-5.34457567884284	12.1483126408383	0.596387392356229	-0.602930526349026	0.00273838468840493	-0.00294198869712203
0.68	0.832179920396015	-0.050305728715422	575.214160827688	-5.16199335659551	11.6868001258414	0.643296998246562	-0.65001677951377	0.00305424283286304	-0.00373912420330913
0.69	1.2382874060005	-0.275487812633089	574.812327941023	-5.0385288611692	11.2795023574984	0.676814468539169	-0.682908717062182	0.00326432416195699	-0.0044356419290118
0.7	1.48950799879975	-0.47430619632112	574.302829337695	-4.99319407352487	10.961276172954	0.693726814925038	-0.698365708629521	0.00333650187029899	-0.00497338512521628
0.71	1.55799955857716	-0.625474263958599	573.74558742344	-5.03496090102401	10.7576155014392	0.692748453230141	-0.695206112595023	0.00325596492199065	-0.00531017669726869
0.72	1.43751109752995	-0.711830438631088	573.186478230818	-5.16186648235458	10.6815515836232	0.67445583578361	-0.674203404157609	0.00302665921847223	-0.00542485936724557
0.73	1.1437705358423	-0.723737953148361	572.655567036979	-5.36217951034156	10.7321715545869	0.641101696337259	-0.637854936954344	0.00266931180045527	-0.00531988279294338
0.74	0.712471226327252	-0.661340356578341	572.172897244734	-5.61715986574259	10.894875271204	0.596376358678838	-0.590104621130747	0.00221681392236817	-0.00502116771566768
0.75	0.195015226866388	-0.534933818339035	571.758248547494	-5.90461751736812	11.1432698780765	0.545124709798505	-0.536037512052431	0.00170825591689983	-0.00457525256104008
0.76	-0.347548702585441	-0.363149837585211	571.439814567481	-6.2023983284237	11.442415198307	0.492976275623506	-0.48150663377662	0.00118302267931625	-0.00404400607784533
0.77	-0.851657822891288	-0.169227826917751	571.257154704668	-6.49109453049156	11.7529976052999	0.445835417106623	-0.432634874539809	0.000676081524856542	-0.00349745844739008
0.78	-1.25850766034154	0.0237674686979375	571.255996309549	-6.75561932841106	12.0359304589034	0.409221577552242	-0.395171588890727	0.00021505401469013	-0.00300554480803261
0.79	-1.52053275074767	0.197556858300019	571.475755369563	-6.98567090217893	12.2568512699452	0.387528912851543	-0.373759521562369	-0.000180935397782189	-0.00262974092275547
0.8	-1.60637203340507	0.34184824518766	571.933782166788	-7.17540858896328	12.3900028096456	0.383350448785314	-0.371244573631118	-0.000501094059100926	-0.00241566166681995
0.81	-1.50391762834123	0.455290169580422	572.612081483561	-7.32278488227028	12.4210447938175	0.397040969868891	-0.388196618880529	-0.000742118032479033	-0.00238764689541221
0.82	-1.22134170405673	0.544042598705987	573.451869210289	-7.42890854028662	12.3484482279598	0.426652531385742	-0.422780458344307	-0.000907206595965215	-0.0025461461226941
0.83	-0.786161358774177	0.618597751214589	574.358911122045	-7.49761965555988	12.1832816533337	0.468278143994629	-0.471029863773542	-0.00100518958888351	-0.00286833367731482
0.84	-0.242437017698356	0.690023727479219	575.219056959981	-7.53524252289931	11.9474052120818	0.516723109480941	-0.527469503180679	-0.00104972879954224	-0.00331188361777834
0.85	0.353790030377691	0.766900403615308	575.92006721859	-7.5503431836341	11.6703238108634	0.566338070645329	-0.585943013482866	-0.00105838531421099	-0.00382129842431161
0.86	0.940599448523346	0.853834387596293	576.37392261024	-7.55330004916395	11.3851705414008	0.611825081214026	-0.640471165383064	-0.00105135216367647	-0.00433573867018094
0.87	1.45733457399543	0.951746152621789	576.533880142672	-7.55557797212457	11.1244369552536	0.648869276267938	-0.685986704267045	-0.00104978957515967	-0.00479706316856676
0.88	1.85192854211407	1.05941672043829	576.402372122993	-7.56871745925309	10.9160868218248	0.674527359299143	-0.718852605385409	-0.00107386877096038	-0.00515683575392367
0.89	2.08729567940022	1.17535520784081	576.028596551424	-7.60315099241756	10.7805694111168	0.687381549849034	-0.737137440325915	-0.00114074393675345	-0.00538137626450796
0.9	2.14568354108662	1.29905530686817	575.497284962513	-7.66700962387437	10.7290233494566	0.687513116713128	-0.740669215314402	-0.00126270482574609	-0.00545442507300065
0.91	2.0302276548812	1.43110341894445	574.911868959628	-7.76509277688948	10.7627103239536	0.676353478602771	-0.730906810912805	-0.00144574406898867	-0.0053774882134951
0.92	1.76352959347534	1.5721773492748	574.375820466154	-7.89816460648021	10.8735243205418	0.656445930838256	-0.710662852650008	-0.00168874638551408	-0.00516827793915531
0.93	1.38368071525985	1.72147206037878	573.975531518207	-8.06272232919469	11.0453381768691	0.63112302917312	-0.683701061417598	-0.00198348402407222	-0.00485778352563565
0.94	0.938575715091968	1.87531403975961	573.767207466614	-8.25134552638267	11.2559687757108	0.604096777348446	-0.654231852566441	-0.00231555502303071	-0.00448643142389088
0.95	0.479505222472011	2.02662429752063	573.769306678175	-8.4536612956764	11.4796077897041	0.578978986265948	-0.626348351866734	-0.00266628605217467	-0.00409964061749346
0.96	0.0549236670026027	2.1655475553893	573.96125180487	-8.65784257210082	11.6896017407015	0.558786468847828	-0.603472905743305	-0.00301542820731315	-0.00374298560687158
0.97	-0.294920167892099	2.28114554735336	574.288391238535	-8.85241904836978	11.8614239764844	0.545517261890946	-0.587904115003667	-0.00334424688849744	-0.0034572280564914
0.98	-0.54200942777296	2.36371448095419	574.672358714759	-9.02806941289461	11.9755677590329	0.539888593004118	-0.58055009863235	-0.0036384337962726	-0.00327365171261684
0.99	-0.672918138247258	2.40712334499632	575.0250621305	-9.17902994277545	12.0199655302451	0.541297034350636	-0.580899625435412	-0.00389023690732815	-0.00321032479623296
1	-0.68930929902633	2.41059027764901	575.263764538993	-9.30382371640266	11.9914921162104	0.548005897277227	-0.587228033509057	-0.0040993505862007	-0.00326997457044975
1.01	-0.606537792231901	2.37946886773448	575.324460500651	-9.40517359355132	11.8962055900946	0.557506496948877	-0.596979256124639	-0.00427239825527748	-0.00343998683877927
1.02	-0.450542012230207	2.32483879894676	575.17123474841	-9.48916191469957	11.7482231127608	0.566961935578579	-0.607229961357144	-0.00442118144283732	-0.00369463924853286
1.03	-0.253466868670339	2.26193614235036	574.800420693702	-9.56387611734918	11.5674507628363	0.573638147625207	-0.615139264057058	-0.00456015084001227	-0.00399915862543621
1.04	-0.0487005279687376	2.20769129198894	574.239720697839	-9.637877341466	11.3766688311417	0.575254562356083	-0.61831526796768	-0.00470369307870733	-0.00431474726672559
1.05	0.133848318639154	2.17784495402365	573.543464685648	-9.71882312639599	11.1986048634483	0.570228684945363	-0.615071511469044	-0.00486379158047601	-0.00460352693246169
1.06	0.271424620974129	2.18424535486786	572.785523438739	-9.81247669363644	11.0535507551043	0.557822391723624	-0.604580226288511	-0.00504843969723834	-0.0048324860212472
1.07	0.350462011447292	2.23293602992915	572.051093344899	-9.9221861324388	10.9578257660494	0.538206896429314	-0.58693952504001	-0.00526093127715488	-0.0049759383768706
1.08	0.366782459541369	2.32347892162235	571.427986574205	-10.0487740229881	10.9230557842713	0.51244867787024	-0.56315833012489	-0.00549991679826278	-0.0050165501299867
1.09	0.324239064724925	2.44963408349956	570.997626205365	-10.1906922445565	10.9559645224649	0.48239743379471	-0.535042592218519	-0.0057599688213007	-0.00494544908354155
1.1	0.232477793051269	2.6011266667896	570.825917139376	-10.344292468995	11.0582681912267	0.450452932576467	-0.504962091184013	-0.00603238555194674	-0.00476211319436909
1.11	0.104649393674222	2.7659212066243	570.954521151163	-10.5041286477466	11.226378253368	0.419214250126677	-0.475502473246837	-0.00630605819383723	-0.00447455920270512
1.12	-0.0442724466098608	2.93232712826488	571.393574320412	-10.6633015591653	11.4509033568345	0.391064778797299	-0.449055027280004	-0.00656837164026758	-0.00409988529350153
1.13	-0.198364164712437	3.09042372188375	572.117244788717	-10.8139240714602	11.7162773423327	0.36779263389982	-0.427440900724165	-0.00680621620104827	-0.00366466405732546
1.14	-0.341149843328608	3.23263948335541	573.063503305389	-10.9477899897332	12.0010652379118	0.350357622388187	-0.411676856902414	-0.0070071992351024	-0.00320429948511458
1.15	-0.45621195568136	3.3536817705877	574.138982428804	-11.0572624459445	12.2794828214292	0.338877246890219	-0.401951413621082	-0.00716104987687838	-0.00276047487028208
1.16	-0.528677180805705	3.45021796468421	575.228919364181	-11.1362889159419	12.5243674467438	0.332826619654976	-0.397804796312878	-0.00726105445083314	-0.00237629938941619
1.17	-0.547800331841512	3.52067655451199	576.211143179768	-11.18135069231	12.7113368087268	0.331364515219397	-0.398427036046437	-0.00730522599881522	-0.002089583622717
