Time [s]	GRFml [N]	GRFap [N]	GRFv [N]	Mml [N.m]	Map [N.m]	Mv [N.m]	Mfree [N.m]	COPml [m]	COPap [m]
0.01	6.01811778241841	4.68684064321623	570.222695059991	-56.509172890118	-0.522580686893971	-1.05244860121705	-0.452097638453831	0.00439489760394913	0.0114086032543567
0.02	6.05271358063375	5.03219437891517	571.335333310288	-56.4995596428839	-0.53502165189375	-1.06290230517186	-0.459915140502716	0.00437811071206041	0.0112132450415429
0.03	6.08871758195321	5.37007251177683	572.434616488444	-56.493373725004	-0.547807885928606	-1.07370281057797	-0.467891123363419	0.00435957971185682	0.0110259721271562
0.04	6.12615738833064	5.69392624416813	573.504679749205	-56.4924268538594	-0.561042175860624	-1.08497668822255	-0.476118927447054	0.00433916443407995	0.0108524340268441
0.05	6.16495511543769	5.99774839942089	574.530712548957	-56.4983348671894	-0.574805497961375	-1.0968332141582	-0.484687791635975	0.0043168367575703	0.0106977720659716
0.06	6.20489839045699	6.27632151760105	575.499422330139	-56.5124043025057	-0.589145527595317	-1.10935146402005	-0.493674416952288	0.00429268376063937	0.0105663511557762
0.07	6.24561904475495	6.52542154264199	576.399421140399	-56.5355354240504	-0.604068287929209	-1.12256946517211	-0.503135573181945	0.0042669006405235	0.0104615322454478
0.08	6.28658186899546	6.74196623148678	577.221519846311	-56.5681478988272	-0.619533725590703	-1.13647617251482	-0.513102212494293	0.00423977497135001	0.0103854985524435
0.09	6.32708510448089	6.9241012931713	577.958920279795	-56.6101335801912	-0.635455623093186	-1.15100675721188	-0.523575376617758	0.00421166455537257	0.0103391447533885
0.1	6.3662735403544	7.07122145134283	578.607301647747	-56.6608389157829	-0.651705872680289	-1.16604141763494	-0.53452400698832	0.0041829713842359	0.0103220339930812
0.11	6.40316422813797	7.18392779532504	579.164803404012	-56.7190775136576	-0.668122777623815	-1.18140766429068	-0.545884608824718	0.00415411410911453	0.0103324231905413
0.12	6.43668396583376	7.2639266496922	579.631912127437	-56.783171515155	-0.684522739625994	-1.19688581254659	-0.55756259416151	0.00412550102512824	0.0103673530031559
0.13	6.46571689277586	7.31387850344947	580.01126444029	-56.851018750956	-0.700714451083041	-1.21221724786133	-0.569435044445936	0.00409750504155546	0.010422795213717
0.14	6.48915981886399	7.33720810865086	580.307381401808	-56.9201812867652	-0.716514547342751	-1.22711491053875	-0.581354593760537	0.0040704415690405	0.0104938474257498
0.15	6.50598232826306	7.33788856191345	580.526351992206	-56.9879899573294	-0.731763589312799	-1.24127537824029	-0.593154136460442	0.00404454981474147	0.0105749629131535
0.16	6.5152882826955	7.32021296683266	580.675484240455	-57.0516588731736	-0.746341238575187	-1.25439189864086	-0.604652099715079	0.00401997769839541	0.010660202321442
0.17	6.51637513011778	7.28856715344246	580.7629423197	-57.1084036667371	-0.760179549675943	-1.26616773387767	-0.615658079393912	0.00399677049891632	0.0107434936431025
0.18	6.50878741842367	7.24721597547039	580.797386693349	-57.1555574015619	-0.773273429087869	-1.27632921451002	-0.625978701892684	0.00397486338012844	0.01081888741453
0.19	6.49236112700164	7.2001140402406	580.787632356013	-57.1906785566341	-0.785687487334037	-1.28463795581137	-0.635423630075569	0.00395407806226874	0.010880795287891
0.2	6.46725585457026	7.15074951027065	580.742337621832	-57.211646258457	-0.797558728525647	-1.29090175677879	-0.643811666487776	0.00393412402676294	0.010924201869569
0.21	6.43397251880804	7.10202703398856	580.669733020052	-57.216738895765	-0.809094767823314	-1.29498377716225	-0.650976914047249	0.00391460469488412	0.0109448418241065
0.22	6.39335499711236	7.05619310879393	580.577396898413	-57.2046933407731	-0.82056752912974	-1.29680966642609	-0.656774931941592	0.00389502895636996	0.0109393365542569
0.23	6.3465750212152	7.01480444153198	580.472081508608	-57.174743141778	-0.832302639306953	-1.29637239840146	-0.661088776524512	0.00387482822189551	0.0109052871298934
0.24	6.29510057469952	6.97873732116944	580.359590805984	-57.1266351753447	-0.844664987967445	-1.29373464489509	-0.663834752466465	0.00385337884531531	0.0108413224165563
0.25	6.24064896973464	6.94823380103276	580.244709035027	-57.0606252920571	-0.85804115040423	-1.28902859966945	-0.664967630251451	0.00383002934687471	0.0107471034392194
0.26	6.18512663549309	6.922978714145	580.131177435643	-56.9774544097463	-0.8728195634638	-1.28245324032418	-0.664485025508721	0.00380413142395332	0.0106232868276253
0.27	6.13055837916313	6.90220028706459	580.021715086822	-56.8783072677287	-0.889369489669626	-1.27426908924837	-0.662430596053754	0.00377507332411633	0.0104714516742659
0.28	6.07900943561968	6.88478640718253	579.918078958789	-56.7647566343857	-0.908019895379674	-1.26479060577214	-0.65889570386554	0.0037423138335586	0.0102939952696534
0.29	6.03250397335167	6.86940842903668	579.821157601022	-56.6386961511975	-0.929039398604125	-1.25437640997006	-0.654019217809015	0.00370541494515836	0.0100940039603354
0.3	5.99294385971408	6.8546447355828	579.731092468732	-56.5022652035822	-0.952618408816679	-1.24341760451129	-0.64798520053412	0.00366407123726456	0.00987510582043472
0.31	5.96203141361674	6.83909703070103	579.647420604225	-56.3577692465237	-0.978854485555804	-1.23232452479765	-0.641018326833004	0.00361813411905111	0.0096413119682994
0.32	5.94119960995498	6.82149343869118	579.569232177526	-56.207598901719	-1.00774178923751	-1.22151230938949	-0.633377013732123	0.00356762936431887	0.00939685323539331
0.33	5.93155278077334	6.80077382164065	579.495336213637	-56.0541509076603	-1.03916529423492	-1.21138574171458	-0.625344394195446	0.00351276673293766	0.00914601854737125
0.34	5.93382032307942	6.77615418867888	579.42442768435	-55.8997536711143	-1.07290019189492	-1.20232386854016	-0.617217423675305	0.00345394093005256	0.008893000849047
0.35	5.94832531300331	6.7471685583972	579.355249045333	-55.7465997638625	-1.10861664330218	-1.19466494760651	-0.609294558095431	0.00339172363837508	0.00864175573360729
0.36	5.97496927740523	6.71368805395527	579.286739307019	-55.5966872564935	-1.14588976356562	-1.188692311829	-0.601862569923019	0.00332684684205738	0.0083958771548184
0.37	6.01323371688976	6.67591828255322	579.218163912236	-55.451771303118	-1.18421444725487	-1.18462175528787	-0.595183164380353	0.00326017811171964	0.00815849373700112
0.38	6.06219833014577	6.63437711957767	579.149219132182	-55.3133269059626	-1.22302439404545	-1.18259104123397	-0.589480112124573	0.00319268891666555	0.0079321882753971
0.39	6.12057527270156	6.58985584648618	579.080105454631	-55.1825233132363	-1.26171447884741	-1.18265209942591	-0.584927623144808	0.00312541735715952	0.00771894206154781
0.4	6.18675820210833	6.54336716461586	579.011565570502	-55.0602100515738	-1.299665443404	-1.18476641549134	-0.581640648414036	0.0030594269581359	0.0075201046968396
0.41	6.2588843219583	6.49608392719957	578.944884078383	-54.9469141780205	-1.33626977501063	-1.1888040169348	-0.579667713973369	0.00299576333182106	0.00733638909632717
0.42	6.33490714470691	6.44927251651956	578.881847889452	-54.8428479665275	-1.37095758735452	-1.19454632971492	-0.578986772742138	0.00293541059946958	0.00716789046036745
0.43	6.41267725601916	6.40422467085955	578.824668449179	-54.7479259291484	-1.40322132940211	-1.20169301955652	-0.579504410784887	0.00287924946260271	0.00701412713143534
0.44	6.49002799308547	6.36219127220977	578.775869176288	-54.6617898196022	-1.43263821798242	-1.20987274961245	-0.581058576563282	0.00282801873398232	0.00687410048659765
0.45	6.56486266199785	6.32432117930969	578.738143798569	-54.5838400814563	-1.45888941221741	-1.21865758936405	-0.583424823604706	0.00278228198170925	0.006746370370649
0.46	6.63523973423853	6.29160767061627	578.714193363899	-54.5132720873988	-1.48177511460002	-1.22758060922511	-0.586325878212569	0.00274240071203745	0.00662914207649812
0.47	6.69945240074264	6.26484448505932	578.706551444814	-54.4491154698483	-1.50122498377208	-1.2361560028708	-0.589444172466639	0.00270851522637368	0.00652036054937384
0.48	6.75609894420555	6.24459284798923	578.717408272456	-54.3902748638729	-1.51730346619297	-1.24390090702097	-0.592436825759598	0.00268053394765676	0.00641780734529415
0.49	6.8041406328175	6.23116027347156	578.74844509903	-54.3355704660457	-1.53020988573878	-1.25035794814776	-0.594952421364898	0.00265813163678122	0.0063191959205581
0.5	6.84294425083507	6.22459136437141	578.800689911351	-54.2837769503673	-1.54027335985459	-1.25511744817203	-0.596648813142392	0.00264075653009071	0.00622226106862005
0.51	6.87230696268409	6.2246703052987	578.874404671269	-54.2336594660478	-1.54794282700548	-1.25783817564908	-0.597211116148768	0.0026276460454137	0.00612483874631717
0.52	6.89246194465028	6.23093427235836	578.969012571459	-54.1840056619744	-1.55377266294694	-1.25826554167198	-0.596368988118286	0.00261785034812152	0.00602493312741251
0.53	6.90406408526828	6.24269657582894	579.083071455601	-54.1336529286262	-1.55840452463432	-1.25624621404033	-0.593912300804498	0.00261026275992313	0.0059207684636382
0.54	6.90815601283009	6.25907801286062	579.214296701835	-54.0815103092928	-1.5625461844253	-1.25173825884907	-0.589704334817741	0.00260365574740088	0.00581082418927205
0.55	6.90611570544085	6.27904464117406	579.359633692129	-54.0265747979189	-1.56694820005383	-1.24481611139295	-0.58369171157897	0.00259672105497522	0.00569385263404565
0.56	6.89958791742406	6.30144999530534	579.515376702502	-53.9679420001982	-1.57237930673859	-1.23566992016586	-0.575910402227506	0.00258811245199713	0.00556887966323953
0.57	6.89040255400796	6.32507965807424	579.677327879343	-53.9048113776806	-1.57960141842289	-1.22459908722635	-0.566487324024996	0.00257648954344867	0.00543518949072011
0.58	6.88048388429924	6.34869607565461	579.840987143377	-53.8364865126179	-1.58934508962669	-1.21200013079571	-0.555637244953853	0.00256056114006348	0.00529229575646034
0.59	6.87175504763014	6.37108156841207	580.001761594955	-53.7623710165001	-1.60228622378433	-1.19834930499109	-0.543654958144081	0.00253912678421183	0.00513990167350441
0.6	6.86604263884579	6.39107764349746	580.155181457989	-53.681960852209	-1.61902472560094	-1.18418070924238	-0.530902947267838	0.00251111516812706	0.00497785258651309
0.61	6.86498622709566	6.40761895807481	580.297108923056	-53.5948339452768	-1.64006569172927	-1.17006088829089	-0.517795026959685	0.00247561834640824	0.00480608461280706
0.62	6.8699574601299	6.41976060872421	580.423926502287	-53.5006380233244	-1.66580362342174	-1.1565611458506	-0.504776691598158	0.00243192082238185	0.00462457314009108
0.63	6.88199293943032	6.4266978222128	580.532692693857	-53.3990776461701	-1.6965100330894	-1.14422895628177	-0.492303123870186	0.00237952276807372	0.00443328483231707
0.64	6.90174434515623	6.4277775785647	580.621254809455	-53.2899013760989	-1.73232470853666	-1.13355994735059	-0.480815984972464	0.0023181568141699	0.00423213646233327
0.65	6.92944838356009	6.42250218622739	580.688311617082	-53.1728899933286	-1.77325079670276	-1.12497193567645	-0.470720217289751	0.00224779801708135	0.00402096337723748
0.66	6.96491807550511	6.41052532302889	580.733421810986	-53.0478465911985	-1.81915377376114	-1.11878242180359	-0.462362128182389	0.0021686667758459	0.00379949975068289
0.67	7.00755576434787	6.39164152401551	580.756958013339	-52.9145892940903	-1.86976427956802	-1.11519079605167	-0.456009985419962	0.00208122463502831	0.00356737203324273
0.68	7.05638706107633	6.3657705055436	580.760009783139	-52.7729472326597	-1.92468470986389	-1.11426627665047	-0.451838241681105	0.00198616307491917	0.00332410622683794
0.69	7.11011383118676	6.33293803323846	580.744242691216	-52.6227602883384	-1.98339937715495	-1.1159423102809	-0.449916323773753	0.00188438556084691	0.00306914882951828
0.7	7.1671833246183	6.29325524320337	580.711723660438	-52.4638829834323	-2.04528796904292	-1.1200178283626	-0.450202683091346	0.00177698330160992	0.00280190056425733
0.71	7.22586971279858	6.24689839185098	580.664725239889	-52.2961927441786	-2.10964195008691	-1.12616538971096	-0.452544522424795	0.00166520535290986	0.00252176135331704
0.72	7.2843636702943	6.19409092983642	580.60552309986	-52.1196026003316	-2.17568347057364	-1.13394587277195	-0.456683308180292	0.00155042389221541	0.00222818445186287
0.73	7.34086525434965	6.13508957029624	580.536201679375	-51.9340782041666	-2.24258626486684	-1.14282903002466	-0.462265864862121	0.00143409568027742	0.00192073722453392
0.74	7.39367521091759	6.07017566261323	580.458482536417	-51.73965885247	-2.30949794678977	-1.15221890355337	-0.468860548460723	0.00131772090166865	0.00159916574113381
0.75	7.44127997308031	5.99965271278371	580.37358856151	-51.5364819768311	-2.37556304444459	-1.16148284185849	-0.475977723577365	0.00120280072932539	0.00126346017978632
0.76	7.48242600527951	5.9238503424285	580.282154904996	-51.3248103326848	-2.43994606741819	-1.16998266765487	-0.483093539642142	0.00109079507117366	0.000913917950331466
0.77	7.51617975988878	5.8431343905312	580.184194386234	-51.1050608720609	-2.50185387107994	-1.17710643428524	-0.48967582536474	0.000983082015057364	0.000551201477832816
0.78	7.54197031554692	5.75792227997541	580.079121497534	-50.8778340391484	-2.56055658081258	-1.18229917934745	-0.495210805353116	0.000880920477354067	0.000176387706423836
0.79	7.55961271443538	5.66870224116815	579.965835121386	-50.6439419962825	-2.61540636761986	-1.1850911383826	-0.499229293295865	0.000785417470588549	-0.000208993410240624
0.8	7.56931105666671	5.57605455127108	579.842856000387	-50.4044340893207	-2.66585342803187	-1.18512201473938	-0.50133103395078	0.000697501231632537	-0.000602933878950593
0.81	7.57164148825632	5.48067264712599	579.70851109305	-50.1606177166989	-2.71145861581937	-1.18216010576322	-0.501205950387783	0.000617901197866081	-0.00100293817959668
0.82	7.56751627733045	5.38338183007849	579.561153461618	-49.9140726975579	-2.75190229848013	-1.17611534859499	-0.498651199845333	0.000547135495500538	-0.00140603096132065
0.83	7.55813115510314	5.28515331592323	579.39940349109	-49.6666572614119	-2.78698916290834	-1.16704565672152	-0.493583144941286	0.000485506231725386	-0.00180878304654938
0.84	7.54489895169803	5.18711159303361	579.222395215988	-49.420503921004	-2.81664886477678	-1.15515625466629	-0.486043598018997	0.000433102486581348	-0.00220735628014049
0.85	7.52937323700314	5.09053342178922	579.030010471045	-49.1780037509908	-2.840932595567	-1.14079206539101	-0.476199983748193	0.000389810511575931	-0.00259756711154095
0.86	7.51316614783303	4.99683731094627	578.823083568465	-48.9417779793841	-2.86000581909887	-1.12442354539797	-0.464339374985367	0.000355330290749053	-0.00297496810066271
0.87	7.49786482076037	4.90756290350666	578.603560264828	-48.7146362983986	-2.87413759453245	-1.1066266791113	-0.450856673543223	0.000329197333933309	-0.0033349458137048
0.88	7.48495084423368	4.82434035119499	578.374596881629	-48.4995218990494	-2.88368704429735	-1.08805812127042	-0.436237513725765	0.000310808372875247	-0.0036728328499292
0.89	7.47572689710341	4.74885040577431	578.140588491896	-48.2994439031683	-2.88908763387078	-1.06942670040718	-0.421036744553971	0.000299449531520863	-0.00398403104562596
0.9	7.47125427040527	4.68277656201756	577.907118931146	-48.1173985737087	-2.89082999879511	-1.05146265745381	-0.405853579491714	0.000294325544868678	-0.00426414227107266
0.91	7.47230430516583	4.62775111191864	577.680829833025	-47.9562813903226	-2.889444078934	-1.03488608392374	-0.391304675121704	0.000294588698966305	-0.00450910270433644
0.92	7.47932596231705	4.58529738213781	577.469210684871	-47.8187927406409	-2.88548130039344	-1.02037604034204	-0.377996500901965	0.000299366341553864	-0.00471531606409989
0.93	7.49243082143694	4.55677070665551	577.280316772369	-47.70734055702	-2.87949748507986	-1.00854177790143	-0.366498383710883	0.000307786045596898	-0.00487978103943625
0.94	7.51139583832065	4.54330082493362	577.12242654593	-47.6239436851128	-2.87203707311359	-0.999897358681594	-0.357317551690074	0.000318997769976863	-0.00500020808817102
0.95	7.53568323440759	4.54573839334312	577.003654106116	-47.5701400710037	-2.8636191234311	-0.99484077976512	-0.350877366130457	0.000332192626192368	-0.00507512089987126
0.96	7.56447599875703	4.56460816324688	576.931535902148	-47.5469039715365	-2.85472542362506	-0.993638464963562	-0.347499727737101	0.00034661810339097	-0.005103938138888
0.97	7.59672670458983	4.60007112791271	576.912613134837	-47.5545763102473	-2.8457909024866	-0.996415707997646	-0.34739238939652	0.00036158980843102	-0.00508703159301943
0.98	7.63121671732625	4.65189759095061	576.95203257573	-47.5928120112295	-2.83719640808912	-1.00315334812916	-0.350641620014505	0.000376499932404159	-0.00502575754183968
0.99	7.66662242806988	4.71945268132917	577.05318844919	-47.6605476480469	-2.82926379897902	-1.01369064978067	-0.357210363487957	0.000390822757426537	-0.00492245900547254
1	7.70158490149938	4.80169535439766	577.217426642863	-47.7559920580422	-2.82225320195852	-1.02773405818226	-0.366941743919172	0.000404117571857558	-0.00478043751253222
1.01	7.73477928327243	4.89719139416103	577.443829866897	-47.8766417182401	-2.8163622200918	-1.04487122945192	-0.379567501610398	0.000416029377885377	-0.00460389410182681
1.02	7.76498046061467	5.00414038785876	577.729098606568	-48.0193216916975	-2.81172682931064	-1.06458950008798	-0.394720719849979	0.000426287764670344	-0.0043978404075438
1.03	7.79112179187206	5.12041609759022	578.06753801325	-48.1802518755647	-2.80842367954005	-1.08629777955817	-0.411952031387437	0.000434704294945336	-0.00416798182882182
1.04	7.8123441895206	5.24361912301722	578.45115552078	-48.3551371643244	-2.8064735132904	-1.10935072927265	-0.430748382231096	0.000441168722894214	-0.00392057590529138
1.05	7.82803342385991	5.37114025193417	578.869868265759	-48.5392790384786	-2.80584542704767	-1.13307403669537	-0.450553380365937	0.000445644332457546	-0.00366227006181473
1.06	7.83784417551436	5.50023244984587	579.311813659488	-48.7277050571905	-2.80646172424266	-1.15678960546923	-0.470788264863305	0.000448162660252305	-0.00339992379963786
1.07	7.84171006710265	5.6280890636848	579.76375103351	-48.9153118287717	-2.80820313910599	-1.17983955772627	-0.490872589418705	0.000448817845007944	-0.00314042115104959
1.08	7.83983961224426	5.75192552571508	580.211537466684	-49.0970163067085	-2.81091424496218	-1.20160807574331	-0.510243813596598	0.000447760822627101	-0.0028904797388201
1.09	7.83269870037091	5.86906165699075	580.640656965846	-49.2679097547484	-2.81440889590077	-1.221540285899	-0.528375123443333	0.000445193558701815	-0.00265646305622637
1.1	7.82098085936666	5.97700159788563	581.036779327063	-49.4234084753765	-2.81847558549579	-1.23915759508439	-0.544790948842287	0.000441363475063242	-0.00244420258482821
1.11	7.80556708014707	6.0735084442422	581.386323397061	-49.559395421711	-2.82288263922497	-1.25406911345989	-0.559079797037197	0.000436558181604144	-0.00225883608459118
1.12	7.78747742798184	6.15667084403585	581.676999159652	-49.6723471185705	-2.8273831878709	-1.26597902258987	-0.570904170763714	0.000431100568972541	-0.00210466782830661
1.13	7.76781698959999	6.2249591069893	581.898304090343	-49.7594408936965	-2.83171989712786	-1.27468996021105	-0.580007478089375	0.000425344253607522	-0.00198505572893488
1.14	7.74771890267061	6.27726878711552	582.041951481436	-49.8186382387161	-2.83562945355255	-1.28010267973118	-0.586217964211604	0.000419669297731949	-0.00190232925937099
1.15	7.72828727975966	6.31295019761728	582.102211800337	-49.8487411407393	-2.83884682833327	-1.28221239419366	-0.58944979991858	0.000414478058779919	-0.00185774083825893
1.16	7.71054277191251	6.33182288474522	582.076152407328	-49.8494193963717	-2.84110935722481	-1.28110232428205	-0.589701545607325	0.000410190962092081	-0.00185145201347658
1.17	7.69537332232426	6.3341746933132	581.963765881475	-49.8212081778803	-2.84216068621182	-1.27693503490135	-0.587052273301153	0.00040724194517255	-0.00188255438511366
1.18	7.68349234819921	6.32074567012178	581.767982507749	-49.7654763982734	-2.84175463667176	-1.26994216543934	-0.581655672470499	0.000406073299162958	-0.00194912384340153
