Time [s]	GRFml [N]	GRFap [N]	GRFv [N]	Mml [N.m]	Map [N.m]	Mv [N.m]	Mfree [N.m]	COPml [m]	COPap [m]
0.01	16.2448019015244	2.03506184468386	540.475609259103	-38.3886233243863	-6.0267965468523	-1.13981831690636	0.0367321836775243	-0.00694887006419089	-0.0079715091113214
0.02	15.1625243880789	2.21404552253707	540.493594314341	-38.4931011882432	-5.96662088299252	-0.937976724134252	0.166377548336344	-0.00683890866006107	-0.0077790032375424
0.03	14.1005484857135	2.39045242466365	540.529635658312	-38.5970382901824	-5.90769157465362	-0.739896598302583	0.293182172550123	-0.00673099785930391	-0.00758983964648292
0.04	13.0784198788335	2.56145454262842	540.589585803912	-38.6990747038031	-5.85111642979319	-0.549163307232928	0.414915031598452	-0.0066270704605497	-0.00740735519090052
0.05	12.1143165319898	2.72435230495974	540.677168496116	-38.7977763545116	-5.79790672115341	-0.369090368868695	0.529550717296754	-0.00652891727090868	-0.00723474366177937
0.06	11.2243497438662	2.87666282892487	540.793497160584	-38.8916595787716	-5.74893535457538	-0.202590706114313	0.635344439642093	-0.00643812000016635	-0.00707494496863111
0.07	10.421972662075	3.01620147644283	540.936802847866	-38.9792270205034	-5.70490297562741	-0.0520696212150755	0.730890875698074	-0.00635599518668243	-0.00693054095863263
0.08	9.71752509482626	3.14115356198243	541.102403511212	-39.0590147488241	-5.66631380524519	0.0806552045697091	0.815164505680901	-0.00628355179931669	-0.00680366231869556
0.09	9.11793445971643	3.25013332513115	541.282925107617	-39.129649011031	-5.63346228448287	0.194403242876063	0.887540389335249	-0.00622146417372058	-0.00669591094389586
0.1	8.62658284692867	3.3422276663662	541.468762754126	-39.1899096396825	-5.60643085510202	0.288648740211498	0.94779558208847	-0.0061700608946256	-0.00660830184772872
0.11	8.24334017657543	3.41702264943918	541.648748988512	-39.2387959670099	-5.58509846723398	0.363506973675485	0.996092480184562	-0.00612932922946211	-0.00654122809341835
0.12	7.96475398308052	3.47461138880508	541.81097786941	-39.2755902877726	-5.56915874133549	0.419691512365437	1.03294625935895	-0.00609893383960881	-0.00649445133059989
0.13	7.78437805639137	3.51558265056025	541.943719706132	-39.2999135406354	-5.5581461626177	0.458446411027808	1.05917920689532	-0.00607824780544235	-0.00646711935159935
0.14	7.69321547644377	3.54099027916501	542.036352747754	-39.3117679949159	-5.55146828341557	0.481458456974923	1.07586514352023	-0.00606639353093887	-0.00645781069358206
0.15	7.6802468105747	3.55230439227653	542.080235845484	-39.3115623377576	-5.54844167071316	0.490755372860297	1.084267310344	-0.00606229084335184	-0.0064646047940245
0.16	7.73301156228639	3.55134612835411	542.069450096826	-39.3001156175254	-5.54832926708586	0.48859622835014	1.08577308836585	-0.00606470954942566	-0.00648517466602785
0.17	7.83821036809216	3.54020854633463	542.001347445693	-39.2786379342241	-5.55037692597864	0.477360247357779	1.08182875803726	-0.00607232381228122	-0.00651689761666116
0.18	7.98229680107837	3.52116701878417	541.876859333627	-39.2486874654436	-5.55384711785157	0.459439756980462	1.07387722522102	-0.00608376592767163	-0.00655697830453722
0.19	8.15203070198131	3.49658308204639	541.700537543783	-39.212105240345	-5.5580481548049	0.437142274669347	1.06330126328752	-0.00609767736307002	-0.00660257752827881
0.2	8.33496937927355	3.468806162091	541.48032080291	-39.1709308739128	-5.5623577141303	0.412605751902938	1.0513743695542	-0.00611275524529912	-0.00665093963882449
0.21	8.51987840091498	3.44007784053488	541.227042761252	-39.1273040962508	-5.56623991873758	0.387729873951029	1.03922082548222	-0.00612779282084105	-0.00669951142878526
0.22	8.69704962032743	3.4124433279337	540.953717852282	-39.0833582145378	-5.56925571705695	0.364125144813031	1.02778600207328	-0.00614171275704808	-0.00674604578946966
0.23	8.85852012340806	3.38767455011524	540.674659527133	-39.0411125082212	-5.57106676166498	0.343080346348459	1.01781738596609	-0.0061535924994787	-0.00678868432235526
0.24	8.9981915722736	3.36720872368844	540.404498974936	-39.0023708939973	-5.5714333842187	0.325547921370674	1.00985624341462	-0.00616268125133793	-0.00682601439314071
0.25	9.11185463196734	3.35210551339982	540.157180544941	-38.9686339602726	-5.57020758080959	0.312145946571257	1.00423931790208	-0.00616840849548634	-0.00685709773856355
0.26	9.19712754823309	3.34302486096096	539.945011993847	-38.9410306615829	-5.56732214117619	0.303174668995528	1.00110950294369	-0.00617038433326863	-0.00688146957006401
0.27	9.25332132897699	3.34022640551911	539.777843216291	-38.9202746299554	-5.56277717062984	0.298645097208023	1.00043407221842	-0.00616839225673303	-0.0068991090392683
0.28	9.28124628430555	3.3435901496184	539.66243663068	-38.9066482955732	-5.55662526682277	0.298316865585553	1.00202880518713	-0.00616237528474657	-0.00691038380657062
0.29	9.28297589475062	3.35265674289707	539.60207674194	-38.9000159451257	-5.54895653401964	0.301742512618272	1.00558622810462	-0.00615241665827077	-0.00691597315683218
0.3	9.26158416920907	3.36668454683781	539.596446877357	-38.8998646435196	-5.53988446094234	0.308315405283402	1.01070619590439	-0.00613871648484852	-0.00691677551767796
0.31	9.2208719444984	3.38471959523969	539.641779310585	-38.9053697801383	-5.52953347461828	0.317318767310473	1.01692715583917	-0.00612156583081086	-0.00691380725712
0.32	9.16509612917719	3.40567375684496	539.731262765871	-38.9154800534124	-5.5180287345512	0.327973591520123	1.02375663504587	-0.00610131977375218	-0.00690810019414757
0.33	9.09871389139964	3.42840590446834	539.855670485251	-38.9290151428948	-5.50548847204752	0.33948359732354	1.03069975114475	-0.0060783708497266	-0.00690060530377891
0.34	9.02615142830759	3.45180074429329	540.004154386868	-38.9447682745043	-5.49201893044878	0.351075798841085	1.03728482558176	-0.00605312417184373	-0.00689210962461853
0.35	8.95160442131691	3.47484017982209	540.165137819091	-38.9616054602419	-5.47771174221164	0.362035647178963	1.0430854543927	-0.00602597527970858	-0.00688317240401112
0.36	8.87887474899575	3.49666266945891	540.327232108184	-38.9785534370301	-5.46264340298313	0.371736079222533	1.04773863749907	-0.00599729152653665	-0.00687408509920227
0.37	8.81124564277768	3.51660694854154	540.480101106449	-38.9948692339638	-5.44687638084344	0.379660129306236	1.05095877127717	-0.00596739754644107	-0.00686485808028992
0.38	8.75139534500126	3.53423766286088	540.615203334826	-39.010085801007	-5.43046133522348	0.385417031011948	1.05254746498788	-0.00593656508797292	-0.00685523486791728
0.39	8.70134754420133	3.54935181600195	540.726352596909	-39.02403012104	-5.41343991386341	0.388751952326673	1.05239925304038	-0.0059050072649756	-0.00684473262304276
0.4	8.66245546543522	3.56196636596518	540.810054136814	-39.0368125439554	-5.39584764191004	0.389549671898379	1.05050335142693	-0.00587287706905674	-0.0068327055384397
0.41	8.63541549776086	3.57228870839415	540.865593122097	-39.0487885381036	-5.37771650508942	0.387832624333312	1.04694166068154	-0.00584026981085804	-0.0068184259157108
0.42	8.62030563263736	3.58067304637042	540.894873761689	-39.060496447083	-5.35907694598955	0.383753827669604	1.04188326230448	-0.00580722900778206	-0.00680117619342714
0.43	8.61664372907189	3.58756667223983	540.902028876967	-39.0725769660787	-5.33995912418131	0.37758526623437	1.03557570139744	-0.00577375511094792	-0.00678034414801158
0.44	8.62346066042145	3.59345089560722	540.892839402209	-39.0856817273083	-5.32039342209731	0.369702346246076	1.02833340190853	-0.00573981636215842	-0.00675551301574635
0.45	8.63938367062397	3.59878168850464	540.874019436261	-39.1003794582307	-5.30041029517303	0.360565077286723	1.0205236243099	-0.00570536099347774	-0.00672653843952579
0.46	8.66272570736196	3.60393505802121	540.852433745185	-39.1170685458791	-5.28003965492671	0.350696665362224	1.01255044616486	-0.00567032993154347	-0.00669360494017142
0.47	8.69157704106619	3.60916170384882	540.834320090086	-39.1359044598139	-5.25931002899988	0.340660235334164	1.00483731786276	-0.00563466915213917	-0.00665725601306921
0.48	8.72389606257832	3.61455470954814	540.824587984198	-39.1567493707153	-5.23824775840602	0.331034432127681	0.997808810800595	-0.00559834085464181	-0.00661839387175228
0.49	8.75759672861432	3.6200329161547	540.826258554688	-39.1791495297532	-5.21687646946939	0.32238867910536	0.991872225086215	-0.00556133269602244	-0.00657824717121937
0.5	8.79063065376708	3.62534132225035	540.840097699286	-39.2023436809701	-5.19521700055263	0.315258894336218	0.987399751113017	-0.00552366444177255	-0.00653830757855052
0.51	8.82106230334092	3.63006844916357	540.864477748718	-39.2253031473234	-5.1732878796778	0.310124475948675	0.98471187892785	-0.00548539155293826	-0.00650023862434483
0.52	8.84713610741926	3.63367921490937	540.895482806219	-39.2468014757106	-5.15110634922207	0.307387360556583	0.984062718709316	-0.00544660542522943	-0.0064657626618954
0.53	8.86733458923626	3.63556058653243	540.927251518043	-39.26550887715	-5.12868983019601	0.307353928277726	0.985627835212545	-0.00540743021397038	-0.00643653378305808
0.54	8.88042678661465	3.63507622896865	540.952530027263	-39.2801043809778	-5.10605762361496	0.310220469392505	0.989495111488813	-0.00536801640060644	-0.00641400601355852
0.55	8.88550635946932	3.63162562317933	540.963389033709	-39.289396838592	-5.08323257160617	0.31606283800469	0.995659047131869	-0.00532853146535589	-0.00639930689692447
0.56	8.8820188419013	3.62470274653063	540.952043802077	-39.2924448239488	-5.06024235555284	0.324830795988876	1.00401876932198	-0.00528914821131985	-0.00639312658745382
0.57	8.86977754185619	3.61394942410622	540.911705896458	-39.2886651902769	-5.03712009922538	0.336347397231703	1.01437989682189	-0.00525003142684975	-0.00639563178152884
0.58	8.8489676444746	3.59919886854955	540.83739123062	-39.2779205956376	-5.01390397441576	0.35031358137483	1.02646025315736	-0.0052113236689496	-0.00640641226135492
0.59	8.8201381659937	3.58050569359971	540.726611088222	-39.2605776748688	-4.99063557418123	0.366317944015505	1.03989927996749	-0.0051731309992521	-0.00642446560821458
0.6	8.78418155823709	3.55815974879951	540.579880955377	-39.2375296150951	-4.96735691978744	0.383851434778839	1.05427085850586	-0.00513550950749288	-0.00644822292324335
0.61	8.74230099733307	3.53268239217688	540.400995692792	-39.2101795291442	-4.94410609387115	0.4023265156477	1.06909910945922	-0.00509845341940811	-0.00647561537729192
0.62	8.69596571305978	3.50480519018903	540.197037684213	-39.180384011145	-4.92091163369458	0.421100100289562	1.08387661149532	-0.00506188551149726	-0.00650417833096707
0.63	8.64685512501139	3.47543239904188	539.978105704267	-39.1503593659622	-4.89778596247782	0.439499402136972	1.09808436070898	-0.00502565044908075	-0.00653118686415947
0.64	8.59679303499519	3.4455898303766	539.756774684133	-39.1225559823825	-4.874718270951	0.456849655679241	1.11121269101643	-0.00498951153131983	-0.00655381406315191
0.65	8.5476736569487	3.41636374054057	539.547318544719	-39.0995089315227	-4.85166737322285	0.472502551911471	1.12278229561915	-0.00495315117219765	-0.00656930153445366
0.66	8.50138181169326	3.38883412873442	539.36474807718	-39.0836749075372	-4.82855514001121	0.485864153763077	1.13236443930104	-0.00491617527537043	-0.00657513050251857
0.67	8.45971013207782	3.36400723264978	539.223731914549	-39.0772669231227	-4.80526114962987	0.496421037178611	1.13959943857156	-0.00487812148000001	-0.00656918159828462
0.68	8.4242765683211	3.3427520464624	539.137479682887	-39.0820986212827	-4.78161918708247	0.503763442492521	1.14421251904156	-0.00483847107245203	-0.0065498720840437
0.69	8.3964458070075	3.3257453601543	539.116671559714	-39.0994496269866	-4.75741616158797	0.507604320162699	1.14602624242121	-0.00479666418477795	-0.00651626074442403
0.7	8.37725837736165	3.31342916395072	539.168517265291	-39.1299620659793	-4.73239390369495	0.507793313047919	1.14496883105713	-0.00475211774553016	-0.00646811289344511
0.71	8.36737118016933	3.3059833344775	539.296020010756	-39.1735763170596	-4.70625414916816	0.504324929204097	1.14107790298568	-0.00470424552136001	-0.00640592073604719
0.72	8.36701291478161	3.30331539658706	539.49750763783	-39.2295113903674	-4.67866682577234	0.497340416318311	1.134499356521	-0.00465247949639253	-0.00633087746733842
0.73	8.37595738949006	3.30506792576077	539.766475047228	-39.2962922347767	-4.64928154174514	0.487123139987233	1.12548139654605	-0.00459629178413079	-0.00624480675517737
0.74	8.39351698834302	3.31064291476453	540.091760321763	-39.3718229993323	-4.61774194454295	0.474087579004701	1.11436395693512	-0.00453521625250374	-0.00615005238517173
0.75	8.41855765878178	3.31924126639211	540.458053259648	-39.4535020460173	-4.58370239063832	0.458762365590571	1.10156402481437	-0.00446886906099745	-0.0060493356175577
0.76	8.44953572179749	3.32991457343698	540.846711044361	-39.5383715673575	-4.54684615800086	0.441768099910393	1.08755759301239	-0.00439696735081529	-0.00594559000944385
0.77	8.48455564708905	3.34162557339017	541.236833215348	-39.6232922127998	-4.50690425857325	0.423790939092668	1.07285914042409	-0.00431934538510184	-0.00584178493683213
0.78	8.52144674910362	3.35331316453067	541.60652859754	-39.7051313447498	-4.46367378347884	0.405553185115891	1.05799965458186	-0.00423596749876925	-0.00574074970997293
0.79	8.55785562230885	3.36395766546768	541.934291814678	-39.7809525511138	-4.41703465134223	0.387782259480701	1.04350426132067	-0.00414693728296852	-0.00564500997866314
0.8	8.59135012392839	3.37264209278168	542.200397559442	-39.8481939011607	-4.36696363887748	0.371179544793993	1.0298705143346	-0.00405250249979096	-0.00555664710199583
0.81	8.61952990397963	3.37860560152466	542.388217643568	-39.904823149638	-4.31354465717046	0.356390587615823	1.0175483294577	-0.0039530553054827	-0.00547718940150149
0.82	8.64013794003962	3.38128584390579	542.485369288373	-39.9494596148826	-4.25697439600266	0.343978091117781	1.00692243517731	-0.00384912746557418	-0.00540754187075794
0.83	8.6511673064164	3.38034780217925	542.484612969437	-39.9814546704301	-4.19756268572679	0.334398983089997	0.998298064227507	-0.00374138038321652	-0.00534795816009812
0.84	8.65095752292026	3.37569758349286	542.384433783321	-40.0009255413051	-4.13572720976382	0.327986632165127	0.991890442559098	-0.00363058993966998	-0.00529805569691914
0.85	8.63827529265817	3.36748066386115	542.189260740954	-40.0087401970521	-4.07198252403246	0.324939014616519	0.98781845089357	-0.00351762636391184	-0.00525687185216296
0.86	8.6123752321332	3.35606507181056	541.909302258837	-40.0064543745874	-4.00692368199579	0.325313321039376	0.986102647074596	-0.00340342959908228	-0.00522295632492446
0.87	8.57303727728513	3.34201094905477	541.560001818384	-39.9962049298105	-3.94120510256381	0.329027154437182	0.986667648777186	-0.00328898090083469	-0.00519449257035244
0.88	8.52057875111169	3.32602876116221	541.161143559838	-39.9805665998635	-3.87551562920266	0.335866127881106	0.989348688787559	-0.00317527166352597	-0.00516943928777915
0.89	8.45584051969184	3.30892910905941	540.735661711806	-39.9623816705839	-3.81055098986908	0.34549734036632	0.993901972216289	-0.00306327069768142	-0.00514568182154478
0.9	8.38014814932226	3.29156757567429	540.308228565845	-39.9445738301783	-3.74698505950166	0.357487912216921	1.00001829147185	-0.00295389134977918	-0.00512118286563024
0.91	8.29525040841307	3.27478830549786	539.903711728884	-39.9299585350733	-3.68544143520873	0.371327512898746	1.0073391978932	-0.00284795994148669	-0.00509412211748925
0.92	8.20323873644919	3.25937004487695	539.54560147078	-39.9210624489615	-3.62646685047615	0.386453628033773	1.0154748983546	-0.00274618699719308	-0.00506301546390391
0.93	8.1064523414248	3.24597816676629	539.25451236202	-39.9199639239097	-3.57050787694456	0.402278198799777	1.02402295211105	-0.00264914262444036	-0.00502680582887331
0.94	8.00737431661339	3.23512577780355	539.04685974214	-39.928165107769	-3.51789219574261	0.418214231572882	1.03258679854512	-0.0025572372217446	-0.00498491986191048
0.95	7.90852454037286	3.22714638299339	538.933801018803	-39.9465041701103	-3.46881547656033	0.433701019884942	1.040793158762	-0.00247070843216522	-0.00493728705786231
0.96	7.81235511903058	3.22217980080986	538.92051498659	-39.9751134704422	-3.42333459840836	0.448226741084937	1.048307427157	-0.00238961496454314	-0.00488432051926505
0.97	7.72115376154184	3.22017212600996	539.005870326335	-40.013426417052	-3.38136760179876	0.461347378545654	1.05484630129917	-0.00231383759414138	-0.00482686123024104
0.98	7.63695977196631	3.22088958340374	539.182508628088	-40.0602324808675	-3.34270040015048	0.472701164800616	1.06018708161861	-0.00224308735293209	-0.00476609023531166
0.99	7.56149637231338	3.22394516250675	539.437339386538	-40.1137765517924	-3.30699992066633	0.482018026240679	1.0641732927349	-0.0021769206416963	-0.00470341534250744
1	7.49612190284174	3.22883603121734	539.752416334539	-40.1718957744105	-3.27383301194629	0.489123818151817	1.0667165181356	-0.00211476074702134	-0.00464034074981186
1.01	7.44180117968544	3.23498895546702	540.106138144149	-40.2321843848668	-3.24269016411029	0.493939450833802	1.06779457989398	-0.00205592502374658	-0.00457832920545619
1.02	7.39909701450809	3.24181035519499	540.474693786507	-40.2921750759185	-3.21301284999362	0.496475304055038	1.06744641647165	-0.00199965680007709	-0.00451866686860243
1.03	7.36818070738196	3.24873725071902	540.83365533793	-40.3495241898691	-3.18422312145156	0.496821589931612	1.06576419842112	-0.00194516087045814	-0.00446234089149869
1.04	7.34885929074954	3.25528523185646	541.159610050536	-40.4021876779109	-3.15575398726985	0.495135537322519	1.06288336223373	-0.00189164125586963	-0.00440993889690819
1.05	7.34061649094841	3.26108973466742	541.431719938692	-40.4485753106526	-3.12707905955138	0.491626420927529	1.05897132974299	-0.00183833973452229	-0.00436157802238903
1.06	7.34266382570129	3.26593733979108	541.633101329485	-40.4876720575459	-3.0977399822403	0.48653953627049	1.05421571212906	-0.0017845734880681	-0.00431686913841967
1.07	7.35399799032535	3.26978449490894	541.751928606316	-40.5191177890348	-3.0673702456957	0.480140223013939	1.04881277536068	-0.00172977008702105	-0.00427491935396593
1.08	7.37346069936009	3.27276197433588	541.782185017968	-40.5432393519864	-3.03571414125872	0.472698963966881	1.04295687252954	-0.00167349797737304	-0.00423437316759634
1.09	7.39979742098963	3.27516446369725	541.724007707467	-40.561032432942	-3.00263981552183	0.464478441355706	1.03683143475258	-0.0016154906540286	-0.00419348979418986
1.1	7.43171192940522	3.27742582238245	541.583602386274	-40.5740942229937	-2.9681456409798	0.455723226252935	1.03060196440779	-0.00155566283975056	-0.00415025149654739
1.11	7.46791425282143	3.28008174354534	541.372733374099	-40.5845114776069	-2.93235942236867	0.446652527076834	1.02441130193542	-0.00149411724902209	-0.00410249537445888
1.12	7.50716035184785	3.28372260715236	541.107824896397	-40.5947118642618	-2.89553029886254	0.437456148267341	1.01837725103201	-0.00143114091275227	-0.0040480591903605
1.13	7.54828266059862	3.28894021376927	540.808737405479	-40.6072892638623	-2.85801357117838	0.428293532715105	1.01259245885933	-0.00136719056662969	-0.00398493058933305
1.14	7.59021139884701	3.29627271310692	540.49730622276	-40.6248157243668	-2.82024906574327	0.419295504335267	1.00712627115608	-0.00130286724170722	-0.00391138860797115
1.15	7.63198726084857	3.30615233742642	540.195747228736	-40.6496538922899	-2.78273402767509	0.410568112412526	1.00202813081615	-0.00123888090249065	-0.00382612671578161
1.16	7.67276665771126	3.31886047613307	539.925044314151	-40.6837838682014	-2.74599188901153	0.402197826026805	0.997331976149231	-0.00117600670273065	-0.00372834779046466
1.17	7.71182110038322	3.33449417431286	539.703435040268	-40.7286575176543	-2.71053856430762	0.394257249014869	0.993061033335896	-0.00111503510943863	-0.00361782333096611
1.18	7.7485325390281	3.3529473265817	539.545104228174	-40.7850913679503	-2.67684815739428	0.386810530905974	0.989232394535282	-0.00105671871528939	-0.00349491173841934
