Time [s]	GRFml [N]	GRFap [N]	GRFv [N]	Mml [N.m]	Map [N.m]	Mv [N.m]	Mfree [N.m]	COPml [m]	COPap [m]
0.01	-2.08080916813679	0.464169875854998	526.614607391941	-6.14585709499637	38.1915588068697	0.131125192745519	-0.140504069507466	0.0012265991713527	0.00239732595757391
0.02	-2.20941906080005	0.686372925295483	526.73659662671	-6.17612756262605	38.1678812900646	0.134308902986851	-0.158094928728352	0.00117021375855952	0.0023352664597075
0.03	-2.31635318369856	0.877481475833461	526.82947711806	-6.2030302984157	38.1443530521067	0.138765586959888	-0.174978699921739	0.00111975984723833	0.00227763458753089
0.04	-2.38617350466314	1.01333958770555	526.86469532716	-6.22413888069967	38.1211217507419	0.145494617643259	-0.190599902293516	0.00107934753142891	0.00222873835875115
0.05	-2.41450966243817	1.08266801671324	526.820830007138	-6.23909340361402	38.0985033722799	0.154835601548236	-0.204535767779358	0.00104924591214717	0.00219215686100349
0.06	-2.40901877828781	1.08904968624618	526.686470890692	-6.24968229576072	38.0769608729956	0.166341770621985	-0.216501421144796	0.00102578129827324	0.00217029993102547
0.07	-2.3865119366957	1.0489207122761	526.462438407992	-6.25916882432612	38.0570192625605	0.17885882939473	-0.226319835205098	0.00100267936114962	0.00216396039438788
0.08	-2.36736163618466	0.986340052211882	526.16319073871	-6.27116136213804	38.0391773805591	0.190783952002971	-0.233872886358929	0.000973275247558747	0.00217198582873773
0.09	-2.36912481362816	0.926243027667961	525.816948081195	-6.28847389209547	38.0238565142738	0.200438259295196	-0.2390656177288	0.00093272252732679	0.00219119826255321
0.1	-2.40140617985911	0.888218548801028	525.463827438648	-6.31238345151328	38.0113708701023	0.206462283900174	-0.241835249567093	0.000879399561930727	0.00221661933294376
0.11	-2.46339613528812	0.882506862239095	525.151390818352	-6.34249788202785	38.0018543190825	0.208139377943409	-0.242214815043865	0.000815083405851791	0.00224195236204783
0.12	-2.54453075640433	0.909065101361522	524.927576365824	-6.37719346777654	37.9950732158837	0.205567203094386	-0.240427691807778	0.000743961518313019	0.00226019240070946
0.13	-2.62772197967423	0.959524757059043	524.831881406074	-6.41437545773658	37.9901135376234	0.199631473001149	-0.236961978721601	0.000670971117674668	0.00226422754220673
0.14	-2.69392869170464	1.02102534398973	524.886576385074	-6.45223099012841	37.9850308311224	0.19178450723036	-0.232569677964049	0.000600141127468867	0.00224736214024063
0.15	-2.72665806534157	1.08050432331658	525.09025488721	-6.4896997498961	37.9766413727042	0.183683816498628	-0.228160980156093	0.000533520834677947	0.00220379013274818
0.16	-2.71527423932402	1.12812785446217	525.415861090494	-6.52654009315111	37.9606553077348	0.176787870670209	-0.224609365525217	0.000470986008562657	0.00212910896994678
0.17	-2.65655852369214	1.15905222750741	525.814399793237	-6.5630422091146	37.9322755156324	0.172021989180305	-0.222528070733973	0.000410858594916741	0.00202094410025111
0.18	-2.55455551251103	1.17338369535205	526.224029382086	-6.59956415535879	37.8872227238414	0.169608001783475	-0.222100663658279	0.000351000970421955	0.00187964882588354
0.19	-2.41914251450789	1.17480045441179	526.582615834754	-6.63610298933072	37.8229553061207	0.169100225212755	-0.223035590673589	0.000289934758510135	0.00170890189866746
0.2	-2.26389038139773	1.16862485204887	526.840643363376	-6.67206527870251	37.739711815494	0.169603735908057	-0.224670250267523	0.000227594785764729	0.00151592148178753
0.21	-2.10369531099356	1.16011893259638	526.971093374343	-6.70630387324439	37.6409866791395	0.170092869168864	-0.226192689763177	0.000165506030630813	0.00131102016182316
0.22	-1.95249242245555	1.15348612885827	526.973685346386	-6.73738588886777	37.5331837533672	0.169720199211367	-0.226902985821443	0.000106384014292082	0.00110637329037544
0.23	-1.82124937897775	1.15165364481252	526.872502946429	-6.76398539791663	37.4244468910021	0.168019147335057	-0.226421457111806	5.3334986010789e-05	0.000914131744585045
0.24	-1.71643924564599	1.15656526003216	526.707962929955	-6.78526837411781	37.3229539550317	0.164950756305551	-0.224773293885477	8.92951433806299e-06	0.000744289425871458
0.25	-1.63925774107956	1.16956423665873	526.525659102481	-6.8011535923606	37.2351693045019	0.160807386868761	-0.222329385536112	-2.55680500140798e-05	0.000602895586414298
0.26	-1.58586462002128	1.1915227954122	526.365309829398	-6.81237776406364	37.1645905133346	0.156038251469947	-0.219640059149188	-5.05981215854767e-05	0.000491184839902681
0.27	-1.54878766774735	1.22260733949309	526.25268604684	-6.82035035331632	37.1113717161332	0.151083760956887	-0.217238425619408	-6.82322242449018e-05	0.000405956871416702
0.28	-1.51931502144591	1.26182526834465	526.196222127735	-6.82683931109587	37.0729099082006	0.146290109039674	-0.215496424519428	-8.16609438736293e-05	0.000341139517258504
0.29	-1.49031836833271	1.3066533445817	526.188499040763	-6.83357179354459	37.0451516704615	0.141930136952722	-0.21458701930023	-9.43961348546241e-05	0.000290054053910138
0.3	-1.4586743397292	1.35303627071863	526.211455358049	-6.84185440201243	37.0241400996777	0.138301380065033	-0.214553691283568	-0.000109413309130946	0.000247633391348534
0.31	-1.42645016762056	1.39588984886743	526.24338207602	-6.85230985198326	37.0072629896388	0.135831617548049	-0.21543720718981	-0.000128467722892212	0.000211839762665367
0.32	-1.40035288594746	1.43003130706604	526.265607225335	-6.86479187313527	36.9938006288172	0.135114445179628	-0.217383039338256	-0.0001517568363677	0.000183805598140685
0.33	-1.38951749338391	1.45128816727489	526.267188777149	-6.8784864449646	36.9846467473286	0.136826274118203	-0.220662706325258	-0.000177990417601026	0.000166682613201297
0.34	-1.40231292245223	1.45746919447891	526.246706683411	-6.8921514394157	36.9813815990836	0.141529417753153	-0.225583423824294	-0.000204802877760923	0.000163655379591177
0.35	-1.44322834274964	1.44892419584519	526.211132097311	-6.90440775275173	36.9850990046538	0.149420706869562	-0.23231353050273	-0.000229343656908743	0.000175877510052103
0.36	-1.5109004409381	1.42853894659394	526.172515461358	-6.91398872437413	36.995453650461	0.160118184502214	-0.240692598850391	-0.000248847432780974	0.000201109995672355
0.37	-1.59794698894723	1.40115902959559	526.143689803211	-6.91988565290174	37.0102869315937	0.172575995759172	-0.250107792897508	-0.000261031384371502	0.000233579360232272
0.38	-1.69263715197728	1.37257330689498	526.134250175312	-6.92138443043902	37.0259571357104	0.185180024814661	-0.259497734276785	-0.000264273719404406	0.000265128098190404
0.39	-1.78180129492169	1.34829074466158	526.147795429049	-6.91804645144627	37.0382326449513	0.196017933498311	-0.267501046215961	-0.000257647070381228	0.000287262991919002
0.4	-1.85399637941965	1.332398010995	526.180956277146	-6.90971580017578	37.043404187466	0.203258486214237	-0.272716434800749	-0.000240950124510864	0.000293384855975742
0.41	-1.90192590723474	1.32677578261967	526.22425482358	-6.89661391903236	37.0392073415453	0.20553741231293	-0.274003158267212	-0.000214856460350243	0.00028042232501907
0.42	-1.92344669593558	1.33087047292934	526.264457339531	-6.87951573589886	37.0252401931967	0.202243450070325	-0.27073757093627	-0.000181182798381863	0.000249317883346756
0.43	-1.9210312383794	1.34207386725264	526.287826153201	-6.85991830931334	37.0027724360901	0.193629018933538	-0.262955843258223	-0.000143126544333017	0.000204246193534596
0.44	-1.90008430840213	1.35659056741189	526.283538326191	-6.84006115128182	36.9740832937747	0.180723561499575	-0.251348185221337	-0.000105224077606492	0.000150918585890614
0.45	-1.86684667461474	1.37052717528022	526.246516421229	-6.82267540279658	36.9416360219769	0.165085307975377	-0.237113266442516	-7.281220250277e-05	9.46535949564731e-05
0.46	-1.82665635941102	1.3808724822728	526.179028861482	-6.81043448679804	36.9074259418455	0.148470255702021	-0.221719233343245	-5.09512640251009e-05	3.89351398172311e-05
0.47	-1.78309503605766	1.38608353114953	526.090671885758	-6.80521877379339	36.8727185455534	0.132512725379575	-0.20663888091055	-4.30281204323313e-05	-1.50805368603901e-05
0.48	-1.73814027054829	1.3861355789666	525.996700853672	-6.80742931923032	36.8381839984627	0.118496642040379	-0.193125751103636	-4.9484047684123e-05	-6.80926725473152e-05
0.49	-1.69303785581401	1.38208316990762	525.915044606713	-6.81562777317768	36.8042367203933	0.107257411466008	-0.182076592816487	-6.71878527170877e-05	-0.000121624801322662
0.5	-1.64935102415391	1.37534458304823	525.862612869886	-6.82670748588265	36.7713005817853	0.099205586896406	-0.173991873485217	-8.98345437492232e-05	-0.000177044426077078
0.51	-1.60961648829047	1.36700281730867	525.851635654376	-6.83662957054078	36.7397848062498	0.0944235785823438	-0.169012803394444	-0.000109422796182423	-0.000235137674662378
0.52	-1.57723416737516	1.3573875858928	525.886761287384	-6.84154841397484	36.7097392713568	0.0927706781618342	-0.166993899395364	-0.00011846543387406	-0.000296392431090253
0.53	-1.55555388582423	1.34608221350639	525.963532146872	-6.8389871789274	36.680365770802	0.0939455109670497	-0.167572200912269	-0.000112274024350767	-0.000361733972702172
0.54	-1.54647133331413	1.33233605159495	526.068690446021	-6.82867530623301	36.6496852724897	0.097491729952939	-0.170215523977737	-9.05655228778945e-05	-0.000433200406186551
0.55	-1.54908071278228	1.31571383918755	526.182527290562	-6.81275311914057	36.6146322241777	0.102774640886702	-0.174260284559019	-5.78179783425892e-05	-0.000514069211630774
0.56	-1.55896615567925	1.29672209865407	526.283122925266	-6.79525358148368	36.5716722937871	0.108982621344233	-0.178967830640283	-2.21999306919685e-05	-0.000608231295309181
0.57	-1.56852864222703	1.27714244965044	526.351806812683	-6.78101384018304	36.517798347371	0.115203421755002	-0.183624897053687	6.62579281374143e-06	-0.000719001645271944
0.58	-1.56839721488601	1.25987768069017	526.378578397809	-6.77436022667137	36.4515640234677	0.120591456319563	-0.187688565779397	2.01412371306775e-05	-0.000847851794413212
0.59	-1.54958367478437	1.2482670939387	526.365807718005	-6.77798040691059	36.3737583756146	0.124592663995057	-0.190941652076998	1.3224705979975e-05	-0.000993601363394103
0.6	-1.50575442853892	1.24502143297329	526.328589658514	-6.79232135211398	36.2874385128222	0.127151672322336	-0.193600015451546	-1.46754957329742e-05	-0.00115239748276147
0.61	-1.43492597748501	1.25110885458054	526.290868267839	-6.81566119155265	36.1972731513104	0.128812781688659	-0.196314364725207	-5.97547725780245e-05	-0.00131845838163136
0.62	-1.34007330260547	1.26501915207719	526.277806971378	-6.84476822847872	36.1084082527707	0.130650377293427	-0.200038565373519	-0.000115281618736529	-0.00148524228174296
0.63	-1.22850334838663	1.28277970668495	526.306432767227	-6.87586855594638	36.0252396683765	0.134018065289912	-0.20578264546456	-0.000173664888955316	-0.0016465729746109
0.64	-1.11024634773924	1.2988754374978	526.377673892929	-6.90556516360719	35.9505005581325	0.140168735562491	-0.214311580846756	-0.000228402060541422	-0.00179735049291613
0.65	-0.996004213503227	1.30789195651833	526.472948285709	-6.9314123121141	35.8849424677227	0.149846163803444	-0.22587253575443	-0.000275264658967211	-0.00193372403505138
0.66	-0.895271401718412	1.30637916638467	526.557231822225	-6.95201959829549	35.8276672524959	0.162965705821436	-0.240026416621694	-0.000312431390129375	-0.00205286561541368
0.67	-0.815101063478289	1.29426488136797	526.588375864136	-6.96676597788097	35.7769411273149	0.178482810326527	-0.255630294391511	-0.000339724761341031	-0.00215263240292873
0.68	-0.759699321393557	1.27523084727887	526.530139263494	-6.97535657498158	35.7311725388688	0.194501436125449	-0.270979379571407	-0.00035745479472038	-0.0022313925306387
0.69	-0.730709817325616	1.25579390326135	526.364857478506	-6.97749100479705	35.6897063456533	0.208614713688044	-0.284083982529053	-0.000365480459561862	-0.00228814693705148
0.7	-0.727819033102872	1.24330249677919	526.101521291299	-6.972821967608	35.653175313121	0.21841225961223	-0.293034089927805	-0.000362932521195347	-0.00232289449605366
0.71	-0.749254856965102	1.24348558648105	525.776371233675	-6.96121594097281	35.6233150207955	0.222043884924581	-0.296389903834662	-0.000348691558247238	-0.00233704837769794
0.72	-0.7918872863597	1.25840345317545	525.445466007612	-6.94316632253224	35.6023299700267	0.218706163821632	-0.293526699373272	-0.00032235038378603	-0.00233367114214889
0.73	-0.850916192074098	1.28555088879029	525.171236998931	-6.92012795897759	35.5920401055369	0.208922879688075	-0.284856965174734	-0.000285173073928613	-0.0023173565320978
0.74	-0.919429750431773	1.31847576294068	525.006937427424	-6.89457147559915	35.5931003025768	0.194527053701946	-0.271859299659345	-0.000240572855438215	-0.00229370837877307
0.75	-0.988300683860178	1.34873902102536	524.983520953363	-6.86967235411912	35.6045583725895	0.178319543352637	-0.256871677470722	-0.000193837617803005	-0.00226849639883075
0.76	-1.04685432530826	1.3685572920855	525.102660403073	-6.84869344662041	35.6239118568496	0.16346517904289	-0.242659738531655	-0.000151125118626139	-0.00224665984857864
0.77	-1.08447706264952	1.37321994715894	525.33764244379	-6.8342298477814	35.6476712783873	0.152769090468763	-0.231838527207556	-0.000118007169167544	-0.00223136385317912
0.78	-1.09292408614146	1.3624513223527	525.64142795618	-6.82752909688733	35.6722801607472	0.148024923641948	-0.226285556544971	-9.7984644908844e-05	-0.00222329707162316
0.79	-1.06869716634264	1.34026409029933	525.959079967569	-6.82807908682091	35.6951248999853	0.149620418078291	-0.226707286210454	-9.14061045542702e-05	-0.00222035472728921
0.8	-1.01467462621827	1.31338140447897	526.240715124533	-6.83359155503571	35.7153265579887	0.156518669382352	-0.2324926226654	-9.51252387793033e-05	-0.00221779685434487
0.81	-0.940298074152002	1.28880100660836	526.451413520133	-6.84042054726894	35.7340579099519	0.166622372958119	-0.241908358824807	-0.000103057501253279	-0.00220891274056051
0.82	-0.860039362053904	1.27136011941254	526.575905595709	-6.8443540681063	35.7542617479406	0.177409336545198	-0.252586810369239	-0.000107570855981676	-0.00218615036012065
0.83	-0.790439742984409	1.26214040530262	526.6177332347	-6.84161420216367	35.7798237393279	0.186642529229602	-0.262162609506005	-0.000101405017109313	-0.00214257466365358
0.84	-0.746508384133358	1.25824114847661	526.594231028848	-6.82981901502432	35.8144221979857	0.192938121429573	-0.268868607177021	-7.96183554248042e-05	-0.00207340804861328
0.85	-0.738488742741638	1.25396116258679	526.529564164034	-6.80863288545552	35.8603847570494	0.196027689014791	-0.271917717043896	-4.09897576758578e-05	-0.0019773137114924
0.86	-0.769863931477883	1.24294083838832	526.448045203644	-6.77988965406376	35.9178914671033	0.196656332336576	-0.271571528058918	1.15871544813517e-05	-0.00185705982923889
0.87	-0.837045392254444	1.22049787008228	526.369257147726	-6.74711592028652	35.9847679792442	0.1961786037164	-0.268900145392263	7.18918231060739e-05	-0.0017192935743176
0.88	-0.930659043646626	1.18535108379389	526.305556225044	-6.71457109550029	36.0569377804077	0.196007254822932	-0.265334416467462	0.000132138710632002	-0.00157336346515341
0.89	-1.03791831898422	1.14016986638446	526.261716505438	-6.68608843874906	36.1294027576858	0.197106140369733	-0.262169436408057	0.000185168057121432	-0.00142940587708051
0.9	-1.14538683485058	1.09081250078146	526.236037603506	-6.66407866382813	36.1974606986174	0.199689476478103	-0.260180087467391	0.000226362940667579	-0.00129616344137179
0.91	-1.24149174796857	1.04456464117421	526.222183191709	-6.64900738605311	36.2577988473259	0.203208693451414	-0.259458132138085	0.000254684642578829	-0.00117913110224233
0.92	-1.31835567816562	1.00800109198107	526.211217702379	-6.63949270656348	36.3091465421683	0.206605377455309	-0.259496582927919	0.000272536341605512	-0.00107956901056833
0.93	-1.37274428151991	0.985172433102642	526.193578501393	-6.63295040046882	36.352312751476	0.2087201857689	-0.259461486519197	0.0002845868384731	-0.000994683687170761
0.94	-1.40609693152996	0.976655753154798	526.160914758103	-6.62652599426039	36.389630626579	0.208702986782981	-0.258534059382175	0.000296047432149393	-0.000918927868899744
0.95	-1.42371318181818	0.979682929220593	526.107773857413	-6.6179684137909	36.4240193076508	0.206282416382268	-0.2561959883853	0.000311056309792113	-0.000846014845278464
0.96	-1.4332520215701	0.989197123676647	526.033033330165	-6.60614934035462	36.4579930339325	0.201815897439312	-0.252367896845244	0.000331728558181421	-0.000771002076225824
0.97	-1.44280623491472	0.999416151751158	525.940835064325	-6.5910916426747	36.4929579730195	0.196127717607086	-0.247377381318755	0.000358124324018716	-0.00069176017739897
0.98	-1.45893677246319	1.00538278707434	525.840685634801	-6.57357156944193	36.5290297641159	0.190218564447829	-0.241799986662212	0.000389003920807096	-0.000609336728012611
0.99	-1.48513608875255	1.00406664663692	525.746437951436	-6.55452101571334	36.5654105413025	0.184966537596517	-0.236257134534045	0.000422934151609322	-0.000527102762740872
1	-1.5211581649554	0.994790173678276	525.6741008361	-6.53451592305227	36.6011481543857	0.180926271672299	-0.231255652674334	0.000459203223215798	-0.000449013381796592
1.01	-1.56345946895079	0.978987874171136	525.638778173677	-6.5135759304674	36.63594237689	0.178279683283945	-0.22711878866328	0.000498126150812017	-0.000377662405019019
1.02	-1.60666427259045	0.959490736792935	525.651382165485	-6.491348843005	36.6706289895144	0.176924471942955	-0.224008059085765	0.000540617807102906	-0.000312920835953578
1.03	-1.6456043635067	0.939616350895142	525.715941689716	-6.46757679176332	36.7070859673532	0.176633597422821	-0.221993606218643	0.00058724892520523	-0.000251755755372118
1.04	-1.67723579038067	0.922341656437877	525.828241637697	-6.44261331089005	36.7475321920699	0.17720044352106	-0.221115889364153	0.000637238908696269	-0.000189383502596063
1.05	-1.7017279358605	0.909763321346967	525.976195816925	-6.41773486820549	36.7934447397129	0.178504260156657	-0.221397276806344	0.000687878937606023	-0.000121379717915593
1.06	-1.72228608815952	0.902937451951313	526.141890809635	-6.39507649421124	36.8445045851998	0.180476829660543	-0.222797633879951	0.000734704375719875	-4.59574507691851e-05
1.07	-1.74372307113534	0.902062561184625	526.304803476907	-6.37718169186784	36.8980146670325	0.183002369296879	-0.225144323895062	0.000772421878552421	3.44973789211389e-05
1.08	-1.77026662299443	0.906859438968248	526.44542672557	-6.3663231760739	36.9490970583852	0.185816088858374	-0.228086226896582	0.000796276832267018	0.000113317723277329
1.09	-1.80339333173988	0.916944776546926	526.548498784955	-6.36385277617026	36.9917118172834	0.188468458920227	-0.231114405310471	0.000803354878514684	0.000181061422479978
1.1	-1.84050091731351	0.932018358660234	526.605203961247	-6.36983352008355	37.0202427449962	0.190391723356939	-0.233662155719298	0.000793326420424179	0.000228230693042342
1.11	-1.87496376467123	0.951784663574375	526.614027288918	-6.38309694381001	37.0311731971217	0.191055971974895	-0.235258074193346	0.000768358187659413	0.000248341303472011
1.12	-1.89766067633446	0.975671158078427	526.580304842929	-6.4016993996765	37.0243116048838	0.190156070657688	-0.235675567727597	0.000732243057105952	0.000240310150749601
1.13	-1.89957484324153	1.00252527603486	526.514811165812	-6.42359169524156	37.0031490955868	0.187749019602574	-0.235015657594563	0.000689105934153167	0.000209323603826916
1.14	-1.87470040373561	1.03051067514778	526.43187479767	-6.44723194769622	36.9742015598018	0.18427476623523	-0.233681456872749	0.000642205349851932	0.000165841422826996
1.15	-1.82235943190834	1.05735411586629	526.347468273688	-6.4718977037009	36.9455133726597	0.18043760904236	-0.232244241274083	0.000593299953840387	0.000123012999009131
1.16	-1.74817870953677	1.08093932313221	526.277510534307	-6.49758171145771	36.9247670129463	0.176981866471731	-0.231245134005535	0.000542802964107469	9.33165637424516e-05
