Time [s]	GRFml [N]	GRFap [N]	GRFv [N]	Mml [N.m]	Map [N.m]	Mv [N.m]	Mfree [N.m]	COPml [m]	COPap [m]
0.01	5.30517299003033	7.53089754956578	697.633705471434	-46.304414324308	6.20487029430819	0.597845712457632	0.882732212126454	0.000294540740323859	0.00273638752049971
0.02	6.00774389509518	7.36207889632051	697.064027566155	-46.2372023926552	6.17136152924282	0.449950919743087	0.78304421527014	0.000254640978606467	0.00270095198796906
0.03	6.69733862061991	7.19505714496392	696.505358073839	-46.1641796705128	6.13849678417667	0.305123097589992	0.685413052300694	0.000215665325158848	0.00265561858579366
0.04	7.36193347495736	7.03139399546708	695.96876596938	-46.0809608102112	6.10679629524178	0.16623309523141	0.591822423579405	0.000178215756645454	0.00259289838893398
0.05	7.99039702593796	6.87245904806112	695.464741474024	-45.9832973653671	6.07673024906185	0.0359622141094056	0.504115572295785	0.000142825058194703	0.00250559171944667
0.06	8.57291339489945	6.71939333968059	695.002794429262	-45.8673322096587	6.04870005266718	-0.0833042244384613	0.423925739731636	0.000109935272486667	0.00238719102596223
0.07	9.10134034718782	6.57308128300608	694.59109546928	-45.7298249360025	6.02302294406055	-0.189568420165263	0.352618555947585	7.98804240233712e-05	0.00223223508685645
0.08	9.56948458010067	6.43413194629714	694.236176178779	-45.5683344318882	5.99992073627903	-0.281292221061534	0.291248248981547	5.2874557646139e-05	0.00203659424831061
0.09	9.97328160998875	6.30287043169914	693.94270088144	-45.3813488129045	5.97951324722021	-0.357446570974082	0.240528622785891	2.90058368596479e-05	0.00179767256034777
0.1	10.3108733282452	6.1793398626064	693.713318744461	-45.168357255006	5.96181670014836	-0.417536416949999	0.200818974603783	8.23708289616858e-06	0.00151451917454375
0.11	10.5825822423142	6.06331417310151	693.548600774986	-44.929862621631	5.94674710271086	-0.461600667022989	0.172124515917475	-9.58727113900895e-06	0.00118784770578212
0.12	10.7907872454112	5.95432151312857	693.447062255695	-44.6673378162958	5.9341283417623	-0.49018819026784	0.154110407372109	-2.47282497725827e-05	0.000819968043149572
0.13	10.939711092581	5.85167765970207	693.40526740385	-44.3831322526727	5.92370448222444	-0.504312115709435	0.146128173636687	-3.75342496913202e-05	0.000414640036270592
0.14	11.0351342756042	5.75452838079096	693.418009677275	-44.0803375415112	5.91515554363765	-0.505385744835461	0.147252980231511	-4.8418939563118e-05	-2.31376082271556e-05
0.15	11.0840534302546	5.661899261207	693.478558283008	-43.7626233388231	5.90811585870896	-0.495144192825881	0.156329992766505	-5.78365149951771e-05	-0.000487387121793886
0.16	11.0943046066176	5.57275109608491	693.578959121343	-43.4340552446551	5.9021940020874	-0.475556385695529	0.172027782581041	-6.62558034133457e-05	-0.000971442488058874
0.17	11.0741726088172	5.48603861327424	693.710376640383	-43.0989067133776	5.89699321990208	-0.448732254701041	0.192896498460821	-7.41347296285399e-05	-0.00146825320370245
0.18	11.0320071788465	5.40077002438874	693.863461882966	-42.7614762176764	5.89213129324287	-0.416829895511298	0.217428319575156	-8.18965656201841e-05	-0.00197068361800946
0.19	10.9758651602459	5.31606474492409	694.028731365494	-42.4259195271772	5.88725883048083	-0.38196712487422	0.24411757951965	-8.99092113842929e-05	-0.00247179216737089
0.2	10.9131951048235	5.23120658191265	694.196941318385	-42.0961050787254	5.88207509964801	-0.346141312833375	0.271517945331607	-9.84685068179669e-05	-0.00296507731281474
0.21	10.8505773107175	5.14568977320604	694.359442223026	-41.7754982067107	5.87634067551375	-0.311160645018444	0.298294177963814	-0.000107786279776397	-0.00344468007400509
0.22	10.7935282724198	5.05925548031664	694.508499485443	-41.4670776505585	5.86988637627482	-0.278589134130835	0.323266302584481	-0.000117983515718541	-0.00390553648979564
0.23	10.7463742701203	4.97191668541395	694.637567479615	-41.1732854357453	5.86261818947677	-0.249706811182592	0.345444466353496	-0.000129088712014964	-0.00434347687010895
0.24	10.7121946110038	4.88396991463433	694.741506057714	-40.8960090872998	5.8545181219781	-0.225485641831896	0.364053324860755	-0.000141041175259744	-0.0047552720923638
0.25	10.692831120722	4.79599278947638	694.816730935928	-40.6365933043471	5.84564113994006	-0.206580882125944	0.378545427224112	-0.00015369875010824	-0.00513863022251725
0.26	10.688957092037	4.70882707378542	694.861292080901	-40.3958767893021	5.83610857787993	-0.193336853476788	0.388603707288302	-0.000166849246963103	-0.00549214923650433
0.27	10.7001962008268	4.62354760681268	694.874877277639	-40.1742489362333	5.82609857810101	-0.185805510682505	0.394133779067898	-0.000180224672905462	-0.00581523347038194
0.28	10.7252800086127	4.54141825787117	694.858741360056	-39.971720552487	5.8158342629859	-0.183775719694237	0.395247232297028	-0.000193517270973302	-0.00610798258701411
0.29	10.7622316338176	4.46383676483585	694.815565004556	-39.7880026942646	5.80557043543962	-0.18681086242574	0.39223749701461	-0.000206396338302099	-0.00637106232389843
0.3	10.8085629780211	4.39227098342311	694.749250370784	-39.6225879901097	5.79557964341945	-0.194292242131533	0.385550079772613	-0.000218524820862952	-0.00660556614255679
0.31	10.8614734703911	4.32818963221817	694.664664044972	-39.4748294343987	5.78613843284882	-0.205465763265593	0.375749069806475	-0.000229574765248212	-0.00681287623539132
0.32	10.9180395298368	4.27299102738688	694.567340511217	-39.3440124709542	5.77751455262022	-0.219489485430763	0.363481786067438	-0.000239240837215857	-0.00699453128528854
0.33	10.9753856939867	4.22793352423241	694.463161557188	-39.2294171649391	5.76995577222129	-0.23547987819827	0.349443308877036	-0.000247251281810837	-0.00715210704933893
0.34	11.0308304613432	4.19407139298208	694.358028443371	-39.1303682921719	5.76368083552986	-0.252554905841704	0.334342440586089	-0.000253375889256915	-0.00728711437878754
0.35	11.0820021668691	4.17219963902147	694.257544193484	-39.0462721811009	5.75887291386685	-0.269872421795506	0.318870395159043	-0.000257430732771182	-0.00740091780556316
0.36	11.1269224978484	4.16281083443418	694.166722911946	-38.9766400601797	5.75567574857582	-0.286662727058898	0.303673250753486	-0.000259279647778833	-0.0074946764124093
0.37	11.1640574100238	4.16606637652092	694.089741578144	-38.9210984457238	5.75419249925713	-0.302254523164994	0.289328930571057	-0.000258832616338543	-0.00756930742481676
0.38	11.1923371036868	4.18178376553812	694.029747352286	-38.8793877241802	5.75448714861272	-0.316093851163397	0.276329218236164	-0.000256041396660158	-0.00762547186000856
0.39	11.211148276993	4.20944054933639	693.988730171383	-38.8513505274412	5.75658816761597	-0.327755940216452	0.26506707223184	-0.000250892887373949	-0.00766358066057158
0.4	11.2203030345994	4.24819458019248	693.967466501741	-38.8369117752456	5.76049402265203	-0.336950184099432	0.255829282983602	-0.000243400833055388	-0.00768381902983124
0.41	11.2199895726131	4.29691923957351	693.965535788284	-38.8360523820227	5.76618001466803	-0.343518716139574	0.248794316950637	-0.000233596556351457	-0.00768618616217006
0.42	11.2107100952805	4.35425138201515	693.981406683871	-38.8487786225256	5.77360588248888	-0.347429260949524	0.244035014318244	-0.000221519439635935	-0.00767054720626894
0.43	11.1932113801785	4.41864899712424	694.012585855176	-38.8750890516015	5.78272357957737	-0.348763104794345	0.241525650368439	-0.000207207874221573	-0.00763669409173122
0.44	11.1684130519103	4.48845504544895	694.055818342971	-38.9149407097933	5.79348464510706	-0.347699146791602	0.241152735960629	-0.000190691348782659	-0.00758441176900314
0.45	11.1373380173922	4.56196363000454	694.107325372635	-38.9682161472534	5.80584663413335	-0.344495071925031	0.242728821643573	-0.000171984264059611	-0.00751354644050926
0.46	11.1010487327529	4.63748464108474	694.163063383587	-39.0346925882675	5.8197781444153	-0.33946672539097	0.246008485818054	-0.000151081943521276	-0.00742407248236308
0.47	11.0605920864998	4.71340325622965	694.218987024046	-39.1140143559817	5.83526207451493	-0.332966767017627	0.250705633960312	-0.000127959166623889	-0.00731615495919766
0.48	11.016954764367	4.78823116675345	694.27129900971	-39.2056694933381	5.85229686382641	-0.325363645051153	0.256511217200153	-0.000102571391074693	-0.00719020491077382
0.49	10.971030067298	4.86064709452669	694.316671055353	-39.3089713566234	5.87089559421311	-0.317021851299821	0.263110497783098	-7.48586622069565e-05	-0.00704692493118647
0.5	10.9235963328326	4.92952499998646	694.352422456579	-39.4230458212558	5.89108296859458	-0.308284306060161	0.270199047765001	-4.47520403708841e-05	-0.00688734296360918
0.51	10.8753063967305	4.99394929715923	694.37664614807	-39.546824619561	5.91289031752792	-0.299457574453213	0.277496764938656	-1.21822198012461e-05	-0.00671283268908178
0.52	10.826686948794	5.05321731296084	694.388275955247	-39.6790452182398	5.9363489139084	-0.290800440802279	0.284759322846645	2.29101275903282e-05	-0.00652511938888142
0.53	10.7781461965291	5.10683008813716	694.387093004054	-39.818257528526	5.96148199186846	-0.282516171787958	0.291786633162366	6.05628662542126e-05	-0.00632627069631211
0.54	10.7299879554622	5.15447335619632	694.373673551399	-39.9628376144929	5.98829596267821	-0.274748591824943	0.298428079380329	0.000100780439096426	-0.00611867221245153
0.55	10.6824301315493	5.19599110739342	694.349284538949	-40.1110084162293	6.01677139249923	-0.267581886650892	0.30458446929289	0.000143522163078494	-0.00590498852605181
0.56	10.6356255399208	5.23135451536755	694.315736670126	-40.260867329304	6.04685434970596	-0.261043855627661	0.310206837804565	0.000188691524533014	-0.00568811073276596
0.57	10.5896831022667	5.26062915885069	694.275207522212	-40.4104202785528	6.0784487398259	-0.255112161648907	0.315292399150797	0.00023612720552443	-0.00547109207409983
0.58	10.5446876668476	5.2839434103581	694.230048950582	-40.5576216954095	6.11141022202716	-0.249722990322934	0.319878087944818	0.000285596521776718	-0.00525707379247765
0.59	10.5007169826189	5.30146060264555	694.182593711691	-40.7004195606351	6.14554224215132	-0.244781435186793	0.32403223365794	0.000336791866486283	-0.00504920370674974
0.6	10.4578547123666	5.31335714859399	694.134975796868	-40.8368044189589	6.18059462492577	-0.240172877580961	0.327844978472466	0.000389330634181093	-0.00485055033534056
0.61	10.4161987670985	5.3198082167601	694.088977483034	-40.9648610225223	6.21626504536528	-0.235774629001102	0.331418072920051	0.000442758947289778	-0.00466401561779546
0.62	10.3758646613186	5.32098189505684	694.045913697984	-41.0828210318645	6.25220355145902	-0.231467146824814	0.334854669816535	0.000496559329384047	-0.00449224939902521
0.63	10.3369840010893	5.31704205445842	694.006561162293	-41.1891150133885	6.28802014372274	-0.227144214421031	0.338249690105094	0.000550162269181491	-0.00433756883736919
0.64	10.2996985988194	5.30815940006727	693.971136153117	-41.2824218376005	6.32329524030053	-0.222721584410898	0.341681261655759	0.000602961406502114	-0.0042018857752372
0.65	10.2641510370213	5.29452951427516	693.939320916133	-41.3617135185219	6.35759267848594	-0.218143708604721	0.345203642009614	0.000654331855755108	-0.0040866448713533
0.66	10.2304727578824	5.27639609915999	693.910335020608	-41.4262935547228	6.39047473507533	-0.213388309287875	0.348841936391012	0.000703650976284394	-0.00399277494254854
0.67	10.1987709216307	5.25407715092026	693.883044589345	-41.4758269459209	6.42151849940581	-0.208468674742723	0.352588819727731	0.000750320715240138	-0.00392065551086308
0.68	10.1691153459815	5.22799147955591	693.85609958878	-41.5103602707467	6.45033281442498	-0.203433680035435	0.356403370812919	0.000793790500927942	-0.00387010001282349
0.69	10.1415268101074	5.19868284509545	693.828087433465	-41.5303305198787	6.476574921747	-0.198365637685264	0.360212031051108	0.000833579565166666	-0.00384035652069208
0.7	10.1159678852704	5.16683903024159	693.79769017688	-41.536561776452	6.4999659136175	-0.193376170021579	0.36391161068505	0.000869297532206317	-0.00383012617279005
0.71	10.0923372524786	5.13330340978994	693.763832584359	-41.5302493075506	6.52030411280937	-0.188600366135286	0.367374182112034	0.000900662136101037	-0.003837598837874
0.72	10.0704682024314	5.09907699894013	693.725809391415	-41.5129311549996	6.53747557246521	-0.184189543032052	0.370453622625243	0.000927513020896538	-0.00386050487614539
0.73	10.0501317053425	5.0653095429562	693.683381941325	-41.4864478629653	6.55146101018722	-0.180302975029672	0.372993497820085	0.000949820736811805	-0.00389618123773187
0.74	10.03104411059	5.033278915527	693.636836999903	-41.4528915221935	6.5623386591538	-0.177098989337896	0.374835913125213	0.000967690264336787	-0.00394164958940432
0.75	10.0128792112862	5.00435887893446	693.587003638733	-41.4145458123053	6.57028272525582	-0.174725849815634	0.375830906820853	0.000981358665994067	-0.00399370371080814
0.76	9.99528410796414	4.97997607487353	693.535227401552	-41.3738191516243	6.57555737177806	-0.173312864507984	0.375845916979358	0.000991186767795879	-0.00404900307698439
0.77	9.97789804688333	4.96155790565821	693.483304249906	-41.3331733896824	6.57850639830527	-0.172962153885379	0.374774831167858	0.000997645091672369	-0.00410416936193142
0.78	9.96037320604757	4.95047367665891	693.433379762382	-41.2950506788038	6.57953902323725	-0.173741503068679	0.372546125662589	0.00100129457715304	-0.00415588256704544
0.79	9.94239626521124	4.94797195119938	693.387821508465	-41.2618012249639	6.57911240418372	-0.175678689850115	0.369129623756415	0.00100276292575875	-0.00420097359710363
0.8	9.92370952920484	4.95511747583569	693.349074256907	-41.2356145417659	6.57771172304016	-0.178757628666452	0.364541452439732	0.00100271765628824	-0.004236510363494
0.81	9.90413037643597	4.97273123542402	693.319508599314	-41.2184566227475	6.57582881011026	-0.182916597765746	0.35884685321675	0.00100183715711005	-0.00425987486898735
0.82	9.88356787208091	5.0013371761274	693.30127363563	-41.2120151237769	6.57394037448768	-0.188048723407906	0.35216060367142	0.00100078114974775	-0.00426882919273033
0.83	9.86203551101236	5.04111888835451	693.29616361726	-41.2176542342211	6.57248693986524	-0.194004784038689	0.344644926879793	0.00100016202780767	-0.00426156881625981
0.84	9.83965922979471	5.09188908390192	693.305506981572	-41.2363804430569	6.57185355380859	-0.20059827422145	0.336504899113868	0.0010005185028454	-0.00423676227796139
0.85	9.81668004012799	5.15307406005634	693.330084200042	-41.268819906491	6.5723532462024	-0.207612539921259	0.327981504268122	0.00100229287539077	-0.00419357668307846
0.86	9.79345087782839	5.22371455822225	693.370078500698	-41.3152076284451	6.57421406478334	-0.214809672128157	0.319342617109681	0.00100581306131219	-0.00413168910186385
0.87	9.77042752208597	5.3024835453554	693.42506103026	-41.3753882027217	6.57757032148815	-0.221940733984531	0.310872317944243	0.00101128025174772	-0.00405128433823129
0.88	9.74815371025165	5.38772052869103	693.494009604449	-41.4488274589099	6.58245845444688	-0.228756806401641	0.302859040630713	0.00101876278343934	-0.00395303993019591
0.89	9.72724084528373	5.47748111574174	693.575358043977	-41.5346340200251	6.58881766027502	-0.235020276174949	0.295583127673787	0.00102819646271075	-0.00383809954269777
0.9	9.70834295807155	5.56959970834516	693.667071356008	-41.6315895286836	6.59649519415894	-0.240515764278957	0.289304406052445	0.00103939123941483	-0.00370803612998353
0.91	9.69212783695491	5.66176252212944	693.766740792796	-41.7381861339693	6.60525598540354	-0.245060103075504	0.284250403496348	0.00105204378638529	-0.00356480638030267
0.92	9.67924546328398	5.75158759255969	693.871692141729	-41.8526697507366	6.61479598720341	-0.248510819374958	0.280605797381539	0.00106575522416637	-0.00341069801585864
0.93	9.67029508564098	5.83670809533679	693.979100461818	-41.9730875995676	6.6247584836544	-0.250772662551288	0.278503629578188	0.00108005295751345	-0.00324827151440613
0.94	9.66579241665628	5.91485518827996	694.086104822084	-42.0973385975139	6.63475242486324	-0.251801827673851	0.278018734326726	0.0010944153745201	-0.00308029775669441
0.95	9.66613853518985	5.98393667549307	694.189917324357	-42.2232252827187	6.64437176066532	-0.25160765547613	0.279163717528525	0.00110829801346361	-0.00290969299915933
0.96	9.67159211313014	6.04210809020719	694.287921693099	-42.3485061037266	6.65321470066201	-0.250251735362151	0.281887700382197	0.00112115973532258	-0.00273945243842338
0.97	9.68224655093645	6.0878332653827	694.377757868949	-42.4709470696499	6.66090184601637	-0.247844485461169	0.286077904140958	0.00113248745622135	-0.00257258348885946
0.98	9.69801349136281	6.1199320760159	694.457390239045	-42.5883719235837	6.66709221667632	-0.244539425919731	0.29156401221655	0.00114181809429945	-0.00241203975258866
0.99	9.7186139807766	6.13761375198488	694.525158282197	-42.6987101533805	6.67149633319688	-0.240525489605902	0.298125107387441	0.00114875656559575	-0.00226065653802007
1	9.74357825974437	6.14049492897459	694.579809430761	-42.8000422782283	6.67388569855057	-0.2360178205472	0.305498852057943	0.00115298891466386	-0.00212108869169086
1.01	9.77225479163461	6.12860238038422	694.620514809536	-42.8906419370328	6.67409825241895	-0.231247588410055	0.313392464880004	0.00115428997438553	-0.0019957514587426
1.02	9.80382868898378	6.10236110993167	694.646869184798	-42.9690143502699	6.67203962561529	-0.226451392566189	0.321494953782146	0.00115252529823679	-0.0018867650852676
1.03	9.83734918934533	6.06256914218873	694.658876942189	-43.0339307305197	6.66768029020735	-0.221860839295157	0.329489999036197	0.00114764747610254	-0.00179590392060895
1.04	9.87176529097811	6.01036089230696	694.656926222596	-43.0844581832018	6.66104896464664	-0.217692850314435	0.337068844791762	0.00113968730836011	-0.00172455086265116
1.05	9.90596811784891	5.94716140070734	694.64175350006	-43.1199845780458	6.65222287520581	-0.214141202397573	0.343942556364552	0.00112874064820367	-0.00167365810069227
1.06	9.93883808306884	5.87463396689244	694.614400908723	-43.1402377979241	6.64131567831519	-0.211369710868806	0.349853034507753	0.00111495200563962	-0.00164371522908298
1.07	9.96929450305907	5.79462380241843	694.576168541371	-43.1452987026549	6.62846399789482	-0.20950736062909	0.354582245957705	0.00109849621731038	-0.00163472590617231
1.08	9.9963450230894	5.70910025067267	694.528563774695	-43.1356071008898	6.61381361561109	-0.208645564742818	0.357959228698847	0.00107955960760448	-0.00164619429038892
1.09	10.0191320837983	5.6200999050957	694.473249449702	-43.1119600227178	6.59750636261151	-0.208837600800244	0.359864555613449	0.00105832208755688	-0.00167712247192726
1.1	10.0369737124207	5.52967262202456	694.41199247274	-43.0755016462565	6.57966869644841	-0.210100147523533	0.360232084650005	0.00103494155517436	-0.00172602001135394
1.11	10.0493961714395	5.4398320013419	694.34661412497	-43.0277043656797	6.56040281013061	-0.212416725959804	0.359047979106767	0.00100954177831987	-0.00179092647899395
1.12	10.0561564336376	5.35251143476201	694.278943095744	-42.9703407016711	6.53978092087804	-0.215742747403985	0.356347138905148	0.000982204671426139	-0.0018694475541404
1.13	10.0572530505427	5.26952633717275	694.210772005095	-42.9054460459797	6.51784313875543	-0.220011788580416	0.352207333340006	0.000952967539587634	-0.00195880479532428
1.14	10.0529246991152	5.1925427190723	694.143817965504	-42.8352725888092	6.49459903855628	-0.225142656456164	0.346741458616999	0.000921825483166147	-0.0020558986487318
1.15	10.0436364745296	5.12305186148177	694.079687561424	-42.7622351821939	6.47003277320157	-0.231046771544665	0.340088451379638	0.000888738761591129	-0.00215738364978291
1.16	10.0300547828028	5.06235054542022	694.019846498993	-42.6888503184797	6.44411129522777	-0.237635389509525	0.332403465747954	0.000853644536140117	-0.00225975413117746
1.17	10.0130124122692	5.01152608383179	693.965594094506	-42.6176698200373	6.41679501511028	-0.244826195217971	0.323847961367727	0.000816472076164592	-0.002359438124372
