Time [s]	GRFml [N]	GRFap [N]	GRFv [N]	Mml [N.m]	Map [N.m]	Mv [N.m]	Mfree [N.m]	COPml [m]	COPap [m]
0.01	-1.539860192821	1.16307114223367	532.049495471144	-2.080897802056	-4.65767788350418	0.665233607901118	-0.64899826750889	-0.000997415128205059	0.00307151927157273
0.02	-1.59558303541342	1.33483533379692	531.84594925135	-2.09308087266252	-4.51659637176694	0.689337510580999	-0.671848570296423	-0.00101996062171339	0.00333020531211531
0.03	-1.6583546510055	1.48908667535927	531.676820030971	-2.10048854935194	-4.38032906691177	0.708533330343004	-0.689908899446907	-0.00103331169135523	0.00358048060296023
0.04	-1.729188004877	1.60903835223126	531.565879032918	-2.10025890915392	-4.25344315050791	0.719503728849141	-0.699982984567659	-0.00103194931643891	0.00381421129764081
0.05	-1.80513782993032	1.68146172004697	531.52100620073	-2.09161504291578	-4.13775821245637	0.721226622835637	-0.701152759110682	-0.0010143850958344	0.00402814406925972
0.06	-1.88109168092731	1.69903752010766	531.532780207811	-2.0758182812657	-4.03180806018842	0.715074238645351	-0.694856564633241	-0.00098307673860043	0.00422489641851781
0.07	-1.9531620963195	1.66234778095482	531.578554737549	-2.05541357790685	-3.93131744508563	0.70413728720344	-0.684191342159672	-0.000942972961607724	0.00441213428942339
0.08	-2.0220914160521	1.58065815346292	531.630520094326	-2.03307984990707	-3.83051378351758	0.692057181118434	-0.672731865305837	-0.00089929038263914	0.00460024465539832
0.09	-2.09485169002407	1.47080925011273	531.665038444135	-2.01053639310784	-3.72385639215263	0.681804899622272	-0.663314734989873	-0.000855393055365528	0.00479923741568128
0.1	-2.18325096741105	1.35407739289807	531.670372204446	-1.98791369958794	-3.60767432094197	0.674828533364448	-0.657212413411184	-0.000811563728817188	0.00501578330627694
0.11	-2.2996055949183	1.25156615299872	531.65068972163	-1.96380216716279	-3.4812657159925	0.670825354519802	-0.653948139868899	-0.000765081166341997	0.00525119632874071
0.12	-2.4508897300241	1.17927526139038	531.625467629773	-1.93592767878459	-3.34718774017381	0.668152732552011	-0.651753893193864	-0.000711509275568956	0.00550086410157807
0.13	-2.63364556016994	1.14423388829889	531.624595263141	-1.90217137853728	-3.2106946632766	0.664668237988316	-0.648446560832107	-0.000646658815794399	0.00575522253575544
0.14	-2.83192322661602	1.14287731024446	531.680313300639	-1.86153836556177	-3.07849873390923	0.658659899406967	-0.642370597691198	-0.000568465803277962	0.00600197556048493
0.15	-3.01956122966192	1.16224295314917	531.817577197756	-1.81472508604406	-2.95718239384796	0.649528960106144	-0.633064126674362	-0.000478115037876203	0.00622897210571588
0.16	-3.16654493696567	1.18375152576223	532.04470164691	-1.76411360033928	-2.85165200051408	0.638006409441931	-0.621433876878495	-0.000380074776044736	0.00642703035611725
0.17	-3.24758515116423	1.18857708115483	532.346348242326	-1.71325442267156	-2.76398891094433	0.625868015275877	-0.609416168015958	-0.000281150259036633	0.00659205562381993
0.18	-3.25006774316606	1.16313336008747	532.680977824726	-1.66608910458805	-2.69294219270255	0.615290394597892	-0.599283217487353	-0.000189022190983157	0.00672600121549061
0.19	-3.17855676715282	1.10315472127238	532.984503321159	-1.62623278876779	-2.63415033021533	0.608102064993379	-0.592864127814587	-0.000110868479157533	0.00683651082074632
0.2	-3.05412783226537	1.01523491754822	533.180752623666	-1.5965654041882	-2.58101297969213	0.60519725339642	-0.590957312175906	-5.25371198610847e-05	0.00693538602585425
0.21	-2.90860001834924	0.915384202949507	533.197492022488	-1.57921000449094	-2.5259919325615	0.606301982081565	-0.593123534716568	-1.84246699519441e-05	0.00703627818640629
0.22	-2.77557153689183	0.824972302477256	532.984659926948	-1.57578913232056	-2.46203181821774	0.610147124582549	-0.597904886789155	-1.18695571845739e-05	0.00715215776570921
0.23	-2.68134305919634	0.76512450371794	532.529981173175	-1.58772694887215	-2.383776290362	0.614961751671737	-0.603367978359692	-3.56434361005187e-05	0.00729313335515336
0.24	-2.63884923471827	0.751056790121626	531.867109205493	-1.61635485890114	-2.28832104720245	0.619099063830207	-0.607768165257152	-9.21050529668621e-05	0.00746507115442563
0.25	-2.6465590226683	0.787876367165492	531.073196721278	-1.66268103384632	-2.17537713903439	0.621576142842638	-0.61010538233789	-0.000182767455717991	0.00766923289014793
0.26	-2.69237933555609	0.869024645974154	530.25585775689	-1.72685444521137	-2.04688067065016	0.622352424005773	-0.610394007893919	-0.00030733784367809	0.00790287027068165
0.27	-2.76067228536055	0.977871786709462	529.532747025321	-1.80752077459449	-1.90622862942382	0.622270403280536	-0.609576275496918	-0.000462590722126954	0.00816047129577857
0.28	-2.8393691726889	1.09213178130299	529.009201109042	-1.90135964760842	-1.7574000311603	0.622699152337817	-0.609131462770245	-0.000641599893321798	0.00843522217717263
0.29	-2.92430517451383	1.18996073350408	528.75976193056	-2.00306457312297	-1.60421576324807	0.62501667669499	-0.610529457326503	-0.000833800024931719	0.00872026068110993
0.3	-3.01922909766715	1.25605635922012	528.817912093036	-2.10587912291478	-1.4499111285211	0.630111250149873	-0.614717588249523	-0.00102607411112676	0.00900942987894604
0.31	-3.13185987581309	1.28598096334254	529.175665672827	-2.20258784228078	-1.29707810108889	0.638064296932152	-0.621805427320354	-0.00120466531716779	0.00929743421445722
0.32	-3.26801482369325	1.28735882422766	529.791760529376	-2.28666802568866	-1.14792004737199	0.648108818905164	-0.631037146398582	-0.00135735688349403	0.00957948637610379
0.33	-3.4265225265735	1.27746834859421	530.604961362134	-2.35322936923301	-1.00467784115469	0.658863572807927	-0.641043334946709	-0.00147522100568953	0.00985067075315699
0.34	-3.59712221827544	1.27782100146052	531.547927499207	-2.39944873574753	-0.870043933972653	0.668755410181828	-0.650276333233984	-0.00155339359083295	0.0101053218518432
0.35	-3.76215618665975	1.30726505746776	532.557386372467	-2.42441880940382	-0.747381931069267	0.676487232881711	-0.657481394450658	-0.0015907336486527	0.0103367208576817
0.36	-3.90125795075806	1.37566287841443	533.577873527183	-2.42857676433061	-0.640614534166376	0.68140200946828	-0.662053655876326	-0.00158869292470698	0.0105373452457703
0.37	-3.99712075721573	1.48008303388507	534.558708677848	-2.41304426946282	-0.553731641108594	0.683633989285959	-0.664175638007	-0.00155002959297068	0.0106997606158638
0.38	-4.04019669569716	1.60473579330315	535.446556589795	-2.37921326868392	-0.489991429837344	0.684011576074817	-0.664705323388126	-0.00147799859292852	0.0108180363321546
0.39	-4.03079587537285	1.72477079111168	536.177996810662	-2.32875316464687	-0.451010081189057	0.683757358883869	-0.664865573888549	-0.00137634316315083	0.0108893489768369
0.4	-3.97815293987327	1.81288739551305	536.677089072028	-2.26397484473546	-0.436014929398552	0.684093051287553	-0.665845886416268	-0.00124995356009039	0.0109152924401148
0.41	-3.89711041873536	1.84684250406083	536.861451419632	-2.18828498567113	-0.441528743629687	0.685881334614226	-0.668449096680475	-0.00110567939519057	0.0109024200904305
0.42	-3.80374987309414	1.81564854441278	536.657134406972	-2.10639861921404	-0.461644097862132	0.689416815992456	-0.672893518983639	-0.000952667858428624	0.0108617342013977
0.43	-3.71143067749557	1.72263452842614	536.018714684889	-2.02407868447787	-0.488863547423548	0.694422725752787	-0.678823903763284	-0.000801803630798958	0.0108071641008564
0.44	-3.62834635456838	1.58448670798316	534.948161280775	-1.94738772652147	-0.515288874554149	0.70023771170603	-0.685511778710132	-0.000664245484727877	0.0107534200666831
0.45	-3.55708554179844	1.42660464694947	533.505511687269	-1.88166660656973	-0.533818875204242	0.706112119768024	-0.692161155191574	-0.000549489747670662	0.01071383303641
0.46	-3.49602153060318	1.27621985884434	531.806648306134	-1.83059411840633	-0.539015107110566	0.7114971619408	-0.698200787637865	-0.000463643309109307	0.0106987896019311
0.47	-3.44184206141785	1.15537167891745	530.007690192119	-1.79567030729848	-0.527423094559988	0.716215827503631	-0.703451403889682	-0.000408549635742217	0.0107151389410517
0.48	-3.3922908889758	1.07581371396868	528.280025159725	-1.77631181695272	-0.497341191916721	0.720449830929482	-0.708103714589604	-0.000382100663615992	0.0107665774959716
0.49	-3.34826324252478	1.03725479885599	526.782996821611	-1.77051472446694	-0.448225493069468	0.724546702612823	-0.712514397237818	-0.000379616578342179	0.010854664640113
0.5	-3.3147250073079	1.02925911155519	525.641613546611	-1.77582267083935	-0.380027693285131	0.728720709284861	-0.716897497271733	-0.000395766311449441	0.010979933225396
0.51	-3.3003695096555	1.03600516025407	524.934390929989	-1.79022073814999	-0.29274729434243	0.732765870332816	-0.721032759462277	-0.000426294112213399	0.0111425979920688
0.52	-3.31630185339263	1.04228830645748	524.692657581114	-1.81260390182594	-0.186360466881897	0.73590281302173	-0.72411435126788	-0.000468891433853647	0.0113425917210406
0.53	-3.3742029190051	1.03887311162417	524.908921598542	-1.84263333523851	-0.0611268785858493	0.736841503641651	-0.724821705938564	-0.000522881582875723	0.011578956844812
0.54	-3.48434671293568	1.02559813441989	525.549568207355	-1.88003378467583	0.081858641967875	0.734071335066322	-0.721621781922836	-0.000587845446566759	0.0118488605309662
0.55	-3.65364041358806	1.01137023054632	526.566853979446	-1.92361128812658	0.240067162474379	0.72631130584595	-0.713232083604956	-0.000661738772817944	0.0121466041129321
0.56	-3.88371566356415	1.01111414611922	527.906633366506	-1.97039742897699	0.409076075560227	0.712992067613226	-0.699112524301638	-0.000739276888105045	0.0124629564887791
0.57	-4.1691604252882	1.0405998890111	529.510643997472	-2.01530532288522	0.582374011127894	0.694619517353778	-0.679832686348251	-0.00081130611141611	0.012785006762194
0.58	-4.49622507450128	1.11063725125073	531.31446211264	-2.05152026016044	0.751479092974049	0.672895090620838	-0.657187815373938	-0.000865562509954954	0.0130965765706412
0.59	-4.84258571413661	1.22227941290502	533.243622487759	-2.07160319624534	0.906358582845323	0.650533378244923	-0.634004174504299	-0.000888754288737248	0.0133791182620517
0.6	-5.17877113372339	1.36440231301317	535.210550791113	-2.06904501324339	1.03610750001187	0.630801510448232	-0.613660243081376	-0.000869458919059651	0.0136129815249366
0.61	-5.47152985416026	1.51441410370759	537.114070620831	-2.0398545360167	1.12984076654091	0.616880046719469	-0.599427322929382	-0.000801048959716777	0.013778951282281
0.62	-5.6888041450568	1.64206459374918	538.84190952934	-1.98373962382559	1.17775932403479	0.611190776765093	-0.593779725568789	-0.00068383121776594	0.0138600034327768
0.63	-5.80533763868329	1.71556173973865	540.275563592691	-1.9045471969392	1.17233937262325	0.614844434590103	-0.597831937737276	-0.000525793195602753	0.0138432347027707
0.64	-5.80756402688814	1.70863525208737	541.296617249306	-1.80982359407763	1.10954599211505	0.62733444350154	-0.611031526008564	-0.000341716682577986	0.0137218526547219
0.65	-5.6964882170347	1.606935560113	541.794197923307	-1.70957931605821	0.989891844551435	0.646551293549373	-0.631182396325395	-0.000150825163251489	0.0134969621631313
0.66	-5.48776608224201	1.41226653947743	541.67415658945	-1.61453106635979	0.819083615526508	0.669126873795524	-0.654805163544072	2.65291351184693e-05	0.0131787195817538
0.67	-5.20893140307898	1.14359533908738	540.870970465496	-1.53420484157972	0.607978733880572	0.691049738554825	-0.677771441547764	0.00017243562239988	0.0127863536931607
0.68	-4.89445359379354	0.834469968984853	539.3625968289	-1.4752967612933	0.371659067748669	0.708432799819673	-0.69608925018045	0.000274525521083535	0.0123466697733172
0.69	-4.57981798419375	0.527263096118288	537.186554683544	-1.44060880449442	0.127621422577108	0.718277460931391	-0.706680437773232	0.000328010491413844	0.0118909801049558
0.7	-4.29598090380878	0.265379652389718	534.453175745396	-1.42873181036932	-0.106664686922656	0.719073689503594	-0.707988297848837	0.000336320559186754	0.0114508544594428
0.71	-4.06534911989525	0.0850510009923645	531.350537259108	-1.43447923648944	-0.316364252509739	0.711107613388574	-0.700287251839474	0.000310303459558181	0.0110534920487413
0.72	-3.89993734025222	0.00846568820205938	528.136159010496	-1.44992637343901	-0.491486327236715	0.696410385659361	-0.685629539016754	0.000266224800940629	0.0107177141395826
0.73	-3.80170784325773	0.0397103751614973	525.11335439681	-1.46581551074624	-0.628204279819503	0.678359317559418	-0.667441268355646	0.000223000649368865	0.0104514754144281
0.74	-3.76448802677399	0.164367979703377	522.594330794277	-1.47306286646368	-0.729009193286674	0.661016184576703	-0.649853793601399	0.000199168336852629	0.010251425294045
0.75	-3.77650776438476	0.352790978481392	520.856185796256	-1.46413956792627	-0.801699567711682	0.6483415463477	-0.636909890429493	0.000210061779511994	0.0101045518347246
0.76	-3.822650581859	0.56624317548943	520.098327558334	-1.43416941778657	-0.857465388991337	0.643446606355793	-0.631806566231924	0.000265542767595828	0.00999147799700684
0.77	-3.88596727037469	0.764493245189106	520.409783376625	-1.38165647973587	-0.908485868645214	0.648031348140238	-0.636323358487262	0.000368505773681971	0.00989067932989629
0.78	-3.94865440051101	0.913200322568249	521.752597082274	-1.30880001053613	-0.965507024520789	0.662112857074388	-0.650540156776245	0.00051426952140099	0.00978279556414352
0.79	-3.99321013591608	0.989603807653957	523.964069727613	-1.22136818569491	-1.03581978843637	0.684081569479234	-0.672882709305803	0.000690911176620124	0.00965428019133968
0.8	-4.00452285763224	0.985545214981017	526.777164982813	-1.12810406572585	-1.12196218857523	0.711051659158807	-0.700463095159547	0.000880565619920115	0.00949979994327121
0.81	-3.97311031946746	0.907543267717969	529.855778678237	-1.03965847176596	-1.2213525681874	0.739412255940486	-0.72962382785534	0.00106165458836172	0.00932300151656978
0.82	-3.89881171953914	0.774309165564341	532.839909828983	-0.967108180398522	-1.32693405697818	0.765452624125744	-0.756561446639569	0.00121188899439295	0.00913548746557324
0.83	-3.7934095471574	0.612549928293467	535.394745177708	-0.920220935285905	-1.42876509595588	0.785933328139314	-0.777904395869535	0.00131170561795824	0.00895410091474291
0.84	-3.68043948238612	0.452070761082811	537.25693827705	-0.905736978336401	-1.51632024824764	0.798504476540339	-0.791147918321059	0.00134761350129364	0.0087969215719178
0.85	-3.59112104601172	0.321067916893541	538.270978023482	-0.925999278509665	-1.58108676622344	0.801921616765033	-0.794895798515401	0.0013148233843383	0.00867869505603347
0.86	-3.55676525783513	0.24221016237313	538.409022647131	-0.978240465713807	-1.618903980736	0.796065333649887	-0.788911208609841	0.00121858764248628	0.00860666933256743
0.87	-3.59962247153205	0.229790690041352	537.769576792533	-1.05471643168354	-1.63146095557722	0.781815986577736	-0.774021554282775	0.00107390212733693	0.00857787837450208
0.88	-3.72517379655306	0.288019062044461	536.554138639645	-1.1436977966172	-1.62649549483209	0.760856112759917	-0.751942035625464	0.000903556409804107	0.00857869870799971
0.89	-3.91877276660937	0.410463429803656	535.025835739019	-1.23114917983303	-1.6165286898314	0.735462520240199	-0.72507309622692	0.000734860014122596	0.00858699786279726
0.9	-4.14822166283182	0.580700573054361	533.458707275999	-1.30279701810775	-1.61636229103603	0.708312714367071	-0.696292811384024	0.000595618770077189	0.0085765000377947
0.91	-4.37178674349059	0.774271702828439	532.089020289185	-1.34623543196904	-1.6399462151552	0.682284434555627	-0.66872421682239	0.000510037426996734	0.00852231577692414
0.92	-4.54914647349309	0.961956971971594	531.079657910642	-1.35273720929347	-1.69746034566454	0.660199274074294	-0.645434839745969	0.000495195790670366	0.00840615098619779
0.93	-4.65164766650454	1.1141190252814	530.505071544467	-1.31849461657175	-1.79345252678647	0.644473753005452	-0.629041905986246	0.000558636489744302	0.00821969958548419
0.94	-4.66847298928037	1.20548625209182	530.358572906731	-1.2450894791843	-1.92661042978119	0.636697415802095	-0.621254201025921	0.000697455110649781	0.00796517751224879
0.95	-4.60680753599422	1.21941446996252	530.577617567216	-1.13908307620288	-2.09128170206626	0.637235321661055	-0.622457482435598	0.000899100919508289	0.00765276433850531
0.96	-4.48624690499527	1.15057931931309	531.078026529863	-1.01074026469471	-2.28032593500118	0.645009684496887	-0.631502860759124	0.00114385147230411	0.00729565037204194
0.97	-4.32969070160266	1.00533520515718	531.786101572485	-0.872068370076251	-2.48844389183221	0.657609930392282	-0.64584536013892	0.00140860294563039	0.00690415881106082
0.98	-4.15408579969246	0.799596733042173	532.658764165882	-0.734537337490886	-2.71492555684295	0.671793551932683	-0.66208634640414	0.00167126445993171	0.00648077695485
0.99	-3.96426387836445	0.554852838166916	533.685788048507	-0.606993339325784	-2.9648689348804	0.684293587858028	-0.676822612635859	0.0019147723708357	0.00601775086923029
1	-3.75187491456183	0.293517533911604	534.873836240179	-0.494307147790511	-3.24833758366802	0.692701376433202	-0.687557408882415	0.00212969167351362	0.00549819326518369
1.01	-3.49956064704938	0.0349991419579851	536.217872173339	-0.397158026952693	-3.57754381202318	0.69611748795498	-0.693357190632479	0.00231464389997416	0.00490060486916505
1.02	-3.18871759822036	-0.206460713802857	537.669979126764	-0.313050403529868	-3.96278892103635	0.695309219685549	-0.694991048222442	0.00247437934074002	0.00420561867504265
1.03	-2.80806307734593	-0.421843191254751	539.117298542918	-0.23827373322323	-4.40835500216009	0.692278583051386	-0.694463998865863	0.00261604495309509	0.00340299170539388
1.04	-2.36006407011676	-0.605776853890556	540.378917018406	-0.170178283622282	-4.90965252087344	0.689372136384362	-0.694089203656672	0.00274483832816508	0.00249667456524721
1.05	-1.8631006108406	-0.754369478584056	541.226309076497	-0.108988281074494	-5.45261273533082	0.688259864973638	-0.695441604689842	0.00286052478054488	0.00150629888811593
1.06	-1.34869483157487	-0.863579112673381	541.424711445878	-0.0584923715076544	-6.01564532320339	0.689186372113939	-0.698607278484925	0.00295607279520138	0.000464513828837776
1.07	-0.85474715504255	-0.928860369725105	540.785762150533	-0.0253240944169298	-6.57366761660215	0.690811492988581	-0.702047878222039	0.00301896202480489	-0.00058907077476178
1.08	-0.416960742554102	-0.94613610989418	539.217287278219	-0.0170491765532323	-7.1030342821698	0.69073429800909	-0.703166449298626	0.00303476825048088	-0.00161547721415806
1.09	-0.0611144556913751	-0.91349254550586	536.755984457465	-0.039721018502238	-7.58590606204845	0.686520077205523	-0.699379504368863	0.00299178918628129	-0.00258316530839442
1.1	0.201573232261009	-0.83267341561161	533.573226388362	-0.0957692158572232	-8.01280924284705	0.676836811623283	-0.689286118689424	0.00288508464411008	-0.00347207762520035
1.11	0.374892007242668	-0.709586041312202	529.951899383103	-0.18295944466788	-8.3827790534685	0.662247718636849	-0.673470353865015	0.00271853245327414	-0.00427399016685986
1.12	0.474245656014529	-0.553533938513339	526.2404729235	-0.294756813923634	-8.70130793968707	0.645329661761419	-0.654606035166405	0.00250425572354496	-0.0049895609625375
1.13	0.520969924936352	-0.375490711865599	522.796512322957	-0.421908834605787	-8.97702106850692	0.630045690246524	-0.636800537249436	0.00225974132046947	-0.00562357495867905
1.14	0.536454025182487	-0.186129714757267	519.933655292547	-0.554649881787782	-9.21832246280388	0.620587128143903	-0.624405967984899	0.00200374891952038	-0.00618035995145616
1.15	0.537875450525741	0.00565274313613676	517.88338860435	-0.684772538023667	-9.4311025351685	0.620098360324585	-0.620722029549621	0.00175241172142571	-0.00666105215823987
1.16	0.536446538843271	0.193305125392586	516.777173546538	-0.806948297123985	-9.61806920057174	0.629728925159197	-0.627039557879875	0.00151668463346821	-0.00706349178346138
