Time [s]	GRFml [N]	GRFap [N]	GRFv [N]	Mml [N.m]	Map [N.m]	Mv [N.m]	Mfree [N.m]	COPml [m]	COPap [m]
0.01	-3.0672803914157	3.75181516102089	792.659344507018	-8.72718181988285	-11.8517170808547	1.07207084020328	-0.982255260434256	-0.00778454478510027	-0.00192601645560586
0.02	-3.15306600205923	3.62755912094558	789.996896441486	-8.54247061683551	-11.9975101509765	1.06591863777713	-0.976847678949214	-0.00758907973679612	-0.00216527544284417
0.03	-3.22451307018735	3.49905104884528	787.426704716262	-8.35844150097075	-12.133305817639	1.0594729065086	-0.971423700606927	-0.00739292106876899	-0.00239006604215491
0.04	-3.27310660757488	3.36325008642833	785.028473079992	-8.17754664681739	-12.2498866879735	1.05258287837088	-0.966024203960549	-0.0071977820483704	-0.00258719215483655
0.05	-3.29610275732723	3.21876714649171	782.904558835598	-8.00139950385399	-12.3422434807175	1.0455039800957	-0.960998277768774	-0.00700418186243601	-0.00274833002594321
0.06	-3.29695282241657	3.06620503857881	781.178271420837	-7.83013767451554	-12.4104912420965	1.03892432379207	-0.957016151460394	-0.00681071063795124	-0.0028712094172787
0.07	-3.28364805615453	2.90818603404885	779.97869845709	-7.66218026755526	-12.4595182844272	1.0338296782736	-0.954947877149675	-0.00661392702511387	-0.00295945385686069
0.08	-3.26534128004328	2.74910068422484	779.417069212861	-7.49450998966049	-12.4975931013835	1.03125112468235	-0.955647523204631	-0.0064089886472416	-0.00302126941563963
0.09	-3.2482481705948	2.59457793367438	779.561663659225	-7.32342820325148	-12.5344586616546	1.03197915139825	-0.959716306143357	-0.00619086684628656	-0.00306751939890515
0.1	-3.23218385847616	2.4506543548484	780.418098502544	-7.14555829000385	-12.5795157598799	1.03634019526054	-0.96732767500973	-0.00595578540061248	-0.00310981777943764
0.11	-3.20899477337514	2.32265784667504	781.920022670615	-6.95877696189454	-12.6405255623157	1.04411215811794	-0.978178975337946	-0.00570242646599672	-0.00315909058694824
0.12	-3.16360547144753	2.21392239379951	783.932411576575	-6.76276228820333	-12.72295639824	1.0546099330917	-0.991593026089902	-0.00543249387038769	-0.00322472048980738
0.13	-3.07758070326827	2.12457958022643	786.266476189548	-6.5589567169803	-12.8298212282481	1.06691474642562	-1.00674144722847	-0.00515040062865957	-0.00331409507981201
0.14	-2.93427768316108	2.05076962267018	788.702535101089	-6.34992391859387	-12.9617247112607	1.08017038968961	-1.02291622050815	-0.00486210788293284	-0.00343226649630757
0.15	-2.72411665175391	1.98461741912076	791.01577844028	-6.13828053217099	-13.1168954902627	1.09384208653362	-1.03975222761905	-0.0045734155481969	-0.00358152727620992
0.16	-2.44841823920903	1.9151874458277	793.000030044653	-5.92554602219529	-13.2911573081725	1.10784078998895	-1.05731191733158	-0.00428820800388718	-0.00376092877743667
0.17	-2.12066654181094	1.83037212087442	794.48615492918	-5.7113167724285	-13.4779762507155	1.12245846682652	-1.07598558954671	-0.00400721815047889	-0.00396597267499865
0.18	-1.76480862593427	1.71934979805175	795.35392184051	-5.49309954639308	-13.6688054582832	1.1381275429519	-1.09622698052951	-0.00372775358639343	-0.00418877403859608
0.19	-1.41103770504085	1.57499066560993	795.538002585256	-5.26694347603092	-13.8538873507538	1.15508768837612	-1.11821185266908	-0.00344455091981066	-0.0044188861042585
0.2	-1.09016438673377	1.39551940325784	795.029701697129	-5.02874654546965	-14.0234964495113	1.17308761019795	-1.14154908981425	-0.00315156985011644	-0.0046447420105174
0.21	-0.827979591601921	1.18493217935959	793.875810450018	-4.77587240001805	-14.1693983488206	1.19124679564726	-1.16516741452968	-0.00284422589966904	-0.00485541691618069
0.22	-0.640909668465092	0.952070394557479	792.175045532579	-4.50858571750837	-14.2861605679369	1.20814842648866	-1.18744287586182	-0.00252140186226069	-0.0050422603925408
0.23	-0.533839974229061	0.70871968333999	790.071538474024	-4.23085108211764	-14.3719457249042	1.22214864868177	-1.20654275528543	-0.00218663440457822	-0.0051999633778122
0.24	-0.500394029756963	0.467426605647831	787.744418484992	-3.95023168208661	-14.4285533954414	1.23180362189605	-1.22087697608121	-0.00184812651737021	-0.00532680101122018
0.25	-0.525370456385509	0.239757519959929	785.392983890002	-3.67690115408854	-14.4606998309867	1.2362693434146	-1.22950473727933	-0.00151759727442125	-0.00542405726674611
0.26	-0.588593407296095	0.0354505773062031	783.218142848214	-3.42204378923735	-14.4747459084346	1.23553919197678	-1.23236045965397	-0.00120831826586631	-0.00549488150953048
0.27	-0.669201888637303	-0.137534663340786	781.40220682827	-3.19607474176473	-14.4772223763107	1.2304447543246	-1.23023113953648	-0.000932887009572281	-0.00554296151103595
0.28	-0.749410930948632	-0.272472941688715	780.090087319027	-3.00711907530419	-14.4735190472962	1.22242955545504	-1.22450640730868	-0.000701297811293022	-0.00557138994139822
0.29	-0.81699903865193	-0.363422354913229	779.374991984282	-2.8600620782497	-14.4670144441006	1.2131777269485	-1.21679544210511	-0.000519711496624553	-0.00558198198805299
0.3	-0.866152382265695	-0.405349932182302	779.290765655054	-2.75628393649984	-14.4587734622652	1.20421416985086	-1.20853476193208	-0.000390074754291647	-0.00557513573436152
0.31	-0.896739305307505	-0.394990877002262	779.811464234312	-2.69399417102734	-14.4477882940734	1.196582994228	-1.20069324632499	-0.000310491256167	-0.00555017577530936
0.32	-0.912490994956397	-0.332208813350077	780.857255955814	-2.66894457051129	-14.4316211675764	1.19067039164284	-1.193632191335	-0.000276073708268987	-0.00550601690510755
0.33	-0.918813966117019	-0.221334842642881	782.304910079222	-2.67525347064522	-14.4072430713469	1.18618968309248	-1.18712484847799	-0.000279944978237578	-0.00544193335935594
0.34	-0.920973449015849	-0.0718773526264491	784.001153234426	-2.70611892903838	-14.3718519982264	1.18230926243182	-1.18050263148722	-0.000314107558013643	-0.00535821425327881
0.35	-0.923148094488374	0.101867998047818	785.777748907681	-2.75430853010773	-14.323492138402	1.17788523927269	-1.17288065327537	-0.000370034395673735	-0.00525652527055226
0.36	-0.928444652253877	0.282466976250266	787.467691101364	-2.81244555703899	-14.2613719284346	1.17175445038461	-1.16341668890249	-0.000438998359442722	-0.00513988023179768
0.37	-0.939537455685741	0.452017874704378	788.921887743459	-2.87321264659258	-14.1858752843249	1.16304047946823	-1.15156311001325	-0.000512287912560194	-0.00501224258636129
0.38	-0.959344974414189	0.595242209467447	790.025041375231	-2.92962090071356	-14.0983480526321	1.15142014980071	-1.13727306200521	-0.000581496990980757	-0.00487789415908341
0.39	-0.99119392523012	0.702172337361715	790.708497689969	-2.97543100052453	-14.000790010625	1.13729376335531	-1.12112105401538	-0.000639007275077041	-0.00474078178638576
0.4	-1.03823882336918	0.76963846757076	790.957289734273	-3.00569208446504	-13.8955734788759	1.12180804776231	-1.10430167833668	-0.000678633651714611	-0.00460404636113915
0.41	-1.10235208378926	0.801063422231425	790.809033478139	-3.01724671292662	-13.7852490494617	1.10670402452134	-1.08848612311397	-0.00069625491694647	-0.00446984987572979
0.42	-1.18305444271648	0.804593381399694	790.343890286072	-3.00900289732061	-13.6724183302869	1.0940024687612	-1.07554611610125	-0.000690185499650831	-0.00433948058962635
0.43	-1.27713027241535	0.790155358207637	789.667123019689	-2.98183139671946	-13.5595958772443	1.08558648557778	-1.06719172087051	-0.000661105980114152	-0.00421359633299134
0.44	-1.37931133419452	0.766416663410652	788.88803644209	-2.93808832532495	-13.4489810263028	1.08277658330495	-1.06459955511496	-0.000611539177632903	-0.00409241940728194
0.45	-1.48392375450573	0.738656548003458	788.100409873789	-2.88092183394525	-13.3421205582052	1.08600302194273	-1.06811859776292	-0.000545052942023005	-0.0039757483013475
0.46	-1.58690141248092	0.708212251165212	787.369280354014	-2.81361524986775	-13.2395367376573	1.09465797922518	-1.0771263900552	-0.000465489224741655	-0.00386277786327105
0.47	-1.68731101933199	0.673561662693669	786.727063800676	-2.73919523414903	-13.140471871088	1.10716426985424	-1.09007408197723	-0.000376495248487596	-0.00375185756039959
0.48	-1.78764656081883	0.63249312678274	786.179089962102	-2.66039976545658	-13.0429120469126	1.12124491951011	-1.10471672581327	-0.000281473802999144	-0.00364039408421557
0.49	-1.89260573848741	0.584431089428126	785.715688772386	-2.57992276670157	-12.9439792966937	1.13433550066484	-1.1184880292532	-0.000183855333518168	-0.00352507383904943
0.5	-2.00667789087503	0.531971925998054	785.326057510465	-2.5007196975275	-12.840645292001	1.14405721910786	-1.12895310393635	-8.74345369888951e-05	-0.00340244924192901
0.51	-2.13139888883733	0.481021204219108	785.008936651441	-2.4261364373788	-12.7305783289402	1.14866193510326	-1.13425836324371	3.51144857535513e-06	-0.00326975887976916
0.52	-2.26334796095663	0.439463353070211	784.776656299171	-2.35971759157451	-12.6128555855891	1.1473646142503	-1.13349197496416	8.44911792881042e-05	-0.00312571904043413
0.53	-2.39378086379347	0.414830315409463	784.651767653263	-2.30470604797857	-12.4882976517682	1.14049111718014	-1.12687207994924	0.000151432354071224	-0.00297099996656419
0.54	-2.51027024311672	0.411786633603399	784.658239235224	-2.26338404249722	-12.3593085926703	1.12939339746698	-1.11569991214998	0.000201493942430742	-0.00280820061959924
0.55	-2.60003319519996	0.430316904276046	784.811075363495	-2.23646820306524	-12.2292820571088	1.11612640332484	-1.10205832395949	0.000233799327115647	-0.00264131829792835
0.56	-2.65399689846105	0.465286158557056	785.108577724431	-2.22274625092481	-12.1017883752216	1.10294113618683	-1.08830200929245	0.000249867419798488	-0.00247489454617134
0.57	-2.67029779319295	0.507618010757638	785.530269679452	-2.21906333484284	-11.9798263143769	1.09171250833216	-1.07645793958149	0.000253617386266392	-0.00231312876260431
0.58	-2.65596343312662	0.546817541911787	786.041247006506	-2.22067706528343	-11.86538178121	1.08346266372945	-1.06770455090217	0.000250928442281473	-0.00215924486980712
0.59	-2.62600404129841	0.574097121105016	786.601264257464	-2.22193145626165	-11.7594057836904	1.07813382156143	-1.06209737866634	0.000248814633778793	-0.0020152838275902
0.6	-2.59992108846253	0.585090364710875	787.175097234206	-2.21715287937054	-11.6621598454691	1.07469907534424	-1.05864505175899	0.000254326638181812	-0.00188232573038233
0.61	-2.59648699832892	0.581182500711972	787.740247456003	-2.20163231093939	-11.5737421245457	1.07159088783392	-1.05572788202748	0.000273338266193801	-0.00176098664317459
0.62	-2.62828119273276	0.568886152421163	788.289016532712	-2.17252110833988	-11.4945503877311	1.06731420367914	-1.05173094384922	0.000309424130763736	-0.00165194530483459
0.63	-2.69765144623656	0.557361388957256	788.824031196391	-2.12944561149619	-11.425477262504	1.0610391896258	-1.04568144365543	0.000363069477315014	-0.00155626369981615
0.64	-2.79541454030178	0.554893268072218	789.348736369016	-2.07466589296717	-11.367751934904	1.05296772306686	-1.03766980513888	0.000431437069203011	-0.00147536638226553
0.65	-2.90280975609416	0.565609540143736	789.856352531683	-2.01268547207461	-11.3224936369809	1.04433978203668	-1.02890095104444	0.000508821187106268	-0.00141069405141658
0.66	-2.99622863487553	0.587718387878253	790.321604119076	-1.9493541106537	-11.2901649553502	1.03706499805475	-1.02134350080587	0.000587751646297319	-0.00136318462955137
0.67	-3.05339620160261	0.614025939055845	790.698828348008	-1.89065611933892	-11.2701568014978	1.0330895986494	-1.01707872354302	0.000660518526487852	-0.00133280306546019
0.68	-3.05925731278904	0.634635233211223	790.9280444298	-1.84148649023253	-11.260684538504	1.03369939642163	-1.01755458393498	0.000720741623771448	-0.00131831384771347
0.69	-3.0099547988817	0.640868187045253	790.947870175357	-1.80473937862795	-11.2590508173781	1.03898811984862	-1.02299085827147	0.000764569948927707	-0.00131738547015603
0.7	-2.91389705864709	0.628937851538622	790.711765095245	-1.78095094395666	-11.2621904056263	1.04767883996237	-1.03214594843236	0.000791191436578242	-0.00132698503584772
0.71	-2.78976298119202	0.601941505986007	790.202829851803	-1.76857339261779	-11.2673150367985	1.05738527346808	-1.04255291118768	0.000802537137445269	-0.00134392194035993
0.72	-2.66209080223849	0.5693357021678	789.442745053344	-1.76476330032214	-11.2724574943995	1.06526611753417	-1.05118881215998	0.000802310976433795	-0.00136536872991572
0.73	-2.55562354413642	0.543970686216555	788.492214743137	-1.76641115750686	-11.2767707848591	1.06889655837864	-1.05539857455458	0.000794681153389543	-0.00138922493941956
0.74	-2.48975525263389	0.537662662403735	787.442785376271	-1.77107429506935	-11.2805346672831	1.06709624634171	-1.05379649085578	0.000783061596161705	-0.001414264905438
0.75	-2.47428495766041	0.556838627352604	786.402230401318	-1.77752315067038	-11.2849114554685	1.06044346852514	-1.04685117370302	0.00076936095120872	-0.00144008183391775
0.76	-2.50734354222366	0.599801238493871	785.477112769714	-1.78575260838742	-11.2915433994354	1.05128239593531	-1.03693701983586	0.000753902938447015	-0.00146687974435161
0.77	-2.57590499868873	0.656628396305288	784.756407733786	-1.79649541810699	-11.3020906504235	1.04317804680908	-1.02779112883672	0.000735987998567222	-0.00149517060389276
0.78	-2.6587820151473	0.71183314110251	784.299382261337	-1.81044016288911	-11.3177917606038	1.03994900675796	-1.02350343309155	0.000714852580212422	-0.00152542650458742
0.79	-2.73147897459084	0.748972927220741	784.129705369601	-1.82744774165813	-11.3391140242194	1.04455305655495	-1.02732728226671	0.000690659382427405	-0.00155774059441394
0.8	-2.77180992877544	0.755732774214617	784.236383161523	-1.84605037680925	-11.3655606132293	1.05816329558101	-1.04067083487917	0.000665156395947997	-0.00159157349689171
0.81	-2.76491242330901	0.727836245248468	784.580780482473	-1.86341296244921	-11.395703809455	1.07972622642404	-1.0625869554679	0.000641767669983029	-0.00162568617087616
0.82	-2.70633982534035	0.670514879667018	785.107799900726	-1.87577686572714	-11.4274922164662	1.10615077903503	-1.08993188041043	0.000625077017008424	-0.00165835140911896
0.83	-2.60236569469042	0.597062082591835	785.758363564542	-1.8792475154605	-11.4588151078518	1.13308481660378	-1.11815859974128	0.000619866839783212	-0.00168786859455261
0.84	-2.46741177772725	0.524946622909198	786.479933823978	-1.87068308185584	-11.488206957626	1.15605673925854	-1.14251693661917	0.000630009764204353	-0.0017132863092455
0.85	-2.31939000548725	0.470749201618103	787.232216579123	-1.84842374444658	-11.5154794180743	1.1716520111721	-1.15931122661031	0.000657539923372474	-0.00173511002062282
0.86	-2.17441842462756	0.445549309401846	787.986561432187	-1.81266785017455	-11.5420311267115	1.17839003811047	-1.16685505375812	0.000702153738715294	-0.00175570342963521
0.87	-2.04256680758847	0.452202294083578	788.719673206818	-1.76542134185394	-11.570646579805	1.17706326965092	-1.16586067765398	0.000761244224910196	-0.00177913455445716
0.88	-1.92591558064863	0.485267720213114	789.404419982133	-1.71007421574924	-11.6047503733804	1.17046321725899	-1.15917364907057	0.000830414227207532	-0.0018103774990208
0.89	-1.81940150036761	0.533417608663726	790.001886749954	-1.65075092720485	-11.6472807081138	1.16259419307395	-1.15095404476401	0.00090429389749902	-0.00185400757028381
0.9	-1.71398065775215	0.583309941033916	790.458691162007	-1.59161781080984	-11.6995066814756	1.15761163399172	-1.14555588032303	0.000977435364664991	-0.00191273247628732
0.91	-1.60091317217091	0.623479655079929	790.711830987006	-1.53630995771839	-11.7601674969785	1.15878099652885	-1.14642330417261	0.00104507484635108	-0.0019861997192801
0.92	-1.47570878924445	0.646939069702845	790.700563993105	-1.48758093777867	-11.8252316473158	1.16772486636061	-1.15529266078981	0.00110361955385874	-0.00207046666163146
0.93	-1.34051616923342	0.651816640862938	790.382108290609	-1.44720740877244	-11.8883889517988	1.1841265141743	-1.17188073213432	0.00115080376872745	-0.0021583329398428
0.94	-1.20434394564996	0.640207220652568	789.746377514721	-1.41611981662263	-11.9421669024536	1.20592313885512	-1.19409135856095	0.00118553806837252	-0.00224048314999109
0.95	-1.08121252047894	0.616085481840993	788.825122518681	-1.39469163985408	-11.9793821778996	1.22989307518703	-1.21863271629078	0.00120753218961456	-0.00230715768119016
0.96	-0.986904266594193	0.583366284264344	787.692587360019	-1.38310195951893	-11.9945527059513	1.25245257339413	-1.24184460890559	0.00121680357861953	-0.00234993175462267
0.97	-0.935258964017146	0.544923108581832	786.45732592187	-1.38168153646389	-11.9849212973101	1.27044705995193	-1.26050798970476	0.00121319656229191	-0.00236317021805321
0.98	-0.934936404196537	0.502778853315139	785.247173358917	-1.3911547793607	-11.9508588963026	1.28174807807016	-1.27244390850472	0.00119603642928678	-0.00234483051848289
0.99	-0.987327855899988	0.459077041594913	784.190781469949	-1.41270044932255	-11.8955825317533	1.28553559124591	-1.2767865506571	0.00116402617200662	-0.00229646942322609
1	-1.08596942945004	0.417110000483215	783.399397113911	-1.44778088729659	-11.8242932939999	1.28223507913636	-1.27390968086909	0.00111545274053748	-0.0022225158187919
1.01	-1.21749555997145	0.38174241800902	782.95196572151	-1.49774013087972	-11.7429727045865	1.27316852252155	-1.26507446650157	0.00104869869587743	-0.00212904762551691
1.02	-1.3639159144661	0.358938160913142	782.8856597789	-1.56324199597094	-11.6571441679132	1.2600483574879	-1.25193111183363	0.000962961726846068	-0.00202241373879491
1.03	-1.50580246567365	0.354555532733677	783.192927563184	-1.64369122903209	-11.5708982164914	1.24447672067259	-1.23603339727264	0.000858993856579282	-0.00190805196085375
1.04	-1.62582010346921	0.372895525750555	783.825222058866	-1.73682491671279	-11.4864012465963	1.22759770756469	-1.2185064893116	0.000739620444401679	-0.00178977608509739
1.05	-1.71192902961088	0.415548675257213	784.702620435168	-1.83865108951519	-11.4039779629839	1.20998942306546	-1.19994751527891	0.000609817000606139	-0.00166966556785236
1.06	-1.75956811567769	0.48091332108174	785.72754857103	-1.94383786610294	-11.3227091125854	1.19179406798191	-1.18055348999932	0.000476217846729909	-0.00154852704613678
1.07	-1.77224962028785	0.564478126111658	786.799959623764	-2.04653457443934	-11.2413532422577	1.17300041222421	-1.16039215595801	0.000346084207107689	-0.00142674675772075
1.08	-1.76029111396876	0.659716940871955	787.830926137608	-2.14147034119631	-11.159315513481	1.15374645138736	-1.13968832384374	0.00022592766312135	-0.00130524893721184
1.09	-1.73785582143138	0.75931748326998	788.751989043887	-2.22506666465646	-11.077370158754	1.13451796686187	-1.11900710232248	0.000120118527355717	-0.00118624105819382
1.1	-1.71896711218946	0.856455416824317	789.518780789796	-2.29625383209785	-10.9979044886931	1.11617386411799	-1.09926894506402	2.98655311278262e-05	-0.00107347555140835
1.11	-1.71354679644537	0.945875892694055	790.109064248928	-2.35671894039349	-10.9245825460613	1.09980447340928	-1.08160402236627	-4.70934455438776e-05	-0.000971887387092141
1.12	-1.72463571911451	1.02459835072581	790.516841587747	-2.41043968915485	-10.8614969737255	1.08649190796395	-1.06711406594346	-0.00011590564451569	-0.000886653812952776
1.13	-1.74769370099908	1.09210052906913	790.745065202982	-2.46255267667627	-10.8120426890085	1.07706907906999	-1.05663641874236	-0.00018318006917406	-0.000821918370340069
1.14	-1.77227827844925	1.1498929938615	790.799476861045	-2.51781921363458	-10.7778526749609	1.07196061187465	-1.05059194156357	-0.000255052068335315	-0.000779561978247911
1.15	-1.78564236119931	1.2005096018692	790.685312031772	-2.57911580931423	-10.7581415775153	1.07114565624649	-1.04895576030845	-0.00033526977053	-0.000758430390057185
1.16	-1.77713234346149	1.24612372830712	790.407394229976	-2.64642100289215	-10.749692276317	1.07423000930353	-1.05133724420925	-0.000423896702308468	-0.000754312312049754
