Time [s]	GRFml [N]	GRFap [N]	GRFv [N]	Mml [N.m]	Map [N.m]	Mv [N.m]	Mfree [N.m]	COPml [m]	COPap [m]
0.01	28.2346139716928	1.84398278258763	819.640458577918	-59.9753134316284	4.06504896336363	-6.84968438306834	-4.79270102920704	-0.00399941616411812	0.0158634067224206
0.02	28.161270596776	1.31550609712997	820.55206913261	-60.0181070146935	4.10721506608383	-6.77865152628673	-4.72518868451356	-0.00395011153696797	0.0158323094704502
0.03	28.0866174191659	0.798454188237324	821.452555988718	-60.0654987067676	4.15048165322608	-6.70856486404159	-4.6585730018699	-0.00389986482016538	0.0158065737258218
0.04	28.0102205763231	0.303923733676021	822.332066861529	-60.1199037464499	4.19561990544956	-6.64038526261389	-4.59379588211666	-0.00384767841916448	0.015790089238728
0.05	27.9316324558198	-0.157593349303164	823.181889607386	-60.1835765237503	4.24341037718752	-6.57499411070491	-4.53172643996569	-0.00379253004695299	0.0157864904527554
0.06	27.8504438300473	-0.576628635486919	823.994685680374	-60.2584410560193	4.29458807044638	-6.51316406370542	-4.47313272119058	-0.00373344323527939	0.0157989202557012
0.07	27.7663350553481	-0.945108215858857	824.764648406124	-60.3459347103444	4.34979063445574	-6.45553488498102	-4.41865831276599	-0.00366955438759168	0.015829815798849
0.08	27.6791229294843	-1.25665835304157	825.487577289999	-60.4468743528458	4.40951274486604	-6.4025954025732	-4.36880469120583	-0.00360017238736559	0.015880728905214
0.09	27.5888001489091	-1.5068322684621	826.160863441096	-60.5613523489729	4.47406905608882	-6.35467225934199	-4.3239198181042	-0.0035248276090128	0.0159521909955874
0.1	27.4955648186806	-1.69324929413479	826.783385914415	-60.6886678144858	4.54356738903363	-6.31192576319634	-4.28419316489217	-0.00344330809644616	0.0160436294899978
0.11	27.3998381105566	-1.81564258342794	827.355324166164	-60.8272963942511	4.61789308137806	-6.27435276693817	-4.24965705061815	-0.00335568159253163	0.0161533395202967
0.12	27.3022689023732	-1.87581644116723	827.877897552738	-60.9748997623788	4.69670474043985	-6.24179614926938	-4.22019391873585	-0.00326230296171471	0.0162785117069598
0.13	27.2037250229772	-1.87751881805613	828.353048447434	-61.1283740949063	4.77944103565209	-6.21396015184804	-4.19554896562844	-0.00316380731147696	0.0164153138600255
0.14	27.1052715262311	-1.82623838659148	828.783090602622	-61.2839350339376	4.86533766955886	-6.19043056960793	-4.17534736359373	-0.0030610897679362	0.0165590218732243
0.15	27.0081371771884	-1.7289387090702	829.170348338489	-61.437235178864	4.95345328108589	-6.17069860494331	-4.1591151900284	-0.00295527339206987	0.0167041928722734
0.16	26.9136710066077	-1.59374422478112	829.516814520977	-61.5835089212812	5.04270276011815	-6.15418708685547	-4.14630307801554	-0.00284766713873023	0.0168448719069128
0.17	26.8232913345109	-1.42959409067001	829.823855718927	-61.7177384840742	5.13189627825565	-6.14027772397788	-4.13631153854031	-0.00273971606696476	0.0169748221745355
0.18	26.7384300460494	-1.24588033365705	830.091991155903	-61.8348343212556	5.21978225283001	-6.12833810063655	-4.12851687096675	-0.00263294621311988	0.0170877679479119
0.19	26.6604751019004	-1.05208638683539	830.320768018701	-61.9298225704418	5.30509244416595	-6.11774722877012	-4.12229657876675	-0.00252890664194194	0.0171776390540972
0.2	26.5907142729793	-0.857440994027274	830.508749468854	-61.9980320140456	5.38658742482838	-6.10791862378723	-4.11705324614099	-0.00242911119770504	0.0172388059081531
0.21	26.5302829121405	-0.670600806945899	830.653623643283	-62.0352729941714	5.46310074186641	-6.09832006583622	-4.11223591260537	-0.00233498238893575	0.0172662947245958
0.22	26.4801182341936	-0.499372904790621	830.752432533592	-62.038000942643	5.53358020992149	-6.08848942563922	-4.10735810959743	-0.00224779965944751	0.017255973580425
0.23	26.4409221020746	-0.350486074431494	830.801909569351	-62.0034576400492	5.59712491914014	-6.07804616267874	-4.10201189498617	-0.00216865403115361	0.0172047014424293
0.24	26.413133751978	-0.229417128368186	830.79890478291	-61.9297840168403	5.65301671480368	-6.06669833107496	-4.09587743271119	-0.00209841076106831	0.0171104340409822
0.25	26.3969132789921	-0.140275921626814	830.740867440409	-61.816099263344	5.70074510514907	-6.05424514464374	-4.08872790530043	-0.00203768125166799	0.0169722825020047
0.26	26.3921360931722	-0.0857501562748668	830.626348809437	-61.6625422236754	5.74002478034351	-6.04057534900194	-4.08042980193974	-0.00198680501055454	0.0167905228546722
0.27	26.3983979864974	-0.0671086165599464	830.455483033597	-61.4702724965886	5.77080517853011	-6.02566181873711	-4.07093887625516	-0.00194584199545019	0.0165665568203867
0.28	26.4150299592135	-0.0842592286629706	830.230402474356	-61.2414303215669	5.79327181173263	-6.00955293690895	-4.06029229712619	-0.00191457522833476	0.0163028265560867
0.29	26.4411215653135	-0.135856345722087	829.955545716281	-60.9790561370213	5.80783935964262	-5.99236141938493	-4.0485977050022	-0.00189252314122599	0.0160026881657173
0.3	26.4755512655305	-0.219449971737764	829.637821801121	-60.6869725841358	5.81513684397755	-5.97425131596595	-4.0360200210652	-0.00187896074568967	0.0156702507020971
0.31	26.5170221245854	-0.331668300925863	829.286602954059	-60.3696336007297	5.8159854981014	-5.95542395334627	-4.02276692799423	-0.00187294841391006	0.0153101889585628
0.32	26.5641011491313	-0.4684239990307	828.913529592777	-60.0319469970582	5.81137023148255	-5.93610358217641	-4.00907394596568	-0.00187336683075254	0.0149275395093688
0.33	26.6152606169048	-0.625134119007271	828.53212499896	-59.67907841655	5.80240584076944	-5.91652345341246	-3.99518996904626	-0.00187895652779407	0.0145274901323083
0.34	26.6689198736919	-0.79694344374045	828.157231697638	-59.3162457492937	5.79029932365538	-5.89691298036176	-3.98136401407642	-0.001888360340808	0.0141151728931134
0.35	26.7234862486552	-0.97894138768909	827.804296203931	-58.9485137882782	5.7763097951665	-5.87748654609639	-3.96783377956745	-0.00190016713665273	0.0136954707742188
0.36	26.7773939376887	-1.16636335501713	827.48854217864	-58.580599124533	5.76170757889594	-5.85843439603862	-3.9548164316901	-0.00191295522606235	0.0132728468071968
0.37	26.8291399102858	-1.35476861167902	827.224083049277	-58.2166949250236	5.74773404297882	-5.83991591842601	-3.94250184448262	-0.0019253340059023	0.0128512032673967
0.38	26.8773160951216	-1.54018822986609	827.023032813509	-57.8603243208703	5.73556367246064	-5.8220554678562	-3.93104833731095	-0.0019359825476622	0.0124337766901945
0.39	26.9206372863829	-1.71923843158331	826.894677294594	-57.5142296871415	5.72626972173797	-5.80494073668559	-3.92058078731869	-0.00194368405769212	0.0120230723761235
0.4	26.9579643851629	-1.88919660249298	826.844767117581	-57.1803031919656	5.72079458344362	-5.78862353354921	-3.91119085771722	-0.0019473553682802	0.0116208397921446
0.41	26.9883227498481	-2.04803926289841	826.874988028152	-56.859561739693	5.71992575798783	-5.77312269547624	-3.90293898016866	-0.00194607086635088	0.0112280879851765
0.42	27.0109155797486	-2.19444325831091	826.982654161097	-56.5521669657053	5.7242780280532	-5.75842874732776	-3.89585766348162	-0.00193908051730893	0.0108451379407675
0.43	27.0251324002006	-2.32775325652287	827.160656115477	-56.2574884128315	5.73428215280498	-5.74450983602356	-3.88995567056917	-0.00192582188405964	0.0104717068760383
0.44	27.0305528559847	-2.447920209236	827.397679152346	-55.9742055918553	5.75018011492406	-5.73131841238226	-3.88522260801275	-0.00190592626417707	0.0101070178666901
0.45	27.0269461512374	-2.55541666821849	827.678688679941	-55.7004424573063	5.77202669513728	-5.71879811379772	-3.88163350310179	-0.00187921926088709	0.00974992706318974
0.46	27.0142665931157	-2.65113567586972	827.985661757909	-55.4339260544836	5.79969692567068	-5.7068903177953	-3.87915299669283	-0.00184571625694879	0.00939906011066814
0.47	26.9926457958292	-2.73628034288514	828.298526003253	-55.1721598280362	5.83289879378351	-5.69553988884527	-3.87773885140315	-0.0018056133684603	0.00905294927553769
0.48	26.9623821724392	-2.81225117640332	828.596252314272	-54.9126014054517	5.8711904326443	-5.68469972535328	-3.87734455853139	-0.00175927451581406	0.00871016318867682
0.49	26.9239283754079	-2.88053775524895	828.858036369472	-54.6528346194495	5.9140009485535	-5.67433382485627	-3.87792091902075	-0.00170721526384875	0.00836942199561395
0.5	26.8778773364664	-2.9426205162057	829.064496769153	-54.3907261079005	5.96065398679593	-5.66441871540405	-3.87941656929575	-0.00165008405977228	0.00802969198392875
0.51	26.824947498591	-2.99988729022861	829.198815502183	-54.1245579828632	6.01039312683706	-5.65494324053842	-3.88177751744281	-0.00158864144681309	0.00769025533882649
0.52	26.7659677289825	-3.0535678994478	829.247749304924	-53.8531297077334	6.06240821373819	-5.64590682381387	-3.88494584427554	-0.00152373776767565	0.00735075244524115
0.53	26.7018622584836	-3.10468869275025	829.202448222161	-53.5758243476326	6.11586176931927	-5.63731646578788	-3.88885780232358	-0.00145628980949457	0.00701119598711882
0.54	26.6336358217641	-3.15404745922739	829.059029714023	-53.2926366242351	6.16991467770422	-5.629182831768	-3.89344160849646	-0.00138725679466409	0.00667195787125168
0.55	26.5623589904588	-3.20220780914743	828.818872105359	-53.0041625606793	6.223750401292	-5.62151586368322	-3.89861526800696	-0.00131761610001024	0.00633373161329975
0.56	26.4891535181695	-3.24951093433394	828.488608937666	-52.7115527916931	6.27659705291498	-5.61432038781199	-3.90428478362341	-0.00124833909573076	0.0059974741734095
0.57	26.4151773730786	-3.29610172057787	828.079824606196	-52.4164336943317	6.32774672799984	-5.6075921881633	-3.91034309222647	-0.0011803675348492	0.00566433224654357
0.58	26.3416090409812	-3.34196553067124	827.608470244907	-52.1208022404557	6.37657158844177	-5.6013149727439	-3.91667002856791	-0.00111459098683224	0.00533555865284835
0.59	26.2696306552913	-3.38697163235888	827.094035906438	-51.8269017849317	6.42253628981955	-5.5954585797893	-3.92313354494044	-0.00105182588296971	0.00501242471836155
0.6	26.2004095615095	-3.43091921273485	826.558529557906	-51.5370868180189	6.46520645742084	-5.58997865948957	-3.92959231855406	-0.00099279680923034	0.00469613439548525
0.61	26.1350780545748	-3.47358217939831	826.025324373872	-51.2536849969311	6.50425304501881	-5.58481793269478	-3.93589976164998	-0.00093812072550804	0.00438774537999329
0.62	26.0747112327275	-3.51474945983197	825.517942623018	-50.9788645369556	6.5394525522115	-5.5799089824217	-3.94190932085364	-0.000888294789958761	0.00408810169169583
0.63	26.0203031767904	-3.55425821933101	825.058846786664	-50.7145143276891	6.57068322781436	-5.57517838874078	-3.94748082177781	-0.000843688408585216	0.00379778116966512
0.64	25.97274196749	-3.59201825897035	824.668306401747	-50.4621430153701	6.59791754229895	-5.57055188506027	-3.95248749327786	-0.000804540004920426	0.00351706017043742
0.65	25.9327843681507	-3.62802675750917	824.363402777146	-50.2228018514034	6.62121136358948	-5.56596010547687	-3.95682320410691	-0.000770958812854529	0.00324589653310648
0.66	25.9010312948799	-3.66237341330172	824.157223748171	-49.9970344587842	6.64069040836081	-5.56134441862271	-3.96040937341058	-0.000742931747380882	0.00298393067127877
0.67	25.8779054393051	-3.69523685713953	824.05828778577	-49.7848549280096	6.65653465571662	-5.5566623107191	-3.96320098430626	-0.000720335122672205	0.00273050354429334
0.68	25.8636325699412	-3.72687388613419	824.070221995667	-49.5857539369147	6.66896149294752	-5.55189179360152	-3.96519114291645	-0.000702950691025094	0.00248468931386048
0.69	25.8582280918006	-3.75760356617954	824.191702843506	-49.398731000808	6.67820840701755	-5.54703437289891	-3.96641368648979	-0.000690485200113753	0.00224533975820315
0.7	25.8614903714674	-3.78778853512101	824.416652852257	-49.2223495916218	6.6845160362912	-5.5421162140383	-3.96694345245589	-0.000682592439212048	0.00201113702850093
0.71	25.8730021273922	-3.81781589622227	824.734672008211	-49.0548107891935	6.68811235393236	-5.53718728218334	-3.96689396990209	-0.000678896591855618	0.00178065110903269
0.72	25.8921408442693	-3.84807992517335	825.131670035033	-48.8940403929255	6.68919867011923	-5.53231839606882	-3.96641251627868	-0.000679015648084039	0.00155239838213761
0.73	25.9180987093356	-3.87896844440629	825.59065573949	-48.7377840519578	6.68793802093179	-5.52759631175922	-3.96567268169297	-0.000682583657958938	0.00132489798390695
0.74	25.949912012044	-3.91085418250757	826.092632785496	-48.5837049657973	6.68444636662224	-5.52311712581983	-3.96486478482483	-0.000689270722044543	0.00109672313250131
0.75	25.9864993319697	-3.94409178406947	826.617547783751	-48.429479040695	6.67878686217966	-5.51897844308804	-3.96418467088836	-0.000698799796765643	0.00086654527090254
0.76	26.0267072063664	-3.97902042611585	827.145236537949	-48.2728830146842	6.67096730077348	-5.51527087808524	-3.96382157617097	-0.000710959619418437	0.00063316963244376
0.77	26.0693613669834	-4.01597129599413	827.656317496755	-48.1118719237024	6.66094067756378	-5.51206953947599	-3.96394585063366	-0.000725613303263225	0.000395561647328922
0.78	26.1133211152859	-4.05527855674866	828.132987562817	-47.9446432979509	6.64860868762925	-5.50942617587519	-3.96469737875819	-0.000742702393712396	0.000152864396858396
0.79	26.1575340128019	-4.09729192804653	828.559683884706	-47.7696865700487	6.6338278648023	-5.50736263526187	-3.96617552321541	-0.000762246393657453	-9.55919721883219e-05
0.8	26.2010878383628	-4.1423886912664	828.923585461822	-47.5858172621086	6.61641799198326	-5.50586621075558	-3.96843133572433	-0.000784337948417941	-0.000350287391171752
0.81	26.2432567349283	-4.19098281862471	829.21493960532	-47.3921965199446	6.59617236825688	-5.50488731884301	-3.97146264024298	-0.00080913402550822	-0.000611513698106185
0.82	26.2835386498005	-4.24352904218935	829.427209767996	-47.1883374119332	6.57286950054954	-5.50433979277901	-3.9752124062282	-0.000836843535106612	-0.000879379091650132
0.83	26.3216815617196	-4.30052001373802	829.557052246201	-46.9741000553035	6.54628579149365	-5.50410388737149	-3.97957060906817	-0.000867711922070144	-0.00115381317966867
0.84	26.3576965683311	-4.36247523596526	829.604139090116	-46.7496780400346	6.51620881266937	-5.50403189689841	-3.98437953841069	-0.000902003329578502	-0.00143457082693994
0.85	26.3918566436908	-4.42992112785625	829.570852657641	-46.5155787767	6.48245077502471	-5.50395610081909	-3.98944228122989	-0.000939980996853419	-0.00172123342404159
0.86	26.4246807200545	-4.50336236706652	829.461883167448	-46.272600306888	6.44486182837011	-5.50369858621068	-3.994533892414	-0.000981886614221477	-0.00201320675874159
0.87	26.4569036432771	-4.58324546611664	829.283764062392	-46.021806809918	6.40334283366423	-5.50308236292318	-3.99941458637144	-0.00102791941855695	-0.00230971532014621
0.88	26.4894334333224	-4.66991632003947	829.044380873539	-45.7645045605505	6.35785725237086	-5.50194309542081	-4.00384415021171	-0.00107821586632701	-0.00260979354437174
0.89	26.5232980870212	-4.76357414595228	828.752487643645	-45.5022194945608	6.3084417866842	-5.50014072863342	-4.00759670009127	-0.00113283076147561	-0.002912275155557
0.9	26.559584830869	-4.86422476256036	828.417261064037	-45.2366768848646	6.25521538632028	-5.49757028481453	-4.01047488087643	-0.00119172073039296	-0.00321578230679385
0.91	26.599375218993	-4.97163648467847	828.047916689032	-44.9697829845476	6.19838621811896	-5.4941711522296	-4.01232264502659	-0.00125473091536948	-0.00351871662858474
0.92	26.6436797412593	-5.08530200499269	827.653404427498	-44.7036079152182	6.13825618225854	-5.48993426985041	-4.01303583569423	-0.00132158569253602	-0.00381925450637445
0.93	26.693375641379	-5.20440949079167	827.242192564878	-44.4403686216122	6.07522256289825	-5.48490672868989	-4.01256993458631	-0.00139188410551635	-0.00411534890808238
0.94	26.7491514451473	-5.32782574397291	826.822141472125	-44.1824104159239	6.00977643084119	-5.47919345238109	-4.0109445077313	-0.00146510054186758	-0.00440473986038774
0.95	26.8114612821105	-5.45409368242819	826.400460532381	-43.9321855222048	5.94249747920614	-5.47295577881163	-4.00824408056662	-0.00154059097082248	-0.00468497524129897
0.96	26.8804914826477	-5.5814456392366	825.983735228443	-43.6922271099356	5.87404507524993	-5.46640693249207	-4.00461538498172	-0.00161760481718918	-0.00495344294750868
0.97	26.9561411911971	-5.70783309404222	825.578006253578	-43.4651175674424	5.80514545373485	-5.45980454526061	-4.0002611317747	-0.00169530228003919	-0.0052074147555697
0.98	27.0380179076122	-5.83097250736715	825.18887927419	-43.2534501858138	5.73657515640881	-5.45344054252691	-3.99543065928901	-0.00177277663042321	-0.00544410138524165
0.99	27.1254480083917	-5.9484059854307	824.8216427703	-43.0597839654018	5.66914103030163	-5.44762885562368	-3.99040798081825	-0.00184908075477623	-0.00566071745694226
1	27.2175014630497	-6.05757462098205	824.481372229385	-42.8865918737958	5.60365732219537	-5.44269154081437	-3.98549788979663	-0.00192325696444269	-0.00585455427861427
1.01	27.3130291987543	-6.15590158972133	824.173001728755	-42.7362035253225	5.54092063171887	-5.43894397602133	-3.98101087576668	-0.00199436888030223	-0.00602305775985536
1.02	27.4107109212058	-6.24088147770598	823.901348321667	-42.6107438658706	5.48168369265616	-5.43667986271606	-3.97724765194261	-0.00206153403679101	-0.00616390828067646
1.03	27.5091107038595	-6.31017190613709	823.671080231444	-42.5120699846858	5.42662912222716	-5.43615677965982	-3.9744840966925	-0.00212395574208071	-0.00627509907107102
1.04	27.6067373316076	-6.36168332564016	823.486626158364	-42.4417085949806	5.37634439348886	-5.43758301619253	-3.97295736954554	-0.0021809526894661	-0.00635500960039691
1.05	27.7021062374266	-6.39366287783448	823.352029473122	-42.4007969954775	5.33129933183975	-5.44110635640997	-3.9728538831426	-0.00223198484578254	-0.00640247062937164
1.06	27.7937998983272	-6.40476845928066	823.270757163417	-42.3900304243606	5.29182740272545	-5.44680539465171	-3.97429970341926	-0.00227667425007193	-0.00641681792327414
1.07	27.8805237472476	-6.39412955157599	823.245478612864	-42.4096186367234	5.25811193968715	-5.45468384184337	-3.97735381957182	-0.00231481954061396	-0.00639793213099343
1.08	27.9611549893014	-6.36139197172139	823.277833198682	-42.4592542798734	5.23017826199547	-5.4646681375356	-3.98200458123972	-0.00234640328759724	-0.00634626296047118
1.09	28.0347821573165	-6.30674441253379	823.36820798116	-42.5380952226671	5.20789235796413	-5.47660852132428	-3.9881694502802	-0.00237159153398985	-0.00626283648210604
1.1	28.1007337727306	-6.23092544373331	823.515547239978	-42.644762440436	5.19096647840048	-5.4902835479339	-3.99569806476428	-0.00239072532512421	-0.006149245122683
1.11	28.1585950622778	-6.13521048935855	823.717214249944	-42.7773543993737	5.17897161432132	-5.50540786126641	-4.00437846838634	-0.0024043044194115	-0.00600762063100728
1.12	28.208212287745	-6.02137914673925	823.968922585893	-42.9334781628609	5.17135644745325	-5.52164288285053	-4.01394622329901	-0.00241296379517515	-0.00584059096536507
1.13	28.2496848467347	-5.89166402994562	824.264749643085	-43.1102966999856	5.16747198645144	-5.53860992766315	-4.02409600173474	-0.00241744397541411	-0.00565122264138428
1.14	28.2833458713561	-5.7486830742773	824.59723931178	-43.3045911569235	5.16660076155297	-5.55590514268881	-4.0344951446839	-0.00241855655578154	-0.0054429505632612
1.15	28.3097325674928	-5.59535790055362	824.957594298274	-43.5128361960944	5.16798916905274	-5.57311557703464	-4.04479858747822	-0.00241714661481259	-0.00521949772575089
1.16	28.3295479823495	-5.43482138610746	825.335951941057	-43.731285952108	5.1708813545078	-5.58983564148311	-4.05466448573576	-0.00241405388677848	-0.00498478741076631
1.17	28.3436162491116	-5.27031800544465	825.72173104864	-43.9560677258681	5.17455291483909	-5.60568320263967	-4.06376983427546	-0.00241007466976744	-0.00474285061082905
1.18	28.3528336252842	-5.10510077387013	826.104031781255	-44.183280257609	5.17834269320207	-5.62031458274974	-4.07182535968986	-0.00240592641568358	-0.00449773139972413
