Time [s]	GRFml [N]	GRFap [N]	GRFv [N]	Mml [N.m]	Map [N.m]	Mv [N.m]	Mfree [N.m]	COPml [m]	COPap [m]
0.01	6.47936169562556	2.66500465121271	553.572449368987	-39.0383313278938	-3.22692043655028	-0.62047291517567	-0.147883132433562	-0.00103869326016332	0.0232105356190319
0.02	6.74666185433578	2.78641333859787	552.046020937269	-38.5572277625417	-3.08409538867957	-0.501629381302107	-0.0148360905446957	-0.000790403020809606	0.0225095801266426
0.03	7.00885140981597	2.90089038425016	550.519254193857	-38.077152939086	-2.9438384294509	-0.384924244114235	0.115280804255178	-0.000546542804815745	0.0218108982611228
0.04	7.26133162621357	3.00386915349841	549.006224731997	-37.6022949566012	-2.80899342618715	-0.27246744742041	0.240095526020967	-0.000312176405265447	0.0211202676534021
0.05	7.49991269409658	3.09127329893813	547.521115611776	-37.1367139070542	-2.68227134151067	-0.166232505430975	0.357423701041984	-9.21452312242707e-05	0.0204431856097061
0.06	7.72097905475135	3.1597516379643	546.078142527172	-36.684309927572	-2.56615222531944	-0.0679823800857204	0.465349476939943	0.0001091110829739	0.0197848369483112
0.07	7.92162159910077	3.20686754347428	544.691444394807	-36.2487897914245	-2.46279938970544	0.0207944070828674	0.562292397196218	0.000287713338577704	0.0191500662887442
0.08	8.09972962306423	3.23123088680685	543.374927315367	-35.8336293934823	-2.3739897623215	0.0989344404651735	0.647057499942116	0.000440473026447536	0.018543349181698
0.09	8.25403821212657	3.23256529486966	542.142056677207	-35.4420309818165	-2.30106335574295	0.165634687962887	0.718866925478546	0.000564988333781443	0.0179687582420903
0.1	8.38412976727987	3.21170842502323	541.00559925985	-35.0768754738246	-2.24489359572672	0.220471139659568	0.777372387042669	0.000659702198528732	0.0174299225041525
0.11	8.49039143454121	3.17054769299891	539.977323789612	-34.7406714888494	-2.20587900417343	0.263400497538111	0.822648867980109	0.00072392099193312	0.0169299802744609
0.12	8.57393302940281	3.11189806342951	539.067673915986	-34.435503708843	-2.18395551701784	0.29474551258052	0.855170806822801	0.000757794691578233	0.0164715275822229
0.13	8.63647244949621	3.03933187564043	538.285431611856	-34.1629837815112	-2.17862761090792	0.315165383883097	0.875772787460575	0.000762261537964734	0.0160565657369929
0.14	8.68019737834947	2.95697307353466	537.637391326381	-33.9242071942428	-2.18901548151127	0.325613321912654	0.885597346497461	0.000738962014648786	0.0156864523863452
0.15	8.70761318844125	2.86926957690425	537.128065776033	-33.7197194003869	-2.21391481097013	0.32728390457694	0.886032936804258	0.000690128446821443	0.0153618607715418
0.16	8.72138730091792	2.78075789617885	536.759443134968	-33.549494030329	-2.25186521417174	0.321553203476312	0.878645345592987	0.000618457498259583	0.0150827516266533
0.17	8.72419986208166	2.69583354664142	536.530812793032	-33.4129253452661	-2.3012232749833	0.309914824403452	0.865105962266958	0.000526973319950634	0.0148483614342098
0.18	8.71860952083125	2.6185395054015	536.43867309455	-33.3088362766374	-2.36023616673303	0.293914998114233	0.847120234220749	0.00041888906167687	0.0146572096620607
0.19	8.70694145416689	2.55238304995445	536.476729919747	-33.2355025226204	-2.42711217058099	0.275089691210853	0.826359448643816	0.000297473934395958	0.0145071263116654
0.2	8.69120274501532	2.50018900845629	536.635990013484	-33.1906923200147	-2.50008492100205	0.254906406211646	0.804398649097568	0.000165932074363448	0.0143952997622602
0.21	8.67302794672947	2.46399492270169	536.904947983485	-33.1717207361824	-2.57746886888474	0.234712932548848	0.782663054764259	2.72982049399897e-05	0.0143183436373998
0.22	8.65365535810855	2.44499104276498	537.269861222721	-33.1755166753926	-2.65770420336164	0.215694826510839	0.762384819819287	-0.000115646367617255	0.0142723803579217
0.23	8.6339323602278	2.44350558028891	537.715102935459	-33.1987002929433	-2.73939025594361	0.19884286841212	0.744571377036168	-0.000260435431594347	0.0142531382453691
0.24	8.61434628818645	2.45903335949296	538.223580161466	-33.2376681680555	-2.8213071706579	0.184931198620479	0.729985984260176	-0.000404956738228148	0.0142560585268508
0.25	8.59507584960028	2.49030400548622	538.777201310027	-33.2886833978766	-2.90242631455171	0.174506297219653	0.719140468151633	-0.000547468953619563	0.0142764083535549
0.26	8.57605713754446	2.53538415514644	539.35737626189	-33.3479677245117	-2.98191048680829	0.167886468676134	0.712299570339936	-0.000686598745170119	0.0143093959409988
0.27	8.55705785244636	2.5918068995415	539.945531524407	-33.4117928727754	-3.05910543602285	0.165171042984553	0.709495778287555	-0.00082132094212726	0.0143502841154823
0.28	8.53775343249503	2.65672078218821	540.523623123658	-33.4765684335634	-3.1335245001579	0.166258124555701	0.71055309323236	-0.000950925303285759	0.0143944988518067
0.29	8.51779934081013	2.72705018310935	541.074630736893	-33.5389238523898	-3.2048283401815	0.170869421589889	0.715117869884457	-0.00107497372454261	0.0144377297634375
0.3	8.49689468121444	2.79965880240559	541.583017840081	-33.595782354101	-3.2728017544653	0.178580479502692	0.722694667827504	-0.00119325174807262	0.014476019922838
0.31	8.47483350095267	2.87150819840328	542.035144203659	-33.644424937501	-3.33732945302007	0.188854525363796	0.732684984477612	-0.00130571803237713	0.0145058428271258
0.32	8.45154146480877	2.93980390721747	542.419618775246	-33.6825428976983	-3.39837246084777	0.201078105126395	0.744426787107697	-0.00141245505643014	0.0145241647766003
0.33	8.42709692840356	3.002122539514	542.727582744299	-33.7082776747341	-3.45594653390048	0.214596756397447	0.7572329128004	-0.00151362381261098	0.0145284914043171
0.34	8.40173668848814	3.0565143767603	542.952914348047	-33.7202471837146	-3.51010363648302	0.228749097691567	0.770426640977916	-0.00160942464118012	0.0145168975902652
0.35	8.37584775493764	3.10157732681702	543.092348765051	-33.7175581554879	-3.56091717199619	0.242897918550384	0.783373041105947	-0.00170006571782421	0.0144880405177094
0.36	8.34994730968279	3.13649959343416	543.145508318048	-33.6998044088101	-3.60847130427895	0.256457109356846	0.795505035197852	-0.00178574006294306	0.014441156178321
0.37	8.32465355827377	3.16107000473467	543.114840271895	-33.667051383403	-3.65285437604902	0.268913559473453	0.806343468821422	-0.00186661132804466	0.0143760401929396
0.38	8.30065043574729	3.17565656409619	543.005461876565	-33.6198076824578	-3.69415614193477	0.279843461264244	0.815510835833927	-0.00194280805625946	0.0142930143615093
0.39	8.27864912199217	3.18115536009942	542.824915061551	-33.5589847917431	-3.73246830004869	0.288922769645025	0.822738634688906	-0.00201442563115146	0.0141928808553529
0.4	8.25934909628763	3.17891342552027	542.58283637862	-33.4858465437225	-3.76788763720905	0.295931867026151	0.827868635046047	-0.00208153473712557	0.014076866379012
0.41	8.24340107429557	3.17063039566085	542.29055137966	-33.4019502575293	-3.80052100332303	0.300754758409877	0.830848593124798	-0.00214419486824441	0.0139465589193421
0.42	8.23137368897092	3.15824481696724	541.960606474864	-33.309081785024	-3.83049129987018	0.303373359568153	0.83172316628344	-0.0022024712481757	0.0138038398348098
0.43	8.2237252646554	3.14381164233957	541.606255213231	-33.209186905103	-3.85794370093585	0.303857633661638	0.830620937637852	-0.00225645346498039	0.0136508139983882
0.44	8.22078154851909	3.12937777991554	541.24091954275	-33.1043016115416	-3.88305141352949	0.302352472057815	0.827738568122546	-0.00230627417690696	0.0134897404899771
0.45	8.22271984949622	3.11686251686067	540.877649560682	-32.9964838186206	-3.90602041395969	0.299062300014772	0.823323145926958	-0.00235212639861323	0.0133229659546111
0.46	8.22955971833646	3.10794922006558	540.528607153969	-32.8877488570252	-3.92709275311066	0.294234416793732	0.81765380302435	-0.00239427811347652	0.0131528622354389
0.47	8.24116009046088	3.10399394552922	540.204599386461	-32.7800108539506	-3.94654818852442	0.288142054993461	0.811023618528091	-0.00243308325266331	0.0129817693062599
0.48	8.25722269460359	3.1059555133337	539.914686229205	-32.6750317011362	-3.96470405844684	0.281068070470825	0.803722733586572	-0.00246898840658435	0.0128119439290873
0.49	8.27730147823105	3.11435029057949	539.665884104495	-32.574378838394	-3.98191344757522	0.273290059419676	0.796023468943387	-0.00250253495849852	0.01264551391387
0.5	8.30081777921422	3.12923345091068	539.462981749886	-32.4793925525811	-3.99856179475412	0.265067552083608	0.788168072230202	-0.00253435662400837	0.0124844374227508
0.51	8.32708094287953	3.15020693691483	539.308478326238	-32.3911629532273	-4.01506215261196	0.256631763367895	0.780359536890088	-0.002565172619644	0.0123304664914289
0.52	8.35531400907664	3.17645283533435	539.202645908739	-32.3105162785713	-4.03184932685544	0.248178199946544	0.772755738508702	-0.00259577685247073	0.0121851138685838
0.53	8.38468395035568	3.20678947665778	539.143710094275	-32.2380097499406	-4.04937310293546	0.239862241811755	0.765466937643493	-0.00262702361496263	0.0120496224110745
0.54	8.41433572005941	3.23974637300977	539.128134134728	-32.1739338622684	-4.06809071935546	0.231797643335223	0.758556511009503	-0.00265981029087706	0.0119249366022703
0.55	8.44342907622347	3.27365317878555	539.150984518673	-32.1183207981193	-4.088458683113	0.224057743372213	0.752044604224225	-0.00269505754473231	0.0118116762427978
0.56	8.47117680947069	3.30673724451322	539.206350002755	-32.0709575930807	-4.11092395887923	0.216679042779252	0.745914256991264	-0.00273368740404107	0.011710112934906
0.57	8.49688266132432	3.33722406012148	539.287782360402	-32.0314027585765	-4.13591451489257	0.209666706181693	0.740119441647371	-0.00277659957835618	0.0116201505659641
0.58	8.51997692406076	3.36343494919213	539.3887260084	-31.9990052664467	-4.1638291886031	0.203001476189823	0.734594382468041	-0.00282464632090376	0.0115413115088263
0.59	8.54004751782639	3.38387675820419	539.502905388399	-31.9729250875796	-4.19502685345909	0.196647453718674	0.729263487975619	-0.00287860615066089	0.0114727306153595
0.6	8.5568642940752	3.3973189421944	539.624643440982	-31.952154814268	-4.22981492919089	0.190560196750452	0.724051231573694	-0.00293915682968709	0.0114131592155528
0.61	8.57039445331479	3.40285432417136	539.749091352791	-31.9355422371929	-4.26843737966924	0.184694619004777	0.718891355042524	-0.0030068481348026	0.0113609812013214
0.62	8.58080730852824	3.39994083474993	539.872358364717	-31.9218140469917	-4.31106247674652	0.179012225147597	0.713734840990727	-0.0030820751633556	0.0113142428529325
0.63	8.5884671702806	3.38842265249363	539.991539984846	-31.9096010461298	-4.35777076159992	0.173487294797759	0.708556199163329	-0.00316505314587777	0.0112706973708472
0.64	8.59391384878532	3.36853029812506	540.104652518701	-31.8974653576819	-4.40854378882266	0.168111717478724	0.703357731512036	-0.00325579496934094	0.0112278641530836
0.65	8.59783111343489	3.34086032701442	540.210490456062	-31.8839300854251	-4.46325437228935	0.162898278558173	0.698171575503834	-0.00335409280251406	0.0111831017831217
0.66	8.60100435492996	3.30633626310135	540.308430064107	-31.8675117116189	-4.52165914502316	0.157882296317321	0.693059467299369	-0.00345950531780997	0.0111336925626515
0.67	8.60426958107463	3.26615328310966	540.398206834495	-31.8467552284103	-4.58339427968418	0.153121607585072	0.688110308991943	-0.00357135198588077	0.011076935345553
0.68	8.60845666275042	3.22170986305645	540.479695776561	-31.8202716142612	-4.64797517835898	0.14869498978494	0.683435759750785	-0.00368871575592198	0.0110102425131363
0.69	8.61433035447757	3.17453012073694	540.55272180665	-31.7867768287336	-4.71480082311916	0.14469918758258	0.679164192107959	-0.00381045511917496	0.0109312362733832
0.7	8.62253298009116	3.12618091885142	540.616922847166	-31.7451310563142	-4.78316328316038	0.141244780091882	0.675433454578619	-0.00393522609846353	0.0108378391446592
0.71	8.63353275393705	3.07818793286648	540.671681219501	-31.6943765352761	-4.85226260918274	0.138451177759818	0.672382953666244	-0.00406151414553396	0.0107283535435527
0.72	8.64758148199215	3.03195484164513	540.716130251643	-31.6337720119089	-4.92122702757065	0.13644107482798	0.670145606543262	-0.00418767530939675	0.0106015258492753
0.73	8.66468486326582	2.98868957894061	540.749233661608	-31.5628217081952	-4.98913799865773	0.135334702060907	0.668840216557326	-0.00431198542125038	0.0104565911400011
0.74	8.68458782491845	2.94934120587706	540.769926237881	-31.4812967152093	-5.05505935191833	0.1352442238741	0.66856478585916	-0.00443269548441566	0.0102932959328705
0.75	8.70677633430966	2.91455044758349	540.777296604009	-31.3892469429933	-5.11806938506464	0.136268603173217	0.669391204425554	-0.00454809101286025	0.0101118976244621
0.76	8.73049601610564	2.88461630268869	540.770787275922	-31.2870021704676	-5.1772945415945	0.138489215991842	0.671361647143386	-0.00465655276626754	0.00991314081760144
0.77	8.75478675242826	2.85948040586723	540.750384419248	-31.1751613272368	-5.2319430866879	0.141966437412153	0.674486877842343	-0.00475661620088384	0.00969821221810709
0.78	8.77853135127444	2.83873002626255	540.716770015836	-31.0545698659529	-5.28133710309224	0.1467373428241	0.678746510926153	-0.00484702699143873	0.00946867717575736
0.79	8.80051541931792	2.82161974537703	540.671412549127	-30.9262858964254	-5.32494113786921	0.152814578669333	0.684091128787068	-0.00492679016140046	0.00922640212108149
0.8	8.81949484167121	2.80711100574431	540.616578480866	-30.7915365863519	-5.36238595014111	0.16018636062701	0.690446008358232	-0.00499521065690369	0.00897346802528547
0.81	8.83426680447283	2.79392788713912	540.555255085863	-30.6516671173449	-5.39348603295464	0.168817462575014	0.697716084554469	-0.00505192358019378	0.00871208052124847
0.82	8.84374012272887	2.78062668274787	540.490984777803	-30.5080851474988	-5.41824989442	0.178650975552744	0.705791682451256	-0.00509691273041847	0.00844448243473648
0.83	8.84700075601545	2.76567614737412	540.427620901233	-30.3622042079368	-5.4368824626504	0.189610551558861	0.714554492456652	-0.00513051655947631	0.0081728741833408
0.84	8.84336878409134	2.74754470732741	540.3690240547	-30.2153896980081	-5.44977939884885	0.201602810683085	0.723883249486297	-0.00515342112393961	0.00789934683276806
0.85	8.83244372809327	2.72479048964597	540.318725394789	-30.0689111074335	-5.45751353354502	0.214519588084387	0.733658611137366	-0.00516664009412963	0.00762583160939108
0.86	8.81413588082713	2.69614977563789	540.279588271033	-29.9239037711002	-5.46081405273063	0.228239732815623	0.743766810288392	-0.00517148236553158	0.00735406842934394
0.87	8.7886821838836	2.66061943320065	540.253501430116	-29.7813428648258	-5.46053942618284	0.242630242604947	0.754101779646659	-0.00516950830206652	0.00708559460764893
0.88	8.75664609140179	2.61752904817077	540.241135680261	-29.6420315137128	-5.45764536698989	0.257546622241951	0.764565600685525	-0.00516247611557765	0.00682175345301973
0.89	8.71890172770688	2.5665988603997	540.241791421086	-29.5066038657748	-5.4531493229637	0.272832478821883	0.775067304574752	-0.00515228033272321	0.0065637210322898
0.9	8.67660342726564	2.5079802062843	540.253357225922	-29.3755428567019	-5.44809311833759	0.288318501983996	0.785520232529454	-0.00514088469197788	0.00631254809366789
0.91	8.63114240325367	2.44227595398926	540.272390379607	-29.2492112425407	-5.44350538655859	0.30382110643764	0.795838330135211	-0.00513025211671716	0.00606921304958515
0.92	8.58409280371556	2.37053935580409	540.294319782493	-29.1278933955527	-5.44036536778906	0.319141121868854	0.805931887144562	-0.00512227459261955	0.00583468110228107
0.93	8.53714977452017	2.29425078796301	540.313760890601	-29.0118444313064	-5.43956949957271	0.334062987269142	0.81570332521209	-0.00511870581314997	0.00560996409626072
0.94	8.4920623607572	2.21527294700604	540.324922338758	-28.901342538711	-5.44190202204808	0.348354931244288	0.825043668924041	-0.00512109933321017	0.00539617553162707
0.95	8.4505641560798	2.13578616304279	540.322075468732	-28.7967399794612	-5.448010568798	0.361770589820373	0.833830303509099	-0.00513075469280147	0.00519457538364512
0.96	8.41430457063094	2.05820651220246	540.300051872917	-28.6985081483387	-5.45838744041413	0.374052427125455	0.84192652554097	-0.00514867356192285	0.0050065999415177
0.97	8.38478345158292	1.9850903039757	540.254730756331	-28.6072723559022	-5.47335697874234	0.384937186655576	0.849183237497974	-0.00517552745147012	0.00483387277996999
0.98	8.36329157338356	1.91902923205181	540.183477647254	-28.5238325996151	-5.49306919181909	0.394163422123702	0.855442936565634	-0.00521163797754272	0.00467819416916456
0.99	8.35085923185243	1.86254096871106	540.085498716794	-28.4491674928736	-5.51749953555908	0.401480952640864	0.860545921259352	-0.00525697010422871	0.00454150765158694
1	8.34821483824245	1.81796022626977	539.962080421888	-28.3844196656631	-5.54645454712059	0.406661876148742	0.864338408434454	-0.00531113826245759	0.00442584409114393
1.01	8.35575502461662	1.78733529433069	539.816691883505	-28.3308622592849	-5.57958285121207	0.409512578029989	0.866682041179738	-0.00537342477827501	0.00433324513681456
1.02	8.37352734759298	1.77233479550929	539.6549367243	-28.28984752137	-5.61639092525549	0.40988600836984	0.867464096538914	-0.00544280965722378	0.00426566963668566
1.03	8.40122622139608	1.77416890769862	539.484351307881	-28.2627398702523	-5.6562629100499	0.407693388358846	0.866607588599575	-0.00551801046296604	0.00422488797903333
1.04	8.43820223281524	1.7935286139267	539.314056716957	-28.2508370439884	-5.69848368504686	0.402914456279508	0.8640804189911	-0.00559753078756145	0.00421237051908725
1.05	8.48348450232411	1.83054570696099	539.154281690197	-28.2552839902732	-5.74226438620632	0.395605383284422	0.859902757925202	-0.00567971562144664	0.00422917707867717
1.06	8.53581527208958	1.88477534523997	539.015782500452	-28.2769849138891	-5.78676952430185	0.385903579545332	0.854151941841941	-0.00576281177589082	0.0042758549068706
1.07	8.59369543961496	1.95520197969573	538.909192905515	-28.3165193213475	-5.83114485797878	0.374028767188904	0.846964338806288	-0.00584503137657648	0.0043523524164643
1.08	8.65543933278528	2.04026849380013	538.844342469335	-28.3740679533816	-5.87454518571919	0.360279907341563	0.838533844711901	-0.00592461632915677	0.00445795545012643
1.09	8.71923665499381	2.13792746115228	538.829584498771	-28.4493541644604	-5.91616124263194	0.345027820014414	0.829106913009573	-0.00599990156143737	0.00459125180224702
1.1	8.78321923295527	2.24571255743969	538.871175452268	-28.5416056084313	-5.95524492170501	0.328703610044129	0.818974267460863	-0.00606937478726448	0.00475012828272475
1.11	8.84552998727698	2.36082738994876	538.97274594536	-28.6495400576785	-5.99113208607591	0.311783290976945	0.808459681379062	-0.00613173053657368	0.00493180284052605
1.12	8.90439142633226	2.48024834450164	539.134899491745	-28.7713778770121	-6.02326230091724	0.294769262635949	0.797906410645808	-0.00618591627955683	0.00513289227355741
1.13	8.95817094378198	2.60083750848111	539.354969049145	-28.9048821665869	-6.05119489269366	0.278169529237444	0.787662028211482	-0.00623116866316403	0.00534951395689423
1.14	9.00544028254071	2.71946131861605	539.62695353332	-29.0474259663793	-6.07462084128871	0.262475727530539	0.77806251630098	-0.00626703818971461	0.00557741794915816
1.15	9.04502671364349	2.83311031198421	539.941647041403	-29.1960842713649	-6.09337012726587	0.248141155680899	0.769416525445349	-0.0062934011021983	0.0058121439104015
1.16	9.07605376529514	2.93901523750591	540.286962980379	-29.3477470372877	-6.10741429141576	0.235560044251886	0.761990707241815	-0.00631045778578489	0.00604919559944031
1.17	9.09796972068038	3.03475482331457	540.648444095938	-29.4992479551069	-6.11686411436263	0.225049285473895	0.755996974119092	-0.00631871762200819	0.00628422441570751
1.18	9.11056257516614	3.1183507031581	541.009938081422	-29.6475026239404	-6.12196248651857	0.216833735249647	0.751582440113626	-0.00631897090061805	0.00651321259387937
