Time [s]	GRFml [N]	GRFap [N]	GRFv [N]	Mml [N.m]	Map [N.m]	Mv [N.m]	Mfree [N.m]	COPml [m]	COPap [m]
0.01	-0.742966045641113	0.569919082507397	679.954215260866	6.95984516075849	46.2483235542461	0.290922916314828	-0.337256810212664	0.0035303391872582	0.0142612620320924
0.02	-1.06965144314687	0.603929735706524	679.446656300621	7.09135799419965	46.2560325418489	0.322460291754461	-0.374856302486261	0.00373117490802555	0.0143208874528953
0.03	-1.38331062198865	0.627515823479098	678.996008580181	7.21520320130147	46.2656211273262	0.348706646564562	-0.406312478907246	0.00391992528685325	0.0143777001212851
0.04	-1.67206403105187	0.633063375138339	678.640702257126	7.32437758706849	46.2786457060008	0.365750537880982	-0.427062930523327	0.0040857695951878	0.0144302393737281
0.05	-1.92733048220879	0.620149564308325	678.410612505543	7.41347522812155	46.2976438983818	0.372073751830571	-0.435462534646834	0.00422034236370994	0.0144792811840692
0.06	-2.14551844177195	0.596280016626256	678.327871599152	7.47922351628646	46.3262826705405	0.368765337637967	-0.433066883688047	0.00431849714338672	0.0145279598162007
0.07	-2.32875742137514	0.574989132138819	678.408799317122	7.52077378281641	46.3688712207259	0.358960288040412	-0.423951074841765	0.00437869809847891	0.0145808644434807
0.08	-2.48405440002446	0.572008670415407	678.665646314167	7.53974058777152	46.4292974515822	0.346753768939849	-0.413355543435614	0.00440305350243164	0.0146423276771084
0.09	-2.62079632723904	0.60077764247851	679.10659855276	7.53999827382548	46.5096495359513	0.335993267954618	-0.406146398322421	0.00439702867015024	0.0147144400636384
0.1	-2.74722165172409	0.668668579449942	679.733063159942	7.52723791449456	46.6089119388953	0.32934030297385	-0.405581658977656	0.00436885639743068	0.0147954507644847
0.11	-2.86699040126694	0.774965249779635	680.534538756632	7.5082906081424	46.7221347483985	0.327845598228367	-0.412709801419425	0.00432864479338868	0.0148790980893646
0.12	-2.97704683586361	0.911010983727079	681.482819953155	7.49026022926944	46.8403668130664	0.331071941045867	-0.426476670109834	0.00428721320578374	0.0149551106787505
0.13	-3.06756467036368	1.06228427638585	682.528193270777	7.47957632383076	46.9514556248601	0.33761339047137	-0.444382332569221	0.00425477244697825	0.0150107580783334
0.14	-3.12407202055573	1.21165683069033	683.600142977713	7.48114022508169	47.0416067893068	0.345759853333843	-0.46338840463633	0.0042396612520581	0.0150330412466749
0.15	-3.13115359536897	1.3428733148127	684.613836638555	7.49775172073375	47.0974173163313	0.354061045195991	-0.480758912116236	0.00424739415526432	0.0150109830667089
0.16	-3.07667423839734	1.44338088122395	685.481723100575	7.52994979761506	47.1079884897407	0.361631123164051	-0.494605560576795	0.00428023005772038	0.0149375186275008
0.17	-2.95538726597948	1.50595596928296	686.127685284845	7.57629567599699	47.0667049093271	0.368158131666938	-0.504051235788344	0.00433734763233118	0.0148106477830739
0.18	-2.77105515039488	1.52899452820932	686.500091483003	7.63401119911729	46.9723364123287	0.373691747036364	-0.509065600558345	0.00441556228449813	0.0146337230472598
0.19	-2.53667702708907	1.51570642375617	686.580230036411	7.69980219791407	46.8292609559031	0.378344614257951	-0.510118710773191	0.00451039342800263	0.014414933705954
0.2	-2.27290869174872	1.47267676037256	686.383962011962	7.77066593219441	46.646785818366	0.382045897560066	-0.507822434570574	0.0046172223528933	0.0141661681874005
0.21	-2.00513283251925	1.40828536032284	685.95649049828	7.84450154240257	46.4377193684259	0.38444105913837	-0.502691241862457	0.00473227478660732	0.0139014809770547
0.22	-1.75982039402368	1.33134541082917	685.362170070835	7.92039641310082	46.216475683833	0.384963234130515	-0.495078967145217	0.00485320748723572	0.0136353755634298
0.23	-1.56082298159536	1.25012062517602	684.672554595644	7.99853232569401	45.9970528102872	0.383035585920659	-0.485268972506085	0.00497916179519886	0.013381073759352
0.24	-1.42610807693421	1.17170389299235	683.956005015271	8.07973171893652	45.7912075302439	0.378321090409705	-0.473639246419717	0.00511025869562465	0.0131489063563126
0.25	-1.36527257593206	1.10165292130138	683.271187135492	8.16473923975628	45.6070720180916	0.37092545231617	-0.460805674214407	0.00524663830629823	0.012944949663691
0.26	-1.37801797549498	1.04378826929477	682.665104480938	8.2534003274483	45.4483516627181	0.361478302181788	-0.447665390353397	0.00538727427658614	0.0127700482081129
0.27	-1.45368484302963	1.00012645378316	682.174556264539	8.34394731403235	45.3141418090091	0.351058055787927	-0.435306127465691	0.00552889528937039	0.0126193908282008
0.28	-1.57192505744823	0.970984820266014	681.828687307521	8.43262072391168	45.1993277614462	0.340974537602812	-0.424800376165049	0.00566539097527263	0.012482820368958
0.29	-1.70459734791512	0.955307149934545	681.650009627766	8.51382168212732	45.0954933083729	0.332468446781208	-0.416948933104615	0.0057880355866673	0.0123460268292522
0.3	-1.81894136273974	0.951205448625375	681.652036215726	8.58089508347951	44.9922465337263	0.32641691888796	-0.412064233859104	0.00588670547130132	0.0121926743697617
0.31	-1.88195950867718	0.956618321373884	681.83327388607	8.62748199849702	44.8788556311108	0.323140553658204	-0.409881413957791	0.00595199928627099	0.0120073334357507
0.32	-1.86569114656392	0.969899183497001	682.169290600415	8.64918319458736	44.7460521404895	0.322383773794905	-0.409651863368728	0.00597784542216429	0.0117788491351203
0.33	-1.75273402935159	0.990119888601025	682.606228273488	8.64510627298593	44.5877998516986	0.323488922054836	-0.410415838715567	0.00596390348897902	0.0115035331805954
0.34	-1.54104579533111	1.01693749471034	683.059773072314	8.61880384912653	44.4027611987284	0.325717336956899	-0.411383104364533	0.00591696152055166	0.0111874087107464
0.35	-1.24687442213176	1.05001696755718	683.422733662601	8.57820466756576	44.1951536690899	0.328610219859795	-0.412297394665979	0.0058506871923012	0.0108467601482233
0.36	-0.904747140991931	1.08818410097458	683.581995471541	8.53439259075994	43.9747158508105	0.332254284599544	-0.413646168512162	0.00578350824112994	0.0105065025577601
0.37	-0.563862865553946	1.12862903088621	683.442315162978	8.49943195556676	43.75562233442	0.33733924168013	-0.416615009812512	0.00573496327730361	0.0101963690212932
0.38	-0.280954628299441	1.16652321695316	682.951319898572	8.48375739625358	43.5543948021981	0.344963784171875	-0.422768715225144	0.00572139069918054	0.00994550985814335
0.39	-0.110570946202964	1.19531914666204	682.118458116172	8.49382486048564	43.3871111767609	0.35623956358806	-0.433540007383677	0.0057521154202369	0.00977662346187747
0.4	-0.0945328840372961	1.20779415947325	681.021400383525	8.53068565941897	43.2664424756532	0.371821656950901	-0.44968309520692	0.00582722785860212	0.00970100471239238
0.41	-0.252797759085139	1.19764748913253	679.796546480511	8.58989900110311	43.1991666796072	0.391526578804364	-0.47087144100685	0.0059376291820652	0.00971577981803967
0.42	-0.577907869225073	1.16125158071596	678.614914647434	8.66281801078634	43.1847623023426	0.414172071346654	-0.49557749999304	0.00606737186007822	0.0098040975676138
0.43	-1.03457302292777	1.0990665482533	677.649167597662	8.73889387302679	43.2154627908566	0.437698838990795	-0.521283152412091	0.00619766680235645	0.00993830231800163
0.44	-1.5648510182194	1.01628014340092	677.040249880942	8.8083665656423	43.2778061598334	0.459543261041405	-0.544966948094222	0.00631147026818879	0.0100853476311585
0.45	-2.09811276083674	0.92241859272019	676.872112426902	8.86462777747091	43.3553372958259	0.477155486737188	-0.563734227501982	0.00639744011540733	0.0102131514897418
0.46	-2.56383225817698	0.829934770457054	677.16035923967	8.90566173374228	43.4318229567621	0.488522068318725	-0.575422553074902	0.00645227573677698	0.010296400589309
0.47	-2.90451968503931	0.752048746249763	677.856401718179	8.93423860676591	43.4942103901464	0.492561795544336	-0.579032354669187	0.00648093103843905	0.0103205180841232
0.48	-3.0860063535734	0.700318113371149	678.864370719197	8.95686377755714	43.5346383377584	0.489307495447896	-0.574888784812237	0.00649475548142786	0.0102830315996522
0.49	-3.10283501601618	0.68249327114988	680.065010488256	8.981785794846	43.5510701948708	0.479847123051042	-0.564514075476581	0.00650811730230427	0.0101922500044289
0.5	-2.977593648597	0.701142006408347	681.33983428612	9.01657329891723	43.5464855379761	0.466056501490155	-0.550259062869407	0.00653438707987231	0.0100637896124217
0.51	-2.75440957351371	0.753329924713089	682.589916974708	9.06585543506471	43.5269326645619	0.450200529668166	-0.534792993482832	0.0065822631936433	0.00991592945715736
0.52	-2.48816746951975	0.831379575016244	683.74612451184	9.129775985467	43.4990118554	0.434502246984643	-0.520574432405485	0.00665330879970527	0.00976493987831917
0.53	-2.23200070890679	0.92447892643102	684.77033502592	9.2035504187897	43.4674628099766	0.420777065830341	-0.509420829448523	0.00674127962168303	0.00962141868323935
0.54	-2.02598359695865	1.02073585087485	685.649426722677	9.27826419931838	43.4334565961755	0.410204091806667	-0.502262359966919	0.00683340999234505	0.00948834781363106
0.55	-1.88962361346425	1.10921714579718	686.385045307485	9.34275548815655	43.3939768207828	0.403264114520868	-0.499114557880435	0.00691336730080705	0.00936114637631569
0.56	-1.81979323822416	1.18157135259451	686.982423397419	9.38615073665548	43.342382434676	0.399826303578535	-0.499247071515804	0.00696517781302086	0.00922954186376757
0.57	-1.79438081736877	1.2329851820445	687.441097318518	9.40044169489345	43.269951408157	0.399327544601554	-0.50147869510833	0.00697717264896247	0.00908069501616343
0.58	-1.78050935749646	1.26241122304189	687.749584426718	9.38246757194946	43.1679773563144	0.40097223454213	-0.504505476550671	0.00694498332978943	0.00890276039363136
0.59	-1.7450259161413	1.2721686077032	687.885146867926	9.33481678795449	43.0298762684591	0.403891449446665	-0.50717537171191	0.00687285685578465	0.008687989937261
0.6	-1.66440037496209	1.26710977498043	687.818723489684	9.2654524986659	42.8527778900278	0.407233955070437	-0.508655688971082	0.00677300562638383	0.00843461214187585
0.61	-1.53135668615497	1.25355039051795	687.523968671095	9.1862073433079	42.6382186605642	0.410203858613948	-0.508485739908656	0.00666322883041437	0.00814703167619923
0.62	-1.35647181330944	1.23810336987238	686.98821145956	9.11057675994386	42.3917869656466	0.412092464211866	-0.506549411258706	0.00656347750505959	0.00783433437101005
0.63	-1.16439634369031	1.2264989885938	686.222330152459	9.05137894692658	42.1218419675249	0.412358683472567	-0.503024671207281	0.00649225175398105	0.00750754621535732
0.64	-0.985893607008225	1.22246557814434	685.266404309112	9.01881159343726	41.8376678157861	0.410785951200334	-0.498360268790166	0.00646366312920488	0.00717645346556223
0.65	-0.848113432407209	1.2268046712505	684.18881869282	9.01925512344467	41.5475718865714	0.407691323970369	-0.493296550751897	0.00648571400006581	0.00684692955531618
0.66	-0.766033268878906	1.23687998410891	683.078188026838	9.05492907037844	41.2574451795997	0.404106174123278	-0.488902098244686	0.00655995729558956	0.00651957587883534
0.67	-0.737633520647773	1.24677180699102	682.029589671162	9.12428910873606	40.9701663680433	0.401816784263027	-0.486563052219164	0.00668234022239667	0.00619009566632955
0.68	-0.744222977670368	1.2482560891038	681.128414713877	9.22291600462916	40.6859816741829	0.403170602515922	-0.487858155955791	0.00684480388144315	0.00585129528463463
0.69	-0.755753717718719	1.23254006939552	680.435987971912	9.34460974752033	40.4037011786108	0.410624295823988	-0.494288216267578	0.00703714219065488	0.00549610875512757
0.7	-0.73947072952903	1.19239681381491	679.980614509898	9.48244164095046	40.1223066883062	0.426112025445785	-0.506893895674517	0.00724869353941904	0.00512072853703444
0.71	-0.669308081530676	1.12412023373304	679.756045286395	9.62959758603977	39.8424442813168	0.450405883948614	-0.52586386204429	0.00746958955714616	0.00472689711991253
0.72	-0.533345912384702	1.02869255696034	679.727132939975	9.77993458716487	39.5673148230352	0.482681609950984	-0.550273641620195	0.0076914570491059	0.0043226715996908
0.73	-0.337357095030669	0.911762235813602	679.840479766133	9.92825056801688	39.3026637267398	0.520465713206756	-0.578080509998442	0.00790761803784823	0.00392142449325106
0.74	-0.103701070100875	0.782406394716315	680.036825318587	10.0703274733294	39.0558450838195	0.560031057544559	-0.606429613683593	0.00811293618682629	0.00353933939648049
0.75	0.133873456262049	0.651049639340662	680.262034101288	10.2028459844616	38.8342086077147	0.597164460429848	-0.632224313495648	0.00830350745075681	0.0031920505781376
0.76	0.337976134759019	0.527170073483695	680.474602537484	10.3232821493678	38.6432500879989	0.628105938471589	-0.652818635195643	0.00847638751917834	0.00289126242052745
0.77	0.475900625688767	0.417447281494821	680.649056482573	10.429876468108	38.4850280176164	0.650401514422806	-0.666639696049748	0.0086294924637903	0.00264214398951407
0.78	0.526671731195719	0.324803450907472	680.775847822625	10.5217150171036	38.3572744331017	0.663439123276137	-0.673562589398903	0.0087617144505423	0.00244207044936301
0.79	0.485453291092081	0.248456998376447	680.858985657813	10.5988928420714	38.2534486448355	0.668534890371451	-0.674932210123844	0.00887318649230351	0.00228095908083015
0.8	0.364611388498351	0.184787152870374	680.91260793208	10.6626673396205	38.1637520495629	0.668564893108084	-0.673226840265373	0.00896554470164213	0.00214310780741722
0.81	0.191372332848106	0.128615047116191	680.95726653109	10.7154823974994	38.0768971284298	0.667250893719752	-0.671451357061849	0.00904200841749114	0.00201015090132373
0.82	0.00257518545265766	0.0744923332146532	681.016228986568	10.7607701738619	37.9822505954857	0.668277759232621	-0.672407795455346	0.00910714531949741	0.00186453709761841
0.83	-0.162511625537943	0.0177231286985469	681.111864019054	10.802510905232	37.8718817223964	0.674438880732528	-0.678009648067379	0.00916629694495985	0.00169283267267406
0.84	-0.269965523299395	-0.04495918113876	681.262234187199	10.8446225785568	37.7420598203912	0.686985027366442	-0.688790126613877	0.00922476716824383	0.00148817484773411
0.85	-0.298011501334152	-0.11498689447202	681.478228353022	10.8903215508047	37.5938609039048	0.705307131042809	-0.70371430790317	0.00928696825022779	0.0012513600092246
0.86	-0.241328150444359	-0.191715215494051	681.761710887785	10.9416117498129	37.4327429331443	0.727023477068107	-0.720347552278755	0.0093557374423342	0.000990334182836283
0.87	-0.111746485473445	-0.272315356554716	682.105084748062	10.9990188207511	37.2671890940114	0.748468577684054	-0.735361249323607	0.00943197827702191	0.0007182101726943
0.88	0.0649845770486045	-0.351910306932757	682.492352838147	11.0616084916913	37.1067403280424	0.765497608139318	-0.745278719084998	0.00951467662978467	0.000450281965385269
0.89	0.255681453502893	-0.424136367101898	682.901355816469	11.127251286238	36.9598824555393	0.774439617249967	-0.747295355425696	0.00960124079949221	0.00020074583713664
0.9	0.42782954436371	-0.482248461249009	683.306564766362	11.1930480011278	36.8322796636463	0.77297869804286	-0.739971652044088	0.00968805495071989	-2.01040422573295e-05
0.91	0.5571408817577	-0.520673833380502	683.681753750908	11.2558207471781	36.7257480648316	0.76074034324511	-0.72361594934148	0.00977112498555677	-0.000207579772576572
0.92	0.632506032050917	-0.536644460330642	684.00207271367	11.3125898588727	36.6381692456695	0.739422684507567	-0.700249343267209	0.00984671561805672	-0.000362877924127814
0.93	0.657049446349473	-0.531348760109375	684.245366975213	11.3609756767406	36.5643086059654	0.712428234499902	-0.673159054613114	0.00991189734423303	-0.000491975109882581
0.94	0.645191365517371	-0.510067382595884	684.392893502739	11.3994723515305	36.4972895115694	0.684087596348251	-0.646161975383933	0.00996492548852113	-0.000603519231562766
0.95	0.616829494058731	-0.481036319181139	684.429765452096	11.4275427387086	36.4303348646795	0.658678637531998	-0.622777776775369	0.0100053696790988	-0.000706310953127953
0.96	0.590563391906943	-0.453231411328988	684.3454913979	11.4454972132066	36.3583527490691	0.639496468018235	-0.60552564024469	0.0100339288629432	-0.00080702242109898
0.97	0.578036185222833	-0.43371482096327	684.134886164074	11.4541608064176	36.2790136395319	0.628206330978382	-0.595509134763698	0.0100519282470425	-0.000908689270231078
0.98	0.580955287366746	-0.425430401171743	683.79944508455	11.4544001367263	36.1931173144372	0.624624205601092	-0.592361598008291	0.0100605970484134	-0.00101027773804868
0.99	0.591402984233292	-0.426255445343958	683.349021326692	11.4466488973644	36.1042329894318	0.626949030936866	-0.594523126596745	0.0100603320614435	-0.00110733893591441
1	0.595011215921251	-0.429715732568256	682.803375155073	11.4306012432726	36.0177653635587	0.632353183337745	-0.599741154541557	0.01005020589433	-0.00119349458948642
1.01	0.575790455213936	-0.427188390257717	682.192958770723	11.4052092164609	35.9397108599927	0.637755318953965	-0.605647808841689	0.010027937498405	-0.00126231942380622
1.02	0.521080122755995	-0.410872839873882	681.558263618292	11.3690248019853	35.8754026136687	0.640569148478214	-0.610270848192545	0.0099904048181344	-0.00130913160499618
1.03	0.425258957273183	-0.376515813462376	680.947262876178	11.3208025819774	35.8285048691626	0.639244825759251	-0.61237089950309	0.00993459132484897	-0.00133227277699349
1.04	0.291388799161721	-0.324949364703395	680.410923110873	11.2601754766566	35.8004306304906	0.633485427693993	-0.611550809215259	0.00985869369145542	-0.0013336192807627
1.05	0.130641785881389	-0.261915953988385	679.997323467265	11.1881764653174	35.7902495617659	0.624110514282229	-0.608139242781486	0.00976304302413133	-0.00131826567816457
1.06	-0.0400492685149432	-0.19625552278683	679.745414736956	11.1074192100528	35.7950505940743	0.612629679031346	-0.602899975552013	0.00965053584111442	-0.00129351048673737
1.07	-0.201332610612727	-0.137091648329914	679.679671033553	11.0218544358408	35.8106417144925	0.600659938338872	-0.596653766152201	0.0095264164607729	-0.00126741249078388
1.08	-0.334933897025833	-0.0909740591183445	679.806716652393	10.9361494829572	35.8324179565351	0.589355377053833	-0.589916489972216	0.0093974486242967	-0.0012472500478275
1.09	-0.42664925667103	-0.0599078872381943	680.114494752351	10.854852978818	35.8562132708913	0.579007954541292	-0.582652217838041	0.00927069746044584	-0.0012382000040525
1.1	-0.468463055116804	-0.0408549891804526	680.573893147626	10.7815709740109	35.8789730487906	0.568927952391401	-0.574212692498713	0.00915225744059522	-0.00124247224833074
1.11	-0.459676249027015	-0.0267742902901764	681.142239001783	10.7183776185707	35.8991342763942	0.557634907201923	-0.563488956425669	0.00904627380975431	-0.00125902279222262
1.12	-0.407072671791119	-0.00877383633376833	681.767919186337	10.6656143450521	35.9166648149337	0.543305974144624	-0.54924570836086	0.00895451032318362	-0.00128385988513274
1.13	-0.324164817565023	0.0213536671398552	682.395565027923	10.622116807498	35.9327749652617	0.524361100817713	-0.53055770627094	0.00887654361414014	-0.00131087897436177
1.14	-0.22951370587253	0.068968922365762	682.971529306022	10.5857824230747	35.9493618829674	0.500030845645688	-0.50723474257316	0.00881046899108739	-0.00133311318341556
1.15	-0.144116432529222	0.135341284576749	683.449479215621	10.5542919618362	35.9682805082563	0.470760589416397	-0.480118116820872	0.00875384859264849	-0.0013442441008662
1.16	-0.0879885671416521	0.217518086308801	683.79567967935	10.525757955017	35.9905623535388	0.438349458418862	-0.451159546500514	0.00870457262949487	-0.00134015866976012
1.17	-0.0763470578237353	0.309159876417628	683.99308274318	10.4991046322099	36.015732670406	0.405788854246446	-0.423245799801551	0.00866135741439389	-0.00132026197842627
1.18	-0.116128676003869	0.401958709454197	684.043039956833	10.474079004794	36.041399862442	0.376835219500178	-0.399794501392948	0.00862374903444307	-0.00128820126525764
