Time [s]	GRFml [N]	GRFap [N]	GRFv [N]	Mml [N.m]	Map [N.m]	Mv [N.m]	Mfree [N.m]	COPml [m]	COPap [m]
0.01	-0.973165277734061	0.588376823025463	612.964391721598	3.08413841247145	41.6479914778322	0.529007250976746	-0.573899228016874	-0.00247199963486833	-0.00318769004286323
0.02	-1.09730907420342	0.547578249105965	613.063227476029	3.14689815754541	41.808870306475	0.523366741028222	-0.566343351428061	-0.00236974174900484	-0.00292831856135778
0.03	-1.21451277827788	0.513088754854512	613.135700496007	3.2051876333063	41.9684314436283	0.518499845316169	-0.559950258205505	-0.00227447779897361	-0.00266824094335966
0.04	-1.31875132175261	0.490585742331572	613.156629728883	3.25587702493773	42.1242075942707	0.514847980005008	-0.555517468942192	-0.00219104714360918	-0.00240870718624953
0.05	-1.40797396079347	0.484301232238245	613.113951692219	3.29707272175331	42.2749599427965	0.512278659883393	-0.553196931948859	-0.00212242159762654	-0.00215039809488554
0.06	-1.48444771892084	0.496753605396958	613.012844956236	3.32806417833048	42.421349916926	0.510031860791633	-0.552424190535334	-0.00206982805675759	-0.00189280389430374
0.07	-1.55368371721303	0.528632893865855	612.876017088208	3.34891332039137	42.5660388641772	0.506903014977794	-0.552084010503899	-0.00203340923353401	-0.00163411899061855
0.08	-1.62251368235609	0.578663156081677	612.740010432023	3.35991276518684	42.7130833866234	0.50162107494614	-0.550862953218262	-0.00201305801303753	-0.00137184026150383
0.09	-1.69711384716761	0.643369980717153	612.648034623327	3.36118719709122	42.8666947518008	0.493312004129386	-0.547680611374505	-0.00200898947379602	-0.00110399989300169
0.1	-1.78162311759817	0.716877213883082	612.640430077994	3.35262631021075	43.029635901113	0.481902393534518	-0.542068384451367	-0.00202175812356442	-0.000830700768586601
0.11	-1.87758996408527	0.79101201030504	612.744441092556	3.33416896438075	43.2016722091006	0.468327847728152	-0.534382415906385	-0.00205170463327675	-0.00055546374292087
0.12	-1.98404741320684	0.855996363061604	612.965453289166	3.30629369305999	43.378531626406	0.454464347016377	-0.525787295058254	-0.00209808537188416	-0.000285895575907913
0.13	-2.09778761107399	0.901821714052685	613.282018441196	3.27048476670396	43.5517543272155	0.442781445008831	-0.518012774454696	-0.00215827762178444	-3.33352886568994e-05
0.14	-2.21348781052713	0.920117984101676	613.646597030646	3.22946277456605	43.7096326681829	0.435798510085756	-0.512947928732943	-0.00222741751105371	0.000188614409298293
0.15	-2.32365369950569	0.906070353337643	613.992860420385	3.18706912709784	43.8391888058292	0.435483566737467	-0.512179067839377	-0.00229865572543708	0.000366479092513305
0.16	-2.41869015230901	0.859823295987232	614.248742434402	3.14781996228922	43.9288577507181	0.442751149169431	-0.516588849959292	-0.0023639980661766	0.00048977682358109
0.17	-2.48756449163691	0.786895403383902	614.352652631359	3.11624404752676	43.971303946613	0.457187235583765	-0.526113118793063	-0.00241552265008782	0.000553723426044372
0.18	-2.51937734241661	0.697386588828638	614.268981542738	3.09616428329548	43.9656741301975	0.477066377111244	-0.53970712139283	-0.00244668203060017	0.00056109493944978
0.19	-2.50575159195005	0.604105559329783	613.998788998216	3.09007531275914	43.918638748129	0.499648788826244	-0.5555182446772	-0.00245340809020345	0.000522672501483745
0.2	-2.44348279075961	0.520064886566325	613.58257441402	3.09872993910904	43.8438165283277	0.521675885615889	-0.571213504985512	-0.00243481047913663	0.000455972071818633
0.21	-2.33659911754246	0.455978069044232	613.094013127709	3.12099607065976	43.7595677676511	0.539939582804111	-0.584378543073841	-0.00239335856447331	0.000382366991380556
0.22	-2.19701379137549	0.418386641585127	612.625862540387	3.15399763225979	43.6855786817666	0.551793429240126	-0.592897140001896	-0.00233453447750098	0.000323153190544101
0.23	-2.04332298348512	0.408849936673949	612.271166558748	3.19351197013812	43.6390103296111	0.555502325029614	-0.595236699417206	-0.0022660273178855	0.000295455514768062
0.24	-1.89786511379388	0.424313743015071	612.103907505019	3.23456206789007	43.6311372823445	0.550382264596574	-0.590599981786188	-0.00219660287295109	0.0003090021818557
0.25	-1.78269795324656	0.458444599113855	612.163234327536	3.27211351629178	43.6652997925564	0.536743911439488	-0.578944898171118	-0.00213482977837864	0.000364630831409085
0.26	-1.71548020890462	0.503481376219212	612.444513292506	3.30176592210139	43.736666040749	0.515702200275914	-0.560907416071163	-0.0020878696958424	0.000454957407023449
0.27	-1.70627192863668	0.552081810646308	612.899021254115	3.32032194958776	43.8338452283912	0.488932138955313	-0.537675408862228	-0.00206053899906589	0.000567059715209872
0.28	-1.756010173326	0.598730515382367	613.442442428426	3.32613079851876	43.9419379799565	0.458435429423042	-0.510850659111008	-0.00205481430628063	0.000686477709669731
0.29	-1.85696975386253	0.64046904324056	613.970693988362	3.31913960869758	44.0462758509761	0.42634581591801	-0.482310956575175	-0.0020698806027436	0.000801476107850696
0.3	-1.99501609746784	0.67692298817043	614.380218867928	3.30064252402386	44.1359597250928	0.394764843240909	-0.454060637327245	-0.0021027159849395	0.000906445612393891
0.31	-2.15302955521735	0.709765137103033	614.58895265202	3.27278270028027	44.2063747630204	0.36560328813994	-0.428051026593254	-0.00214909004968011	0.00100354125047469
0.32	-2.31462953298827	0.741837278955118	614.553860050323	3.23792320845128	44.2601070642675	0.34041378220945	-0.405967417046804	-0.00220474916443492	0.00110210118511994
0.33	-2.46730520090116	0.776166567876175	614.281334779234	3.19804407689173	44.3060526610844	0.320228640184191	-0.389009022104083	-0.00226649681756619	0.00121594441675915
0.34	-2.60425968964358	0.815083838373731	613.827865688198	3.15433197164812	44.3569151376143	0.305445236011182	-0.377716282143551	-0.00233287227168932	0.00135918207385227
0.35	-2.72463286751137	0.859603325572143	613.290102756952	3.10709660486588	44.4256524577506	0.295810946595496	-0.371908525228069	-0.00240420053507295	0.00154156969048486
0.36	-2.83218315867552	0.9091619300106	612.785610439332	3.05607080289752	44.5216820393373	0.290541379339552	-0.370774597344518	-0.00248193346809367	0.00176457763870935
0.37	-2.93287282710949	0.96173946028953	612.427823256293	3.00103933972656	44.6477300141307	0.288563804112018	-0.373113278192747	-0.0025674048498272	0.00201921430523333
0.38	-3.03202790547979	1.01429412988992	612.300507478272	2.94262301776967	44.7980909727722	0.28882932673216	-0.377665935824306	-0.00266033072441596	0.00228622323995503
0.39	-3.13179284403325	1.06336908200189	612.437792838492	2.88296042738323	44.9587638995672	0.290604615314729	-0.38344463905836	-0.00275752795295625	0.00253868934676232
0.4	-3.22948247878089	1.10568327352418	612.815101018419	2.82602038177868	45.1095079049679	0.293654073763523	-0.389954460712514	-0.00285233044704991	0.00274648516975473
0.41	-3.31720193015444	1.13853568618725	613.353965994006	2.77736249971959	45.2274129693588	0.298258964537215	-0.397243946969409	-0.00293502327203066	0.0028815344319868
0.42	-3.3828248388101	1.15992898737742	613.940254291562	2.74332634588052	45.2912161039865	0.305076593692814	-0.405778958033391	-0.00299431962411434	0.00292269274038048
0.43	-3.41214631840156	1.16843562574588	614.451584332851	2.72982052830116	45.2854068649729	0.314895182195837	-0.416195771287673	-0.00301956464979258	0.00285918643587235
0.44	-3.39179138747663	1.16294231752862	614.786968426968	2.74103282431037	45.2032088809357	0.328366070931638	-0.429023681455318	-0.00300308494340429	0.00269195317870391
0.45	-3.31228346115649	1.14246753338372	614.890823797101	2.77842998660279	45.0477864161416	0.345786964607451	-0.444463769505062	-0.00294201906789637	0.00243275999337683
0.46	-3.17058913519515	1.10621656402005	614.764916072111	2.84033705188263	44.8314397083713	0.366978505501452	-0.462276772205124	-0.00283910461288539	0.00210147930836196
0.47	-2.97149555849538	1.05392255253225	614.465154204239	2.9222070807963	44.573015832515	0.391261669476716	-0.481789443023052	-0.00270221533167703	0.00172225529107428
0.48	-2.72737873301424	0.98636511261448	614.084439900252	3.01748129532665	44.2941621024874	0.417521287319005	-0.50199518041731	-0.00254281958222646	0.00131943316837202
0.49	-2.45627876572955	0.905833581808864	613.72666613489	3.11877598192377	44.0152954761305	0.444334315676515	-0.521709637170068	-0.00237382947068265	0.000914064127018555
0.5	-2.17864225477526	0.816276156927483	613.479276763504	3.21907121243671	43.7522005039455	0.470141829811903	-0.539741963256611	-0.00220743018991576	0.000521591468447713
0.51	-1.9134971433144	0.722974012701652	613.391888119823	3.31262572321211	43.513992275462	0.493441164668303	-0.555048752558848	-0.0020534018249514	0.000151033308857462
0.52	-1.67504821773427	0.631766226374922	613.466396065108	3.39546640951626	43.3028294074967	0.512967226148455	-0.566845388281154	-0.00191822906602046	-0.000194342612611587
0.53	-1.4706174777502	0.548044665634007	613.660470603044	3.46544283652847	43.1153179672267	0.527827010987286	-0.574658842893411	-0.00180503526624687	-0.000515160230859846
0.54	-1.30048857784055	0.475847196583409	613.902494996807	3.52194684312355	42.9451208165211	0.537558282367461	-0.578319607560183	-0.00171416597651952	-0.00081344327920202
0.55	-1.15964562244838	0.417349524029062	614.112986594875	3.56544990758423	42.7859906246976	0.542104716620273	-0.577907305115761	-0.00164413335132818	-0.0010901743654701
0.56	-1.04080789529106	0.372902596128439	614.226167086177	3.59700914266127	42.6343612205508	0.541727639707681	-0.573678386824212	-0.00159262012650296	-0.00134357333666529
0.57	-0.937758024557712	0.341553495947327	614.205899719342	3.61785604710667	42.4907864283549	0.536894693222679	-0.566007253607019	-0.00155730253667341	-0.00156858442021107
0.58	-0.847885174606596	0.321814158014209	614.052349708265	3.62913216140103	42.3598649508431	0.528187621264327	-0.555360832534513	-0.00153634926823365	-0.0017577474609104
0.59	-0.773142092596534	0.312372338580329	613.79867084344	3.63178711232135	42.2487332275946	0.51625441042011	-0.542305823559681	-0.00152855911388372	-0.00190325032051769
0.6	-0.719144222567004	0.312490222873459	613.49982580229	3.62661381300244	42.1646166312312	0.501805391597668	-0.527528459874064	-0.0015331943317628	-0.00199961654656555
0.61	-0.692737562068631	0.321973967833792	613.217499843698	3.61436630231483	42.1121856778154	0.485632758256825	-0.511839459395029	-0.00154963569746358	-0.00204627358781179
0.62	-0.698835408458745	0.340760897748054	613.005534793462	3.5958923107118	42.0914985361519	0.468627511899225	-0.496145648682496	-0.00157701564532131	-0.00204923831210035
0.63	-0.73753369149466	0.368301633016435	612.899434104007	3.57221963331584	42.0971225013094	0.451776200535278	-0.481388598072773	-0.00161396868566732	-0.00202135837756717
0.64	-0.802415068797065	0.402977329903071	612.911728687415	3.54456222578137	42.1186802302515	0.436132689794216	-0.468467425982252	-0.00165857737129904	-0.00198090867274719
0.65	-0.880595619640359	0.441779380545832	613.033037279866	3.51424877699467	42.1426697851114	0.422767493909625	-0.458167281047196	-0.00170851011576623	-0.0019487644513117
0.66	-0.954577215038086	0.480401368047562	613.237173359915	3.4826064263761	42.1550763427133	0.412695704853753	-0.45110519357273	-0.00176127951762917	-0.00194474444281795
0.67	-1.00548924896537	0.513773226559575	613.488052653031	3.45084082449225	42.1441142087231	0.406780052027898	-0.447689251536073	-0.00181452612176147	-0.00198394262807927
0.68	-1.01695608127312	0.536936364341393	613.746456466133	3.41993938780095	42.102444800545	0.405607528143715	-0.448077787555131	-0.00186625721439571	-0.00207389127668078
0.69	-0.978676719253734	0.546053066147875	613.975560075939	3.3906009435233	42.0283883538245	0.409350941789306	-0.452130111819246	-0.00191501864897081	-0.0022132150546218
0.7	-0.888860371015498	0.539298494329125	614.145026192528	3.36318088482642	41.9259218589587	0.417645720500713	-0.459356777732304	-0.00196001346040631	-0.00239209010615493
0.71	-0.754899642470328	0.517415933194569	614.233968992404	3.3376459169629	41.8035532086529	0.429525557780662	-0.468894625999023	-0.00200118291427509	-0.00259439611830059
0.72	-0.592040124933201	0.483811689528191	614.233081929017	3.31354923496106	41.6724077906118	0.443457628453369	-0.479538120877291	-0.00203924208914275	-0.00280104928102642
0.73	-0.420262592079924	0.444183039988577	614.145872995761	3.29004836610911	41.5440074458537	0.457496912697187	-0.489848181859522	-0.00207564132898719	-0.00299373332733388
0.74	-0.260045389441997	0.405762145853032	613.988607914354	3.26598160191137	41.4282416988487	0.469546948694202	-0.498336148919103	-0.0021124300619848	-0.00315817655164496
0.75	-0.128004610764813	0.376295621524466	613.788509616225	3.2399975473615	41.3319364056824	0.477683204556254	-0.503693421175938	-0.00215203002425868	-0.00328627116498781
0.76	-0.0335035599177359	0.362877054468947	613.580069530326	3.21071081887976	41.2582488636917	0.480475791587059	-0.505017629861418	-0.00219695877296555	-0.00337665020563488
0.77	0.0228821479207536	0.370748026391946	613.399834615438	3.17685015735106	41.2069093368518	0.47724539492466	-0.5019814609345	-0.00224955741197674	-0.00343373037446854
0.78	0.0486300063651377	0.402214744822028	613.280483903545	3.13737615398378	41.1751383401769	0.468199108781816	-0.494902086529391	-0.00231176214488771	-0.0034655849958023
0.79	0.0564629876825507	0.455887811442847	613.245205214652	3.09156394482105	41.1589393239802	0.454416576095514	-0.484693436478397	-0.00238493258531169	-0.00348124078020179
0.8	0.060229247835592	0.526495854059999	613.30330055536	3.03905665992763	41.1544213978639	0.437685340591722	-0.472712100722189	-0.00246973385375526	-0.00348805508548994
0.81	0.0705781949984382	0.605488053101156	613.447708119263	2.97989061564689	41.1588471019131	0.420211670260437	-0.460531241716652	-0.00256607664586772	-0.00348973993604262
0.82	0.091581267845767	0.682490015630569	613.654879463957	2.91447907355314	41.171205247834	0.404254367608949	-0.449688480904602	-0.00267314089902204	-0.00348540495673644
0.83	0.119180298866213	0.747433154411895	613.887249827999	2.84353292519776	41.1922438404697	0.391741307913532	-0.441451533221441	-0.0027895205153976	-0.00346975477855382
0.84	0.141864245236614	0.792919519423412	614.098319389529	2.76790736765243	41.2240255530997	0.383931519762059	-0.436633954159059	-0.00291350692374892	-0.00343434879499277
0.85	0.143411393263534	0.816218351124177	614.240008421325	2.68839544156845	41.2691594586543	0.381181607231658	-0.435481109794194	-0.0030434746117397	-0.00336964480095003
0.86	0.107031124952962	0.820301419754449	614.271425671642	2.60552968938591	41.3299055400196	0.382865960666312	-0.437640029153674	-0.00317826250058895	-0.00326741861891178
0.87	0.0199135475612442	0.813532495906798	614.167618966182	2.51948061498249	41.4073474326606	0.387484294009908	-0.442225876186788	-0.00331739698674094	-0.00312308623114271
0.88	-0.122886323305837	0.807978231804658	613.9264987904	2.43013480275312	41.5007975598582	0.392963482063727	-0.447994558153389	-0.00346101002233445	-0.0029374589210201
0.89	-0.316135782224027	0.816695150104717	613.572164653329	2.33738747344088	41.6075497965032	0.397120535143534	-0.453615513557254	-0.00360938464075145	-0.002717541749226
0.9	-0.544226771812784	0.850648778195356	613.153402248849	2.24160226071746	41.7230336052835	0.398203975134671	-0.45800742782958	-0.00376219760637309	-0.00247614259935297
0.91	-0.783173538212787	0.916043911057344	612.737051758163	2.14410115679399	41.8413515484704	0.395386347780945	-0.46066132759095	-0.00391768115441515	-0.00223027975802675
0.92	-1.0044268093128	1.0127544356576	612.397038816192	2.04748743271363	41.9561042073606	0.389062844679347	-0.461850019944784	-0.00407203046504723	-0.00199862612359153
0.93	-1.17976449876079	1.13426446187392	612.200848535993	1.95560973317245	42.0613375016979	0.380838948863073	-0.462631201322292	-0.00421938063761063	-0.00179845414336266
0.94	-1.28631985659483	1.26914497147679	612.195903682598	1.87306315359689	42.1524098846406	0.373167250445795	-0.464602459104985	-0.00435253814207381	-0.00164268669913198
0.95	-1.31079858816219	1.40369132953005	612.398553890524	1.80427619151872	42.2265919895297	0.368701002371286	-0.469447311975355	-0.00446440356232514	-0.00153766590390203
0.96	-1.25210659559658	1.5250377510251	612.788133195321	1.75239996790726	42.2832854388284	0.369532051424158	-0.478391451157988	-0.00454974770487659	-0.00148210595769588
0.97	-1.12191696541157	1.6239283576692	613.307795936949	1.71833011076351	42.3238631191889	0.376533250322826	-0.491732653285087	-0.00460681243690464	-0.00146742545050438
0.98	-0.94308419747042	1.696407427662	613.872667344609	1.70019695790756	42.3512500296316	0.389006608473365	-0.508595729789558	-0.00463819136490784	-0.00147933192700561
0.99	-0.746193961283098	1.7439859639066	614.384407011988	1.6935408125219	42.3694335172145	0.404752655230547	-0.526999120760949	-0.00465063002369537	-0.00150025412622284
1	-0.564853698151457	1.77227704344655	614.749827813659	1.69218048524613	42.3830808667794	0.420553764288271	-0.544227472088198	-0.00465371611556908	-0.00151206790513808
1.01	-0.430535523148178	1.78854679042676	614.900037204665	1.68955774933112	42.3973516370157	0.432945669201427	-0.55741757421979	-0.00465779171787217	-0.00149857349730853
1.02	-0.367849545292595	1.79896211673434	614.805977729282	1.68017917417367	42.4178606910423	0.439072245242401	-0.564208996099586	-0.00467168043247346	-0.00144732651036211
1.03	-0.391042819923718	1.80641946143914	614.486503124272	1.66073871936558	42.4506361185531	0.43739752677954	-0.563296600561436	-0.00470088880449659	-0.00135063477588176
1.04	-0.502296750915117	1.8096673968376	614.006380103196	1.63060350759728	42.5018779669015	0.428087133977044	-0.554748043947971	-0.00474678982118959	-0.00120573686771658
1.05	-0.692068114471118	1.80403374542324	613.463765043525	1.59154716937172	42.5773804323298	0.41295723346217	-0.540006680788883	-0.00480698063215224	-0.00101433072011892
1.06	-0.941343862253062	1.78355518120794	612.969354482015	1.54685139970899	42.6816118412776	0.395002710556012	-0.521577195938078	-0.00487663528027027	-0.000781707974889856
1.07	-1.22532836173858	1.74384422743242	612.621830865655	1.50008838594679	42.8166020615763	0.377630608643623	-0.502472250038474	-0.00495037010858002	-0.000515773625543448
1.08	-1.51782066849142	1.68476258255258	612.485598175163	1.45398302462823	42.9809065418317	0.36380945068648	-0.48556336198098	-0.00502400158093275	-0.000226194366662047
1.09	-1.7954181122229	1.61198718326943	612.576525714278	1.40971007173321	43.1689564958588	0.355372427074636	-0.473007184294428	-0.00509564178965183	7.61752131729354e-05
1.1	-2.0407275589828	1.5368547546905	612.859417048811	1.36682736703168	43.3710524550663	0.352669082565861	-0.465895934594136	-0.00516581509380354	0.00037957974137548
1.11	-2.24398056935837	1.47436552519721	613.257749731958	1.32383654350497	43.5741302624492	0.354654891473752	-0.46421096622749	-0.00523660519588309	0.000671506231700425
1.12	-2.40280894606471	1.43977482620022	613.672901289062	1.27916506507668	43.7632605219425	0.359372595840595	-0.467062813079637	-0.00531014989607959	0.000938933049728252
1.13	-2.52038132750716	1.44464498195634	614.00766178515	1.23223581896958	43.9236755871396	0.364658059352145	-0.47311275595959	-0.00538700088644972	0.00116894092787617
1.14	-2.60252740517078	1.49343864329605	614.188043187969	1.18426484484077	44.0429881128247	0.368838104501526	-0.48102176201624	-0.00546490809208533	0.00134982434509229
1.15	-2.65475788549496	1.58163969134841	614.178326251324	1.1385065573876	44.1131976626801	0.371200795855611	-0.489779646730475	-0.00553846736317254	0.00147262838271101
1.16	-2.6801155987909	1.6960041301821	613.986451235849	1.09982627531029	44.1320909430808	0.372104585440887	-0.498825976132673	-0.00559982063109288	0.00153280467644967
1.17	-2.67852350590072	1.81697261932452	613.659463342342	1.07368056483963	44.1037285523832	0.372720254867594	-0.507960410053894	-0.00564028244014902	0.00153152347846169
