Time [s]	GRFml [N]	GRFap [N]	GRFv [N]	Mml [N.m]	Map [N.m]	Mv [N.m]	Mfree [N.m]	COPml [m]	COPap [m]
0.01	-2.13446861510818	2.1863924166268	729.41475426224	13.217739248243	-33.3851318005814	1.59102047729485	-1.52982519423844	-0.002050680314307	-0.00348736555576362
0.02	-1.90773572332525	2.33044403818444	727.548217590032	13.3454933041614	-33.83682644216	1.54641361814106	-1.47303945926791	-0.00182242766569818	-0.00422661616963704
0.03	-1.72121854634026	2.47497027518433	725.907781741736	13.4744435537415	-34.3088249461863	1.49910928410611	-1.41408190090346	-0.00159835636509265	-0.00497931770027465
0.04	-1.5974991608017	2.61933447433127	724.676189513721	13.6028769717732	-34.8144980418076	1.4485804219479	-1.3527206804305	-0.00138556142968482	-0.00575209052534997
0.05	-1.52365028054878	2.75868735686999	723.946755242765	13.7246197364957	-35.3631475715907	1.39869776407929	-1.29273174240783	-0.00119499937065648	-0.00655180286546664
0.06	-1.4513305379324	2.88343949295812	723.706168099052	13.8292153354861	-35.9591672418041	1.35774408978688	-1.24196284546065	-0.00104079599882412	-0.00738555930991225
0.07	-1.31134591297637	2.98053640512874	723.844131537864	13.9041613899091	-36.6012477827012	1.33650667703172	-1.21064206079626	-0.000937397939851592	-0.00825898325232238
0.08	-1.03697318654885	3.03624879005884	724.186463566726	13.9385411887614	-37.2818166879479	1.34506556515049	-1.20845067714074	-0.000895399593556112	-0.00917326766514537
0.09	-0.58731726389865	3.03981465270767	724.541671773921	13.9269140629439	-37.9870968606051	1.38935744785415	-1.24130862381553	-0.000917359866765111	-0.0101221739424023
0.1	0.0375454023368424	2.98704331798279	724.747592283514	13.8722322684018	-38.6981497801484	1.46867374536117	-1.30892590527037	-0.00099496853841774	-0.0110903654368739
0.11	0.794433927899509	2.88291067560304	724.705628678586	13.7868180691001	-39.3930097752654	1.57493937061521	-1.40393692426813	-0.00110857910355966	-0.0120540506701831
0.12	1.60791971205357	2.74227603748931	724.394977961701	13.6909678440896	-40.0496349618553	1.69403659466394	-1.51294184999816	-0.00122951298932772	-0.0129840703001641
0.13	2.38988107958832	2.58818499292114	723.866061292104	13.6094016764083	-40.6490794729576	1.80879006289607	-1.6191932604854	-0.00132481449514876	-0.0138506680125516
0.14	3.06118730141953	2.44778964790759	723.218615984537	13.5663750448621	-41.1781743761679	1.90273047429026	-1.70617538570979	-0.00136346771077733	-0.014628608553015
0.15	3.56915162342408	2.34661017619394	722.573396510369	13.5806541473898	-41.6311301423773	1.96355995315849	-1.76107954933227	-0.00132264144057681	-0.0153012467186111
0.16	3.89658114661306	2.30246905517441	722.046277445703	13.6616194814295	-42.0097717662082	1.98539435991986	-1.77724921196041	-0.00119243357231424	-0.0158625753032394
0.17	4.06129305734154	2.32071299542111	721.730372950797	13.8074795925975	-42.3224594368107	1.96928103258566	-1.7550129637128	-0.000977893002253372	-0.0163169671383704
0.18	4.10768359943928	2.39213955060981	721.687339240617	14.006023329974	-42.5820146381574	1.92202710043446	-1.70081916641734	-0.000697748145931265	-0.0166769914891275
0.19	4.09357615046998	2.49437309411712	721.945352458428	14.2376725869036	-42.8031070552826	1.853845809012	-1.625067984236	-0.000380101086898565	-0.0169601078624084
0.2	4.07599042021882	2.59647679707582	722.49978351062	14.4800126073209	-42.9995744171274	1.77559933851886	-1.53935923483155	-5.61234063058969e-05	-0.0171851407640448
0.21	4.0989775075083	2.66565145101266	723.313571415806	14.7126397860479	-43.1820955361835	1.69642857756503	-1.45395461017364	0.000246711391438281	-0.0173692745258365
0.22	4.18570962766445	2.6742731575865	724.316805065785	14.9211603139866	-43.3565591088691	1.62234111927138	-1.37608982734496	0.000510243694932244	-0.0175260099566757
0.23	4.33592869942781	2.60546336805136	725.407525572481	15.0994736338674	-43.5233764281188	1.55597107089374	-1.30943999548727	0.000728824312866694	-0.0176642220378784
0.24	4.52877378577323	2.45588152825647	726.456909666602	15.2499705812132	-43.6778572182016	1.49734962222232	-1.25465818787185	0.000909480806781993	-0.0177882227529885
0.25	4.72995898665002	2.23530453149981	727.321248246901	15.3818133236728	-43.8115906710964	1.44524627647767	-1.21059579003371	0.00106920929051824	-0.0178985793958287
0.26	4.90136067846005	1.96350550285107	727.860907035997	15.5078989701397	-43.9145687411557	1.39853086181114	-1.17566371006944	0.0012302134211063	-0.0179933536750758
0.27	5.01052191248762	1.66565280152758	727.963774998204	15.64134547507	-43.977614310119	1.35708345146072	-1.14883788979556	0.00141431826773475	-0.018069405964079
0.28	5.03765238484777	1.36770315347934	727.568638910858	15.7923459608749	-43.9946023628879	1.32200249638531	-1.13001775805364	0.00163786107491271	-0.0181234637284311
0.29	4.97850551199121	1.09301048238326	726.683122511049	15.9660450251407	-43.9640260756409	1.29514592314643	-1.11972827453142	0.00190812631816373	-0.018152788727673
0.3	4.84286819747609	0.860735194616183	725.391402902503	16.161771040252	-43.8896409831998	1.27828418045819	-1.11841031043008	0.00222194530897701	-0.0181554629396363
0.31	4.64983820367094	0.685861236248151	723.848597399779	16.3736057940029	-43.7801468719226	1.27226455244238	-1.12568200945886	0.00256655425558316	-0.0181304752245212
0.32	4.42201825092986	0.579995661396088	722.261124420463	16.5919770306635	-43.6480544668531	1.27654624543237	-1.13993418198552	0.00292232879510101	-0.0180778462649116
0.33	4.18081929421316	0.551872984630108	720.855140782685	16.8057843125511	-43.5079827374192	1.28929003078317	-1.15846411954032	0.00326668130550389	-0.0179989375111229
0.34	3.94421518036173	0.606719261268688	719.837986795065	17.0045375529981	-43.3746509078117	1.30794946784653	-1.17812281337783	0.00357826213472479	-0.0178968893320231
0.35	3.7269292709038	0.744277486037142	719.359918147567	17.1800823132838	-43.26081745547	1.33010839059503	-1.19624055070995	0.00384064173045484	-0.0177769331979908
0.36	3.54181517644095	0.956116422277821	719.484567717999	17.3276582321522	-43.1754263899209	1.35421916901686	-1.21148244436321	0.0040448303607119	-0.0176462464663434
0.37	3.40071232664718	1.22350056586848	720.175846448067	17.4462277072547	-43.1222572610874	1.37994808057272	-1.22430559578718	0.00419026507582909	-0.0175131345415507
0.38	3.31354759664191	1.51727495907165	721.305981796679	17.5381699614904	-43.0993950021172	1.4080004039117	-1.236829995854	0.00428420703303467	-0.0173856023028318
0.39	3.28566374805682	1.80076191361168	722.684411702494	17.6085296294705	-43.0997684312312	1.43950804439731	-1.25214136073918	0.00433979437628806	-0.0172696921474323
0.4	3.31465453668707	2.03567706947755	724.101441247999	17.6640318472697	-43.1128062187111	1.47523333257964	-1.27324207557637	0.004373235813805	-0.017168163583487
0.41	3.38867369699679	2.18989220056862	725.375701974309	17.7120423489918	-43.1269486172209	1.51491050902353	-1.30198900231813	0.00440076323055316	-0.0170800553458866
0.42	3.48784062067804	2.24496454575753	726.392384039214	17.7595911671478	-43.1324311110279	1.55698968713929	-1.33836456652754	0.00443596097940657	-0.0170013913370294
0.43	3.58907736471723	2.20111003683341	727.121126685665	17.8125261589518	-43.1235618227372	1.59889240789956	-1.38031979050785	0.004487957610261	-0.0169268628288028
0.44	3.67305614219002	2.07787181156493	727.608236723439	17.8748418463201	-43.0997630386198	1.63769440707831	-1.42424241578436	0.00456073898958198	-0.0168519105386055
0.45	3.73071016703547	1.90996291473206	727.94594022221	17.9482418248167	-43.0649672361463	1.67099264833245	-1.46590271085367	0.00465357944261124	-0.0167744138618251
0.46	3.76659171182507	1.73922590874087	728.228968137912	18.0320156962452	-43.0254650864685	1.69764699108543	-1.50158040128682	0.004762352160257	-0.0166952743300373
0.47	3.79739667752048	1.60484581849008	728.513138923128	18.1233069427416	-42.9868240122828	1.71813258469148	-1.52902556471311	0.0048813188254847	-0.016617545441294
0.48	3.84580317668838	1.53447664689202	728.789973334464	18.2177894244419	-42.9508364844395	1.73437558819326	-1.54796668546828	0.00500493596187424	-0.0165442858457796
0.49	3.93161604301987	1.53864467559027	728.985832755621	18.3106629079666	-42.9134823491774	1.74911950227611	-1.56002579924107	0.00512925751203075	-0.01647580425388
0.5	4.06328949014427	1.60980538342388	728.985576870533	18.3977648435746	-42.8645819402145	1.76502060001109	-1.56808330090429	0.0052526503253687	-0.0164072372741202
0.51	4.23278024894191	1.72609173392076	728.67239569744	18.4765354350321	-42.7892856219097	1.78375041484626	-1.57529576942752	0.00537574509500072	-0.0163273516082781
0.52	4.41544702228825	1.85850376825031	727.970292644607	18.5466064637611	-42.6709809467329	1.80537076779562	-1.58406268805539	0.00550077146887584	-0.0162191057473013
0.53	4.57489840081471	1.97939465633835	726.875400342979	18.6099067065236	-42.4947946296064	1.82815353450793	-1.5952400104889	0.00563060646183089	-0.0160619699662223
0.54	4.67104101645804	2.06981219000988	725.46670730055	18.6703364989589	-42.2507460337697	1.84887922278681	-1.60781636756269	0.00576793524953101	-0.0158354722464387
0.55	4.66871434949396	2.1236115085495	723.893938608806	18.7331875643688	-41.9357840716018	1.86351303356678	-1.61913144917342	0.00591484800763142	-0.0155230860079287
0.56	4.54447488042863	2.14718089866431	722.347486939667	18.8045143428311	-41.5543191315782	1.86806736740266	-1.62556844420658	0.00607299271405182	-0.015115505757366
0.57	4.29012303595894	2.15490930595181	721.019949269046	18.8905891162646	-41.1172970249165	1.85943894139245	-1.62353419940607	0.00624414265748907	-0.0146125687848708
0.58	3.91292645520866	2.16185443227079	720.069749514414	18.9974386171807	-40.6402077401003	1.83605182560687	-1.61047834878054	0.00643082087802116	-0.0140234793270074
0.59	3.43355940762804	2.17606266279407	719.594856815769	19.1303419751252	-40.1405872941021	1.79821483433392	-1.58570236692796	0.0066365459821589	-0.0133654269569664
0.6	2.8831085837859	2.19329369231842	719.62030467712	19.2931425518641	-39.6355435176776	1.74817358016833	-1.5507610724388	0.0068653714475676	-0.0126610205069378
0.61	2.30003311988929	2.1963157099892	720.099028159789	19.4873215642928	-39.1396733200118	1.68987731682341	-1.50934572937253	0.00712066009505596	-0.0119351008835118
0.62	1.72707233306796	2.15953126505262	720.922923609098	19.710969608449	-38.6635348742559	1.62848913532744	-1.4666450061522	0.00740337615128117	-0.0112114572669407
0.63	1.20737084568673	2.0578459922542	721.940437360796	19.9579896202473	-38.2126850007831	1.56967077139151	-1.4282962459349	0.00771046101131234	-0.0105098331215657
0.64	0.77906401864302	1.8770080382566	722.977837306996	20.2179682605272	-37.7872417475342	1.51870058718043	-1.39914953505192	0.00803396628821595	-0.00984347921201995
0.65	0.468380394696855	1.62176775140042	723.862504568457	20.4770859551826	-37.3819765674735	1.4795446411214	-1.38214477302014	0.00836148578436047	-0.00921746196427009
0.66	0.282610110054698	1.31856431747493	724.44709655543	20.7201872523547	-36.9870157908014	1.45407144320119	-1.37761302389578	0.00867807759474382	-0.00862795925984761
0.67	0.205344091583131	1.01104875778763	724.632873842521	20.9337672763869	-36.5892497643185	1.44163248879164	-1.38323126698596	0.00896940112282529	-0.00806279031614771
0.68	0.196507253716033	0.749131526089339	724.389191636876	21.1092676786753	-36.1744472958829	1.43918012423647	-1.39468672150001	0.00922536256138706	-0.00750333076095822
0.69	0.198594671064502	0.574583741947904	723.764989023457	21.2458511907017	-35.7298566609735	1.4419555799605	-1.40688692827502	0.00944331594634695	-0.00692771159222721
0.7	0.148484667455505	0.507658270643351	722.888000750965	21.3518372755982	-35.2468226404197	1.44459607174982	-1.41536116825008	0.00962990261491192	-0.00631484357185003
0.71	-0.00794510568216534	0.539151474816968	721.948942915934	21.4442586149404	-34.7227860617593	1.44235659426567	-1.41741688117305	0.00980093928621051	-0.0056484832104135
0.72	-0.302500906129139	0.630748241902722	721.171026705457	21.5464755761862	-34.162065305	1.43209089934435	-1.41268574435919	0.009979294956311	-0.00492041715691205
0.73	-0.736653101370908	0.723898017317661	720.769104773811	21.684322631778	-33.5750803983935	1.41271613986899	-1.40290108012804	0.0101912624919464	-0.00413198064192682
0.74	-1.28126783744221	0.754752119958813	720.906361001761	21.8816818473699	-32.9761031616316	1.38506597192957	-1.3910148567538	0.0104623400410078	-0.00329352371811625
0.75	-1.88415900141431	0.670784235989985	721.658445734535	22.1565372514043	-32.3800602747072	1.35124127357761	-1.37998436002623	0.0108134446310999	-0.00242197344645817
0.76	-2.4832111097042	0.444239003739719	722.994423013456	22.5184011693764	-31.7992236110977	1.31371267909189	-1.37165034172921	0.0112583505143244	-0.00153713862727034
0.77	-3.02138227996197	0.078612065956378	724.780618813061	22.9675766655568	-31.2406853073856	1.27446542350984	-1.3660623197114	0.0118026762140172	-0.000657715117156843
0.78	-3.45970901188195	-0.393454699731723	726.80805059534	23.4961827689053	-30.7053119180589	1.23440979013137	-1.36142227689166	0.012444232105673	0.000202004796642841
0.79	-3.7853554308641	-0.919921953598973	728.837901759209	24.0904090507225	-30.1884668517133	1.19315941178397	-1.35459905025899	0.0131741915292397	0.00103393052981743
0.8	-4.01327406259774	-1.44367182065242	730.654199578095	24.7332290235022	-29.6823034677026	1.14916647221106	-1.34199847072504	0.013978486144147	0.00183609497672821
0.81	-4.18160573938461	-1.91721460604918	732.110125773485	25.4068364677717	-29.1789987283662	1.10013753005182	-1.32051010009016	0.0148390339737379	0.00261080416780352
0.82	-4.34216270851107	-2.31375841038574	733.155336831349	26.0943180793746	-28.6740350645556	1.04363868519396	-1.28829070568473	0.0157347430918421	0.00336157500334727
0.83	-4.54809775127434	-2.63189303201332	733.836403708241	26.7804145794502	-28.1686164310009	0.977806930284198	-1.2452467585948	0.0166425024036664	0.00408973786130418
0.84	-4.84122626313591	-2.89308425092579	734.269917762682	27.4515191480236	-27.6705323789819	0.902082509398713	-1.19318728272197	0.0175384317926887	0.00479167720516205
0.85	-5.24151845896819	-3.13319251683136	734.595873746593	28.0952330074112	-27.1932041228791	0.8178493587723	-1.13569042100988	0.0183994974615718	0.005457525616962
0.86	-5.74100596338326	-3.39075826881733	734.925138660554	28.699829503937	-26.7531459336295	0.728830247680446	-1.07774700955463	0.0192053121369434	0.00607174539191097
0.87	-6.30366565957032	-3.69545233718148	735.297056918265	29.2539114141205	-26.3665132610568	0.641064888904242	-1.02522693778866	0.0199397064111188	0.00661552231513507
0.88	-6.87170911563789	-4.05976056947141	735.660600344583	29.746440015321	-26.0456593044917	0.562339583177243	-0.984191209286847	0.0205916195296615	0.00707039624368466
0.89	-7.37724725402684	-4.47582444766921	735.885583233563	30.1672088281065	-25.7966127877246	0.501051181587109	-0.960075098710334	0.0211550518774039	0.00742220203550265
0.9	-7.75686496577917	-4.91778005049249	735.801392502653	30.5077378525185	-25.6181288340815	0.464656079922159	-0.956808170533516	0.0216281593440421	0.00766428986759959
0.91	-7.9656960756511	-5.34841025733319	735.252260872119	30.7624643099047	-25.5025347034491	0.458023399400228	-0.976002069039432	0.0220118877502287	0.00779916289110455
0.92	-7.98751618479606	-5.72788603362549	734.152972443843	30.9299990930308	-25.438120595967	0.48211377400603	-1.01639330459845	0.0223086906096636	0.00783806338982468
0.93	-7.83826881638126	-6.02208281391788	732.5285773479	31.0141260711781	-25.4124418734967	0.533389290461921	-1.07373740787264	0.0225217815280323	0.00779855001002244
0.94	-7.56206293278197	-6.20843152718393	730.526168622963	31.0241891803245	-25.4156936379881	0.604212434807761	-1.14128867676205	0.0226550963050183	0.00770060861839927
0.95	-7.22054411926028	-6.2782770488237	728.394533108333	30.9745840237611	-25.4433237872843	0.684244826177532	-1.21086956567849	0.0227138151826283	0.00756220975784155
0.96	-6.87813430636658	-6.23589367379871	726.436162826043	30.8832583718783	-25.4972437842588	0.762578249306093	-1.27436780721157	0.022705067986173	0.00739538454079558
0.97	-6.58659112008166	-6.09525126951705	724.943299181115	30.769389983976	-25.5853202865594	0.830102624087028	-1.32534878753311	0.0226383973879715	0.00720380290117412
0.98	-6.37250533346414	-5.87605393946975	724.133626584055	30.6506664142624	-25.7192162234605	0.881508768606489	-1.36038886252378	0.0225256774412944	0.00698251546701378
0.99	-6.23074973703555	-5.60040426523568	724.101186514192	30.5407434512184	-25.9110281420563	0.916378889778699	-1.37976023269309	0.0223803920044625	0.00672001987658499
1	-6.12563161308261	-5.29081712372953	724.794307609315	30.447441171881	-26.1694710766515	0.939033577323333	-1.38723835796743	0.022216369663725	0.00640223317565641
1.01	-5.9997809704134	-4.96950990931476	726.025889022018	30.3720473237629	-26.4965273507934	0.957133214885988	-1.3890304791171	0.022046185598262	0.00601742680894535
1.02	-5.78893278543042	-4.65826227572454	727.513763983951	30.3098025408856	-26.8854447225016	0.979386320507525	-1.39207632196219	0.0218794758146182	0.00556085413768959
1.03	-5.439154621904	-4.37791262410822	728.941817661929	30.2513466787264	-27.3207139331187	1.0129899524309	-1.40216925892332	0.021721408676548	0.0050377898467624
1.04	-4.92219332810472	-4.14680967330843	730.027628033148	30.1847109670155	-27.7802014138455	1.06152501548025	-1.42241727025075	0.0215715671320601	0.00446405085918383
1.05	-4.24481528220129	-3.97814251405863	730.580812562024	30.0974003739756	-28.2390522928485	1.12390969515393	-1.45247534116746	0.0214235194941886	0.00386371899620874
1.06	-3.44937151950558	-3.87677219430224	730.538473353953	29.9782122670009	-28.6744600622785	1.19470630546253	-1.48875624407651	0.0212653566119732	0.00326457100881111
1.07	-2.60506272790812	-3.83668959619131	729.969733296756	29.8186141681267	-29.070085874304	1.26567422633294	-1.52553558545908	0.0210813855693487	0.00269241162698286
1.08	-1.79193971958329	-3.84031202655645	729.049052793909	29.6136677749654	-29.4189254031127	1.32809063253293	-1.55660346821513	0.0208549537268585	0.00216587593807799
1.09	-1.08183103017574	-3.86044079982408	728.005877505541	29.3625713757591	-29.7237963173957	1.37513706436773	-1.57696265735602	0.020572052726935	0.00169317818708248
1.1	-0.521467826274488	-3.86494132024415	727.064096980725	29.0688800146043	-29.9952708586018	1.40364165492945	-1.58407709709261	0.0202250127550881	0.0012717346577546
1.11	-0.122654390211516	-3.82331458811487	726.387131486561	28.7403867122591	-30.247620826079	1.41467557718192	-1.57832982587556	0.0198153792819517	0.000890732128783489
1.12	0.137602187283139	-3.71359828601484	726.042507838898	28.3885751281551	-30.4939430693608	1.41286446054787	-1.56260445965468	0.0193550911536651	0.000535818076210781
1.13	0.307065312113746	-3.5277264143821	725.994056937386	28.0275477903508	-30.7418880023744	1.40468072058612	-1.54117902216251	0.0188654008399453	0.000194449960480791
1.14	0.441536938962745	-3.27373405322582	726.122010100975	27.6724230015326	-30.9912223732463	1.39630377861067	-1.51832908972695	0.0183735374914932	-0.000139722772978912
1.15	0.586833110574896	-2.97399241924213	726.263589833322	27.337356826437	-31.233871090236	1.39176523529341	-1.49711268055421	0.0179077540380621	-0.000464701797230072
1.16	0.765330746963683	-2.65978893863989	726.26144567139	27.0335222168207	-31.4562934020731	1.39198529812751	-1.47872668255004	0.0174919147299033	-0.000770697031111989
1.17	0.971348685772752	-2.36368076946819	726.005983505896	26.7674882089367	-31.643325549842	1.39498583696334	-1.46261071885489	0.0171409875861476	-0.00104299304376709
1.18	1.17646763825422	-2.11177160478263	725.460530238603	26.5404267574977	-31.7822132094926	1.397143183309	-1.4472030578572	0.0168586162687878	-0.00126601731739034
1.19	1.34232428706701	-1.91812084366102	724.664275752904	26.3484116971292	-31.8655947711234	1.39497258964027	-1.43102157139776	0.0166373927112975	-0.00142722632395326
