Time [s]	GRFml [N]	GRFap [N]	GRFv [N]	Mml [N.m]	Map [N.m]	Mv [N.m]	Mfree [N.m]	COPml [m]	COPap [m]
0.01	15.2497199037181	-2.43998477358876	572.570574066564	-3.27234390577372	26.6844031760796	3.88729661210675	-3.86083761917142	-0.000773932323503534	0.00238954487427273
0.02	14.980045019197	-2.29964981736088	569.869550457119	-3.37698872988023	26.7888415150097	3.87968320035855	-3.8604400738617	-0.000986171422516779	0.00279945372678819
0.03	14.7169969647709	-2.19274688230437	567.221121932619	-3.47460825493704	26.8827042583971	3.87463662966246	-3.86090989566959	-0.00118577365513839	0.00318684953424142
0.04	14.4640990949293	-2.14311167666973	564.69028929199	-3.55732887012191	26.9587603298014	3.87380450060129	-3.86260118270259	-0.00135835196414047	0.00353393460041229
0.05	14.2272930696991	-2.1584663520087	562.378123910636	-3.61718723021105	27.0140161240852	3.87713792010346	-3.86494193169985	-0.00148878709768585	0.00382706571845204
0.06	14.0169122124208	-2.22773674998536	560.41378178072	-3.64732436367718	27.0495741063347	3.88279648192249	-3.86651079596585	-0.00156342103951312	0.00405713457782997
0.07	13.8485362503744	-2.32382084125977	558.928057805117	-3.64380008284246	27.0690994233587	3.88768726515531	-3.86550021197493	-0.00157361166923509	0.00421914078050717
0.08	13.7418306211036	-2.41137075827564	558.019234618833	-3.60733593334499	27.0766640531894	3.88844723297293	-3.86037049651094	-0.00151928307286997	0.00431139278999709
0.09	13.716945984381	-2.45751374144975	557.724765150168	-3.54419645152472	27.0749723385477	3.88252745265138	-3.85042655029086	-0.001410889085668	0.00433492828166193
0.1	13.7889861687977	-2.44223731983434	558.009461218221	-3.46567241211388	27.064743053138	3.86900804604556	-3.83608972394293	-0.00126869106190164	0.00429357330652735
0.11	13.9620711382756	-2.36494913259386	558.774121340561	-3.38611649938187	27.0454519338951	3.84887282338135	-3.81876833926995	-0.00111920100494145	0.00419462507641255
0.12	14.2251149581962	-2.24475790368773	559.880835479033	-3.32000028355877	27.0169935689939	3.8246671380885	-3.80039441120509	-0.000989663008613584	0.00404967208775159
0.13	14.5512262270996	-2.11409734691737	561.185452918316	-3.27881264421808	26.9813890406242	3.79968407870179	-3.78282552631618	-0.000902147361172001	0.00387481194166234
0.14	14.9015782329408	-2.00773346521203	562.565812209515	-3.26867980097067	26.9436268843665	3.7769928007617	-3.76735900186256	-0.000868966016685957	0.00368964081950135
0.15	15.2330375443992	-1.95101131651093	563.936707927949	-3.28934610211918	26.911087908534	3.75867330162949	-3.75455221152139	-0.000890662136606601	0.003514842796423
0.16	15.507392103577	-1.95161157044553	565.248078502538	-3.3347129947427	26.8916107269747	3.74553010361536	-3.74440910595453	-0.000956972837667047	0.00336881413615314
0.17	15.6992940978445	-1.99783565227949	566.469377872796	-3.39465761385586	26.8908500273544	3.73735499110293	-3.73683172613858	-0.00105023710513263	0.00326425186724311
0.18	15.8003719970638	-2.06395996678444	567.568147807918	-3.45750890557219	26.9099179444282	3.73357659651252	-3.73211349847834	-0.00115004708734645	0.00320579000773352
0.19	15.8182861782696	-2.12048075209791	568.492661475767	-3.51245283889812	26.9442423036779	3.7339700115799	-3.73122162727223	-0.0012377289812322	0.00318949269252666
0.2	15.7713150056526	-2.14522393122879	569.166607898485	-3.55127721761738	26.9841479290564	3.73907494699501	-3.7356953518354	-0.00129951017262075	0.00320440557202811
0.21	15.6806643912001	-2.13106991683082	569.498955300738	-3.56916882586795	27.0170423618894	3.7500992412092	-3.74714555529283	-0.00132782524722808	0.00323566552768173
0.22	15.5634655600171	-2.08750729179568	569.406229639618	-3.56461123341742	27.030513909714	3.76831224264377	-3.7665147085389	-0.00132088056234014	0.0032681566690177
0.23	15.4290556300599	-2.03574789596448	568.83965932864	-3.53868029693334	27.0153469955582	3.7941634135269	-3.79337258564451	-0.00128109492507344	0.00328957824981507
0.24	15.2797593968407	-1.99966414870226	567.807679214416	-3.49413051738479	26.967529680005	3.82649865410805	-3.82553428065542	-0.00121322593609208	0.00329209064773456
0.25	15.115536357557	-1.99633936977019	566.385797052866	-3.43461090826941	26.8887248130809	3.86223386219666	-3.85918752667216	-0.00112287489893403	0.00327228953491343
0.26	14.9402438848868	-2.02998775079185	564.710177637557	-3.3641955557764	26.7852350958292	3.89668720325663	-3.88954417160685	-0.00101573847216418	0.0032298851070845
0.27	14.7665331179724	-2.09147812589623	562.956840959001	-3.28723133230485	26.6660009401103	3.92452982691782	-3.911849868313	-0.000897586500839043	0.00316589508092247
0.28	14.6168512308115	-2.16333873207049	561.313014945724	-3.20835552924382	26.5404451608042	3.94108080502091	-3.9224611133436	-0.000774627324636512	0.00308124926228409
0.29	14.5195346565235	-2.22788664202626	559.949177555651	-3.13246287258722	26.4169259239457	3.94353290358922	-3.91967209071988	-0.000653770341835669	0.00297643262886249
0.3	14.5009899103247	-2.27490657881712	558.998945925157	-3.06442561224218	26.3022052107135	3.93170359970763	-3.90405276832651	-0.000542354976848292	0.00285227317095799
0.31	14.5766924344651	-2.30558462912414	558.549887538907	-3.0084874230605	26.2018281340714	3.90806031924913	-3.87821629078606	-0.000447168652379704	0.00271141202092179
0.32	14.7444694611278	-2.33106717756765	558.643398978047	-2.9674268694512	26.1208564791141	3.87701699771461	-3.84611446007863	-0.000372941484410694	0.00255960837717234
0.33	14.9829012193485	-2.36637387860659	559.278320237346	-2.94175613633223	26.0642179118156	3.84375115430278	-3.8121033614436	-0.000320846172799372	0.0024060099739332
0.34	15.2558415888055	-2.42244298553208	560.412618258078	-2.92930951843407	26.0361280469438	3.81295147655064	-3.78007727220383	-0.000287695875293426	0.00226190814658106
0.35	15.5217067412735	-2.49993139265855	561.960497172103	-2.92552309768716	26.0385560283741	3.78791127760472	-3.75291806613064	-0.000266411284222223	0.00213816657215132
0.36	15.7442626954633	-2.58764237566539	563.787186233768	-2.92449956782383	26.0693130343567	3.77022883637743	-3.7323689851064	-0.000247913285269852	0.00204219029577229
0.37	15.9009926989549	-2.66642406429288	565.707843483384	-2.92064660382951	26.1207494387289	3.76012330360422	-3.71927019993784	-0.000224014226107738	0.00197567102024099
0.38	15.9860774468145	-2.716959410265	567.498055422706	-2.91039088201652	26.18001423272	3.75712913556376	-3.71395805437433	-0.000190360046220639	0.00193419059107697
0.39	16.0072318912885	-2.72812073094458	568.92026200502	-2.89333872017552	26.2313092123715	3.76079561787696	-3.71658531741124	-0.000148267880388242	0.00190908759058117
0.4	15.9782046388804	-2.70225485304606	569.764066504229	-2.8723692449724	26.2597416266568	3.7710463307946	-3.72718278779042	-0.000104561505809286	0.00189103682821257
0.41	15.9105622321141	-2.65502842366626	569.891451339524	-2.85249893840972	26.2555926194796	3.78803043749326	-3.74542378559437	-6.9192169941279e-05	0.00187396359421754
0.42	15.8086379624356	-2.60974733684065	569.273561616069	-2.83882761339702	26.21744336107	3.81154471617218	-3.77021021605401	-5.13050839977547e-05	0.00185760897994691
0.43	15.6700642654279	-2.588394186437	568.006144458825	-2.83427599918447	26.1528511958803	3.84031644910752	-3.79930454350917	-5.5117777115421e-05	0.00184747808722219
0.44	15.4917222280532	-2.60302584098602	566.296199274753	-2.83797595035853	26.0760944410524	3.87152443263219	-3.82924171530033	-7.71978238782722e-05	0.00185192779815702
0.45	15.27834425689	-2.65106402353914	564.421082476205	-2.84499033477583	26.0035977821279	3.90086213778861	-3.85566382574039	-0.000106328288237978	0.00187738418963446
0.46	15.0495535771856	-2.7164444172413	562.670089234734	-2.84757182985453	25.9485679597692	3.92324078988486	-3.87406232481556	-0.000126246177623579	0.00192359166584422
0.47	14.8415003549758	-2.7762055326503	561.284224466496	-2.83759031177822	25.9167258601174	3.93397008591526	-3.88074718855467	-0.000120463951581384	0.00198096188725988
0.48	14.7013466861079	-2.80986983703803	560.410458649658	-2.80929335297222	25.904657069007	3.93004240494598	-3.87375292531857	-7.75543628527275e-05	0.00203139350507131
0.49	14.6757881519231	-2.80781416935541	560.082094615165	-2.76140249806853	25.9013570466024	3.91107032339794	-3.85338297278962	4.9688660008762e-06	0.00205263247189758
0.5	14.7973268179205	-2.77523536722487	560.228661900691	-2.69776347602023	25.8923958750375	3.87952589056056	-3.82219728394305	0.000119590459464081	0.00202486696767623
0.51	15.0730587881675	-2.73013713432122	560.709894189864	-2.62628752924726	25.8652217239259	3.84017359661954	-3.78443068825681	0.000250972913354297	0.00193736612643969
0.52	15.4798916359469	-2.69623553086183	561.361811855199	-2.55654803029393	25.8137949562737	3.79888429708404	-3.74502525360121	0.000380626935831407	0.00179292673787868
0.53	15.9677675473176	-2.69374400657451	562.040714588979	-2.49689022256386	25.7410799041225	3.76124318585495	-3.708590942127	0.000492428491849051	0.00160867292429367
0.54	16.4696560337198	-2.73176313917379	562.653322315369	-2.45208125147635	25.6587371113077	3.73142431500396	-3.67862010680742	0.000577057526884639	0.00141300924250004
0.55	16.9149528941766	-2.80515749632717	563.167066393512	-2.42230881029481	25.58430794076	3.71167149716135	-3.65716674039508	0.000633870911551426	0.00123974665498794
0.56	17.2422586128522	-2.89677977190027	563.601290039667	-2.40381890509189	25.5369124305534	3.702461583648	-3.64500981632869	0.000669699371341759	0.00112116461802825
0.57	17.4083959777197	-2.98365533636906	564.005489628264	-2.39087180794078	25.5327720093782	3.70315092039341	-3.642134459123	0.000695190071120733	0.00108184683819224
0.58	17.3923810727221	-3.04428377622606	564.433196625219	-2.378227421878	25.581702214203	3.71274020812624	-3.64826316150476	0.000720168652433517	0.0011346239979208
0.59	17.1949631825969	-3.06413748472354	564.919450618323	-2.36321983783719	25.6852477757109	3.73040103363372	-3.66318843671891	0.000749758025608616	0.00127916116168264
0.6	16.8354947229083	-3.03764759797064	565.467001322332	-2.34668718422009	25.8365807870431	3.75556845086977	-3.68677816888949	0.000782600883960427	0.00150296950599166
0.61	16.3479517178524	-2.96678026153725	566.042911186386	-2.33248697247236	26.0218508074362	3.78762982682272	-3.71868323895923	0.000811679438415203	0.0017841339286539
0.62	15.7771340409988	-2.85781709450771	566.584427441937	-2.32585632982941	26.2224630776385	3.82542353767068	-3.7579032396223	0.000827262923114636	0.00209490092852871
0.63	15.1750437482115	-2.71848509567948	567.011463780376	-2.33126858093967	26.4177548455154	3.86682823332153	-3.80241476506248	0.000820805208882613	0.002405392675221
0.64	14.5968026369359	-2.55698224745241	567.242619863051	-2.35056115035341	26.5876531303925	3.90866227962759	-3.84903247198486	0.000788393014719557	0.00268695988677431
0.65	14.0955551625731	-2.38311591109109	567.211798439282	-2.38194826784634	26.7150298772579	3.94696788712853	-3.89358338737496	0.000732633402067973	0.00291492327661691
0.66	13.7164954483044	-2.21042848334246	566.882667094314	-2.4201777759767	26.7875606997673	3.97759665343625	-3.93137074159893	0.000662498932529787	0.00307060712202567
0.67	13.4910049802428	-2.0575015704574	566.258378895393	-2.45769630630454	26.7989378358952	3.99690721368508	-3.95782087340369	0.000591349829155541	0.00314263573893897
0.68	13.432372025017	-1.94692398059206	565.384420646864	-2.48639554269259	26.7493248015071	4.00236525554018	-3.9691663784275	0.000533871654746276	0.00312748606995905
0.69	13.5343812633666	-1.90151605745252	564.343558135966	-2.49940638394953	26.6450112241028	3.99289703876387	-3.96302469429787	0.000502862559576545	0.00302931359298875
0.7	13.7732695134499	-1.93877597921747	563.243621196024	-2.49248662501758	26.4973416116137	3.96895441106986	-3.93877366518018	0.000506678792469795	0.00285911417954854
0.71	14.1125062270121	-2.06549084543059	562.20084410662	-2.46474395049636	26.321119564045	3.93235245785554	-3.89768483997789	0.000547816773069809	0.00263333849982561
0.72	14.509047787314	-2.27457341004583	561.322842223844	-2.41865612896518	26.1327744213519	3.88599710897936	-3.84282896626292	0.000622733240142725	0.00237211065085602
0.73	14.9194732185664	-2.54539323497334	560.695338423843	-2.35951690622936	25.9485776943027	3.83361042817782	-3.77879923615913	0.000722712136567716	0.00209720335321889
0.74	15.3047887162949	-2.8475443448028	560.375239687974	-2.29451365247997	25.7831092390113	3.7794993755814	-3.71130158511004	0.00083543822770471	0.00182989946585904
0.75	15.6334487249413	-3.14673908518227	560.390111577851	-2.23163982468731	25.6480409309275	3.72833816039221	-3.64664721970595	0.000946921418565894	0.00158885481944449
0.76	15.8828842099512	-3.41088214046984	560.741588994929	-2.17859783337435	25.5511971613375	3.68488888525584	-3.59116858250265	0.00104347731051846	0.0013880998150152
0.77	16.0402045349937	-3.61458320033632	561.408992299318	-2.14179611135628	25.4958264437127	3.65359666979894	-3.55058196654234	0.00111354805196673	0.00123538237307297
0.78	16.102617060877	-3.74123653002356	562.350112924847	-2.12551372525437	25.4800940857917	3.63805957664704	-3.52934201580446	0.00114920455655843	0.001131133760088
0.79	16.0776295187048	-3.78287636311859	563.498609944077	-2.13130076039255	25.49694098291	3.64045817383565	-3.53006503712703	0.00114719916473827	0.00106837439583379
0.8	15.9825923198581	-3.73881349870078	564.760592943122	-2.15768915089671	25.5345598647889	3.66109105203261	-3.55312019063583	0.00110945267132878	0.00103380588385837
0.81	15.8429378370845	-3.61426250175183	566.015129533304	-2.20028519165429	25.57772242032	3.69816795721802	-3.59648244132953	0.00104288588912427	0.00101012280770552
0.82	15.6887477909871	-3.41977121199175	567.123238202741	-2.25228419494737	25.6099996981701	3.74795387649089	-3.65590187012942	0.000958562483958203	0.000979248252381049
0.83	15.5499349229049	-3.17151875878495	567.947030738984	-2.30538522288946	25.6165921423883	3.80525637760843	-3.72537912741604	0.000870200195986714	0.000925848726746059
0.84	15.4510501130401	-2.89183128594268	568.376003548089	-2.35100138262717	25.5871510003885	3.86414479190132	-3.79786779886452	0.000792217358555281	0.000840264421483883
0.85	15.4071439791027	-2.60890712062405	568.353049063049	-2.38158264854105	25.5177966157905	3.91872575591588	-3.8660769430759	0.000737584342454634	0.000720034063174502
0.86	15.4219664702488	-2.35490378469036	567.890802398517	-2.39181978587664	25.4116494097712	3.96380204181087	-3.92323998308281	0.000715817121584861	0.000569547749893984
0.87	15.4890754771539	-2.16215357846137	567.070865706286	-2.37949848322159	25.277602167585	3.99530944185547	-3.96375194680203	0.000731461632895059	0.000397941535781154
0.88	15.5954093379562	-2.05808631234589	566.024040238408	-2.3458279956184	25.1276537908262	4.01052872939891	-3.98363817449782	0.000783362218712225	0.000215952545441656
0.89	15.7259767362619	-2.0601001131232	564.896951082279	-2.29517038571894	24.9736692149034	4.00815699860382	-3.98087265745502	0.000864884384209619	3.2841638550607e-05
0.9	15.8679193636521	-2.17183754096281	563.816314957812	-2.23422482097749	24.8246911870672	3.98835011947	-3.95558342084795	0.000965082535840267	-0.000145514084709475
0.91	16.0124941937509	-2.38198068724965	562.863778384591	-2.17084717447629	24.6857653983752	3.95280003892107	-3.9101555932479	0.00107059601494697	-0.000316683097033033
0.92	16.1544043827439	-2.6659054416377	562.070557133988	-2.11277453906461	24.5586766609021	3.90481313269256	-3.84918842713141	0.00116787103641602	-0.000479928290270104
0.93	16.2890359091138	-2.98965430299203	561.433187277313	-2.06654675813321	24.4442273265504	3.84926595195184	-3.77922013383	0.00124520407793394	-0.000633407734699276
0.94	16.4090800389584	-3.31506657471898	560.942712384777	-2.03685709193812	24.3450186724314	3.79229118744665	-3.70814277751729	0.00129413603993411	-0.000771568004111045
0.95	16.5023614773056	-3.60478377009143	560.613455921606	-2.0264312560663	24.2674046764904	3.74061593878765	-3.64430215338405	0.00130991018575788	-0.00088399446826265
0.96	16.5522917189663	-3.82622636604216	560.49704984701	-2.03636551810654	24.2215246024449	3.70061273012808	-3.59539089030168	0.00129099854883752	-0.000956519044433946
0.97	16.5413536934359	-3.95428334848152	560.673164213102	-2.06670556563905	24.2190307470101	3.67726686735948	-3.56734552664762	0.00123800928603679	-0.000974577684869637
0.98	16.4567656846988	-3.9730236237023	561.218265319725	-2.11697262787657	24.2690596171458	3.67333930917407	-3.56349715623028	0.00115249984269905	-0.000927935042885908
0.99	16.2964472594612	-3.87694430347423	562.163696083611	-2.18637431373999	24.3737915002363	3.6889694267903	-3.58417464599385	0.00103624882449671	-0.000815269508564087
1	16.0730288059542	-3.67203364358407	563.460177165057	-2.27357172331616	24.5252787222378	3.72182584245185	-3.62683492998306	0.000891353991821275	-0.000646981777675415
1.01	15.8140965241889	-3.37640871691296	564.964819504243	-2.37607060631263	24.7049336748939	3.76773212376373	-3.68664566204273	0.000721174001422131	-0.000445032884924645
1.02	15.5580275729866	-3.01981722479405	566.459038852464	-2.48949409027721	24.8862269664814	3.82154355353403	-3.75733030567493	0.000531736925207027	-0.000239510091581963
1.03	15.3462503787208	-2.64119740668363	567.694283807952	-2.60710328198025	25.0400454597631	3.87799270541075	-3.83204613300497	0.000332952165904565	-6.2670407476928e-05
1.04	15.2140290398737	-2.28392647557496	568.45177560951	-2.71990774804383	25.1412046371174	3.93227561590653	-3.90410958572674	0.000138912641629907	5.79401661981449e-05
1.05	15.1824462078112	-1.98924213706428	568.596820560842	-2.8175454066333	25.1741632237574	3.98028977064197	-3.967485084003	-3.31929511127038e-05	0.000105352839929296
1.06	15.2539210228032	-1.78923319222625	568.109982272952	-2.88986025515927	25.1362275219584	4.01859773204926	-4.01706600626182	-0.000165587405340117	7.63869839730535e-05
1.07	15.4124639130579	-1.70130849589432	567.085803052001	-2.92885396156464	25.0373746936554	4.04430498483101	-4.0488525974472	-0.000243349110837232	-1.85957540556614e-05
1.08	15.628355307093	-1.72583879664644	565.70145943159	-2.93052383164953	24.8969523461563	4.05505740748913	-4.0601412713531	-0.00025792124613877	-0.000159112255580185
1.09	15.8655956885498	-1.84770814216278	564.168057898969	-2.89608237327321	24.7385022733225	4.04927600459677	-4.0497831094854	-0.000209689385173184	-0.000319929108986428
1.1	16.0897835308127	-2.04116106541607	562.682210792271	-2.83218816572486	24.584446444451	4.02659570883811	-4.01847635263903	-0.000108817284892981	-0.000476684009134754
1.11	16.2742416020264	-2.27616718976613	561.393374742395	-2.75006179752178	24.4522062727241	3.98833375837059	-3.9689759125205	2.60265936464776e-05	-0.000610190732912852
1.12	16.403095726922	-2.52408077586158	560.394448607921	-2.66364372181246	24.3526089440067	3.93775124523121	-3.90607572126297	0.000170851284225781	-0.000708510541605478
1.13	16.4712073018662	-2.76086969590825	559.732929763967	-2.58719647625318	24.2904859979632	3.87992135679644	-3.83626445004649	0.000300705429377213	-0.00076675531265058
1.14	16.4818780127544	-2.96741030737929	559.431878078344	-2.53289701519805	24.2665806720585	3.82115759240623	-3.76705346052947	0.000394156630451947	-0.000785351556813252
1.15	16.4437153045949	-3.12773330217321	559.507267115652	-2.50896568053509	24.2795508258837	3.7681195880432	-3.70608294113541	0.000436790285426314	-0.000767864183106759
1.16	16.367877444338	-3.22702223541324	559.971794879825	-2.51873127197861	24.327072649277	3.7268281894332	-3.66018013078971	0.000422915893856901	-0.000719360005344172
1.17	16.2663026648422	-3.25118973642109	560.823009339476	-2.5607726204796	24.4056732142987	3.70183768736951	-3.63454596345886	0.000355199080379842	-0.000645793574885867
1.18	16.1508313440038	-3.18897294636471	562.022074329462	-2.62997934558548	24.5096461708351	3.69573280099038	-3.63219015472893	0.000242550531614594	-0.000554274760434903
