Time [s]	GRFml [N]	GRFap [N]	GRFv [N]	Mml [N.m]	Map [N.m]	Mv [N.m]	Mfree [N.m]	COPml [m]	COPap [m]
0.01	18.3513519503736	-3.36176282416606	757.195897319945	-87.9666542398373	15.4826702055175	-2.08847269805894	0.11215364831657	0.000403495019606084	0.00564987146536729
0.02	18.2943350879142	-3.29021171220499	757.001834850962	-87.9761562107428	15.439021194199	-2.21640040905285	-0.0232150691553928	0.000352038336772401	0.00569390013007957
0.03	18.2374763932801	-3.22088019445932	756.810252858025	-87.9877403148496	15.3971348572702	-2.34196380321096	-0.15610514887343	0.0003027693590258	0.00574020277608761
0.04	18.1812939419156	-3.15530035991658	756.624048812849	-88.0029394856892	15.3585501403591	-2.4628995819324	-0.2841286984095	0.000257627383242844	0.00579033438024937
0.05	18.1262607645687	-3.09483007804794	756.445974096472	-88.0232019680984	15.3247383501901	-2.57711674754662	-0.405081460367482	0.00021847643175953	0.00584577358449186
0.06	18.0727986240626	-3.04058619298274	756.278549704429	-88.0498029244779	15.29703586226	-2.68277753748435	-0.517027746871363	0.000187017063347891	0.00590781678835486
0.07	18.0212754650575	-2.99339204495622	756.12399118343	-88.0837686530148	15.2765837099783	-2.77836447211656	-0.618370398796677	0.000164706014939887	0.00597748616894875
0.08	17.9720063813921	-2.95374264664916	755.984145704735	-88.1258180511138	15.2642772634902	-2.86273018444027	-0.707902320587957	0.000152688340742325	0.006055457952316
0.09	17.9252576777211	-2.92178957349684	755.860443695849	-88.1763243136608	15.2607284976182	-2.93512789466264	-0.784837434337318	0.000151745837617748	0.0061420152339761
0.1	17.8812533520334	-2.89734624829854	755.753866838848	-88.2352981474245	15.2662425263599	-2.9952216721827	-0.848820267137609	0.00016226442099947	0.0062370274284964
0.11	17.8401831187607	-2.87991292151223	755.664933522196	-88.3023921661207	15.2808092056875	-3.04307689132633	-0.899914726744639	0.000184221839729156	0.00633995623752741
0.12	17.8022109529197	-2.86871937076712	755.593702036886	-88.37692472493	15.3041097335912	-3.07913244556233	-0.938573838140858	0.000217195797043587	0.0064498860511023
0.13	17.7674830832083	-2.8627822522327	755.539790978313	-88.4579203390738	15.3355373575474	-3.10415726398753	-0.965593231751967	0.000260391284118901	0.0065655750849932
0.14	17.7361344069623	-2.86097319786334	755.50241549777	-88.5441630506835	15.3742305785652	-3.11919441986196	-0.982051938664365	0.000312684826346599	0.00668552240515077
0.15	17.7082924430517	-2.86209320789935	755.480437288196	-88.6342586693376	15.4191166522587	-3.12549660226703	-0.989244528402086	0.000372682464413642	0.00680804534303582
0.16	17.6840781704071	-2.86494865463822	755.472425532731	-88.7267016932752	15.4689627554447	-3.12445692912577	-0.988608812886296	0.00043878768906009	0.00693136165498877
0.17	17.6636034007954	-2.86842428561239	755.476725532772	-88.8199428780128	15.522431925379	-3.11753902398243	-0.981653249544014	0.000509275237977051	0.00705367107061398
0.18	17.646964678379	-2.87154896622642	755.491531399779	-88.9124538009756	15.5781407911418	-3.10620998866095	-0.969887838612734	0.000582366636512194	0.00717323152030158
0.19	17.6342340547447	-2.87355049239357	755.514959068816	-89.0027853130366	15.6347161961664	-3.09187942115604	-0.954761769913331	0.000656303589400019	0.00728842622025579
0.2	17.6254474244625	-2.87389658100042	755.54511598805	-89.0896174095069	15.6908480419316	-3.07584700356406	-0.937610387461628	0.000729415762148522	0.00739781880880593
0.21	17.6205913925071	-2.87232005269945	755.580164160372	-89.1717987390449	15.7453360424818	-3.05926047328951	-0.919613265483568	0.000800180073665453	0.00750019476286279
0.22	17.6195898550191	-2.86882719883621	755.618373749225	-89.2483746532801	15.7971285391741	-3.04308504653741	-0.901764385752832	0.000867269300701846	0.00759458829040244
0.23	17.6222915891379	-2.86368931554466	755.65816518247	-89.3186033476486	15.8453520526785	-3.02808463636817	-0.884854628405364	0.000929588518146	0.0076802947327103
0.24	17.6284601539635	-2.85741834085093	755.698138550765	-89.3819602307803	15.8893308109288	-3.01481454124392	-0.869466083445644	0.00098629862260801	0.00775686918648666
0.25	17.6377672995648	-2.85072839844216	755.737090040575	-89.4381311711289	15.9285960539797	-3.00362470758983	-0.855977094706042	0.00103682687393728	0.00782411256491601
0.26	17.6497908696322	-2.84448579455493	755.774016094559	-89.4869956984504	15.9628854483214	-2.99467221456152	-0.844576486976821	0.00108086501234634	0.00788204667325165
0.27	17.6640178798017	-2.83965059921905	755.80810687541	-89.5286015826698	15.992133416805	-2.98794130350737	-0.835285113178993	0.00111835604687714	0.007930880106164
0.28	17.6798530796877	-2.8372133444237	755.83873134526	-89.5631324754727	16.0164535837778	-2.98326908120436	-0.82798269304176	0.00114947124915014	0.00797096691382296
0.29	17.6966328907679	-2.83813057251204	755.865416791762	-89.5908704839958	16.0361148323675	-2.98037495890137	-0.822437888851422	0.0011745792147143	0.00800276006212303
0.3	17.7136441878087	-2.84326296032714	755.887825880277	-89.6121556550664	16.0515126628848	-2.97889193572364	-0.818339660374508	0.00119420906731792	0.00802676175316291
0.31	17.730146994234	-2.8533195305186	755.905734259068	-89.627344386025	16.063137625783	-2.97839797730457	-0.815328137114682	0.00120900997794774	0.00804347268872749
0.32	17.7453998269565	-2.86881105395628	755.919011389419	-89.6367687473389	16.071542583932	-2.97844595777175	-0.813023515359529	0.00121970915420739	0.00805334235552932
0.33	17.758686185255	-2.89001517027941	755.927606644972	-89.6406986058902	16.0773104475399	-2.97859090327244	-0.811051802717311	0.00122707033526292	0.00805672238106715
0.34	17.7693405560074	-2.91695504138989	755.931541884584	-89.6393082793039	16.0810238362169	-2.97841357614766	-0.809066567823368	0.00123185461695803	0.00805382494197199
0.35	17.776772319035	-2.94939254800129	755.930910736723	-89.6326492352919	16.0832378753055	-2.97753975018064	-0.806766184177917	0.00123478514909066	0.00804468808889941
0.36	17.7804860848131	-2.98683619111271	755.925883844637	-89.6206300816121	16.0844570485882	-2.97565483095955	-0.803906365229833	0.00123651691392012	0.00802914967042709
0.37	17.7800972728114	-3.02856302017245	755.916718420256	-89.6030047797917	16.0851167280966	-2.97251375620068	-0.800308058133324	0.00123761243520389	0.00800683128367896
0.38	17.7753421199742	-3.07365312834847	755.903769744924	-89.5793696692715	16.0855697040961	-2.96794635707453	-0.795860986324733	0.00123852390381993	0.00797713334788452
0.39	17.766081761811	-3.12103457848243	755.887501821318	-89.5491695202309	16.0860777619885	-2.96185856475431	-0.790523301218923	0.00123958186072509	0.0079392419921621
0.4	17.7523005112953	-3.16953608857423	755.8684942781	-89.5117124568025	16.0868081118145	-2.95423000143884	-0.784317920200891	0.00124099026845535	0.00789214798124852
0.41	17.7340989268829	-3.21794444007108	755.847442874596	-89.4661932224564	16.0878342799013	-2.94510859992997	-0.777326194517416	0.00124282754163409	0.00783467739043066
0.42	17.7116826643082	-3.26506339097586	755.825151524955	-89.411723910896	16.0891409259235	-2.93460295117347	-0.769679572179559	0.00124505290267819	0.00776553320707637
0.43	17.6853484064758	-3.3097708818419	755.802514600322	-89.3473709728931	16.0906319526652	-2.92287308813312	-0.761549904916425	0.00124751728332892	0.00768334650836992
0.44	17.6554683305826	-3.35107150760229	755.780489284382	-89.272197044339	16.0921412264603	-2.91012038215547	-0.753139002906969	0.00124997790321163	0.00758673537226696
0.45	17.6224745840344	-3.38814157334802	755.760058843568	-89.1853059331179	16.0934452169522	-2.89657716146758	-0.744667975016564	0.00125211561700024	0.00747436924965794
0.46	17.5868450990766	-3.42036453098875	755.742188713504	-89.0858889589046	16.0942768868023	-2.8824965687568	-0.736366813701648	0.00125355412318448	0.00734503618554916
0.47	17.5490917952414	-3.44735517376744	755.727778189457	-88.973270764259	16.0943402060354	-2.86814306482311	-0.728464599782658	0.00125388016024991	0.00719771004598119
0.48	17.5097518288326	-3.46897161099786	755.717611150302	-88.846952708142	16.0933247231459	-2.85378386727219	-0.721180618760039	0.00125266387108934	0.00703161479927809
0.49	17.4693820920026	-3.48531471914745	755.712309579196	-88.7066520125628	16.0909196887786	-2.83968149607766	-0.714716601578963	0.00124947858601818	0.00684628292196234
0.5	17.4285566903709	-3.49671543134644	755.712293638088	-88.5523349561348	16.0868272927974	-2.82608748973663	-0.709250231519963	0.00124391935344239	0.00664160515133808
0.51	17.3878666895105	-3.50371085194256	755.717751709089	-88.38424259047	16.0807746392636	-2.81323726351199	-0.704929996601797	0.00123561963201215	0.00641786908232993
0.52	17.3479210652904	-3.50701073605883	755.728623166482	-88.2029076916419	16.0725241458137	-2.80134600999221	-0.701871413812238	0.00122426564815267	0.006175784494759
0.53	17.3093475604172	-3.50745633131317	755.744595747543	-88.0091619441822	16.0618821152885	-2.79060549494582	-0.700154607153645	0.00120960801891796	0.00591649378431806
0.54	17.2727920659691	-3.50597392053327	755.765118326162	-87.8041326836391	16.0487052901807	-2.78118157906952	-0.699823185037922	0.00119147034359821	0.00564156643900891
0.55	17.2389152230721	-3.5035256170453	755.789428748824	-87.5892288892091	16.032905266542	-2.77321229747765	-0.700884333064549	0.00116975457964869	0.00535297713376394
0.56	17.2083851705975	-3.50106004073786	755.816595259203	-87.3661165125309	16.0144507146893	-2.76680635053674	-0.703310014903438	0.00114444313943272	0.0050530676886535
0.57	17.1818657289525	-3.49946544267828	755.845569001901	-87.1366836424234	15.9933674294531	-2.76204189729647	-0.70703915635406	0.00111559777239471	0.00474449382769224
0.58	17.1599997739243	-3.49952765386802	755.87524423429	-86.9029964255054	15.969736311356	-2.75896559064745	-0.711980675296142	0.0010833554289428	0.00443015836047511
0.59	17.143388075108	-3.50189492107672	755.904522249415	-86.6672470736867	15.9436894591169	-2.75759184524064	-0.718017212797541	0.00104792143182628	0.00411313305953072
0.6	17.1325644026734	-3.50705127659011	755.932374666508	-86.4316956731264	15.915404629139	-2.75790237887864	-0.725009417499358	0.00100956040078907	0.00379657209148342
0.61	17.1279681955198	-3.51529959128719	755.957901703562	-86.1986078450684	15.8850983843464	-2.75984610974831	-0.732800635627271	0.000968585478454357	0.00348362034712779
0.62	17.1299164882438	-3.52675490819076	755.98038131353	-85.9701905757264	15.8530183078952	-2.76333952067577	-0.741221861367495	0.000925346481349183	0.00317732037144015
0.63	17.1385770760689	-3.54134807620309	755.99930562773	-85.7485287095937	15.8194346923009	-2.76826761413435	-0.750096805615428	0.000880217642223784	0.00288052178886208
0.64	17.1539450283393	-3.55883913271367	756.014401974503	-85.535524670267	15.7846321277427	-2.7744855763784	-0.759246944253212	0.000833585612721059	0.00259579712683652
0.65	17.1758246267422	-3.57883935103005	756.025636779052	-85.3328439217241	15.7489014024111	-2.78182124614265	-0.768496409784819	0.000785838356043594	0.00232536774530763
0.66	17.203818601536	-3.60084040460053	756.033201838846	-85.1418685039368	15.7125320921282	-2.7900784451185	-0.77767659290755	0.0007373554778442	0.0020710431773048
0.67	17.2373261781837	-3.62424873198421	756.037483733361	-84.9636606704043	15.6758061572654	-2.799041177851	-0.786630324923099	0.000688500423957562	0.00183417658553212
0.68	17.2755509506178	-3.64842293659835	756.039018384705	-84.7989382308821	15.6389927852546	-2.80847865289723	-0.795215519974834	0.00063961482307678	0.0016156382669834
0.69	17.3175189991516	-3.67271193873031	756.038433949954	-84.6480626780717	15.6023446214407	-2.81815102061768	-0.803308170304737	0.000591015081348838	0.0014158082316144
0.7	17.3621070122247	-3.69649162118527	756.03638621062	-84.5110405780936	15.5660954258314	-2.82781567113265	-0.810804609936924	0.000542991156649023	0.00123458789427063
0.71	17.4080794984056	-3.71919787212196	756.033491350007	-84.3875380634559	15.5304590856621	-2.83723389315585	-0.817622993176933	0.000495807266756205	0.00107142991266113
0.72	17.454133536884	-3.74035421755827	756.030261408276	-84.2769076206844	15.4956298113951	-2.84617766366588	-0.823703973248079	0.00044970413161061	0.000925384243736893
0.73	17.4989489579748	-3.75959263128951	756.027047730124	-84.1782257515526	15.4617832546248	-2.85443632123668	-0.829010610711721	0.0004049022279809	0.00079515764083965
0.74	17.5412414117883	-3.77666658361648	756.023997348083	-84.0903395449595	15.429078217583	-2.86182287243925	-0.833527586936075	0.000361605455607025	0.000679183132435215
0.75	17.579815506932	-3.7914559089432	756.02102648117	-84.0119197605762	15.3976585815385	-2.8681796900175	-0.837259839661999	0.000320004584400423	0.000575695556838327
0.76	17.6136151050013	-3.80396359976458	756.017814210163	-83.9415177240854	15.3676550695405	-2.8733833817191	-0.840230770267488	0.000280279875815637	0.000482809007728749
0.77	17.6417679511936	-3.81430513471122	756.013817982635	-83.8776231877465	15.3391864795177	-2.87734863752721	-0.842480190855646	0.000242602346999812	0.000398592086680458
0.78	17.6636221036244	-3.8226913880917	756.008310994561	-83.8187203300341	15.3123600759111	-2.88003089834112	-0.844062180408174	0.00020713326845094	0.000321137157312898
0.79	17.6787720771544	-3.82940652043692	756.000439801925	-83.7633392544917	15.2872709082761	-2.88142772884929	-0.84504300165591	0.00017402164548724	0.000248620329283925
0.8	17.6870732124278	-3.83478249443457	755.989298858729	-83.7101006901208	15.2639999276486	-2.8815788197345	-0.845499195146008	0.000143399618597377	0.000179349631631409
0.81	17.6886434773208	-3.83917198810676	755.974017183466	-83.6577520726736	15.242610887972	-2.88056458815317	-0.845515917780567	0.000115375913452231	0.000111799713429381
0.82	17.683852658143	-3.84292148656107	755.953851144381	-83.6051937680002	15.2231461413499	-2.87850338968684	-0.845185535460929	9.00276629764232e-05	4.46323754522276e-05
0.83	17.6732996493231	-3.84634623365164	755.928276529065	-83.5514948476794	15.2056215527948	-2.87554739896188	-0.844606420357936	6.73910968332185e-05	-2.32967758292957e-05
0.84	17.6577792500531	-3.84970853145413	755.89707270564	-83.495898501026	15.1900208634436	-2.87187725926406	-0.84388185018743	4.74517349991176e-05	-9.29443177045686e-05
0.85	17.6382404752346	-3.85320060976129	755.860391839605	-83.4378178214952	15.1762899131548	-2.86769564312479	-0.843118866694913	3.01348213626908e-05	-0.000165095575526505
0.86	17.6157388445332	-3.85693297332397	755.818806814106	-83.3768232954993	15.1643311880646	-2.86321990533816	-0.842426929028019	1.52967832281886e-05	-0.00024038902422624
0.87	17.5913853971783	-3.86092879424264	755.773332685506	-83.312623807565	15.1539991823118	-2.85867404639736	-0.84191619851398	2.71849953534936e-06	-0.000319345331966259
0.88	17.566295275135	-3.86512457080796	755.725418126003	-83.2450433242036	15.1450970542775	-2.85428023703886	-0.841695315896081	-7.89889559004234e-06	-0.000402397637431287
0.89	17.5415386227503	-3.86937693789311	755.676905261781	-83.1739956058126	15.1373750169993	-2.85025018247901	-0.841868579135178	-1.69350533735166e-05	-0.000489919698849678
0.9	17.5180962817613	-3.87347519869439	755.629958481624	-83.0994593087266	15.1305308324808	-2.84677662692181	-0.84253249585675	-2.48478240354316e-05	-0.000582248857419726
0.91	17.4968223453312	-3.87715886017367	755.586965020077	-83.0214556781358	15.1242126845001	-2.84402531372283	-0.843771763733202	-3.21667570108604e-05	-0.000679701299718991
0.92	17.4784151129447	-3.88013919945433	755.550412254184	-82.9400307098766	15.1180245894526	-2.84212772267672	-0.845654817229762	-3.94826099980213e-05	-0.000782577844351817
0.93	17.4633974053641	-3.88212366952622	755.522748537352	-82.8552432000754	15.1115343756913	-2.84117490145218	-0.848229161891073	-4.74330105193661e-05	-0.000891159363303806
0.94	17.4521066027784	-3.88284177494732	755.506235883823	-82.7671595416511	15.1042841251746	-2.8412126912423	-0.851516789070683	-5.66846355673709e-05	-0.00100569191188898
0.95	17.444694203926	-3.88207091917183	755.502803790788	-82.6758555087143	15.0958028335498	-2.84223861528507	-0.855510016521746	-6.79124851486884e-05	-0.00112636260919916
0.96	17.4411342061414	-3.87966065471864	755.513913852933	-82.5814246411272	15.0856209126155	-2.8442006514896	-0.860168126620489	-8.17770126925813e-05	-0.00125326820834697
0.97	17.4412392026373	-3.87555376753536	755.540444536777	-82.4839922496458	15.0732860387144	-2.84699804628181	-0.865415169205753	-9.89000290648676e-05	-0.00138637905152052
0.98	17.4446827989692	-3.86980270962269	755.582604535577	-82.3837335518012	15.0583797479338	-2.85048424656872	-0.871139257717476	-0.000119840408647175	-0.0015255016577482
0.99	17.4510267692427	-3.86258006885578	755.639881563601	-82.2808940583081	15.0405340994707	-2.85447193270082	-0.877193616176602	-0.000145070688913475	-0.00167024349468774
1	17.4597512979664	-3.85418203630284	755.71103136132	-82.175810088668	15.0194476769103	-2.85874003162015	-0.883399534447241	-0.000174955664773324	-0.00181998351125222
1.01	17.470286671847	-3.84502419564121	755.794109202009	-82.0689272212653	14.9949001774517	-2.86304248190736	-0.88955126707588	-0.000209734033802703	-0.00197385174736237
1.02	17.4820448791402	-3.83562940319001	755.886543480025	-81.9608145841707	14.9667648542545	-2.86711841844999	-0.89542277625422	-0.000249504049144155	-0.00213072080357472
1.03	17.4944497229162	-3.82660802690666	755.985248207767	-81.8521731623038	14.935018128874	-2.87070335195819	-0.900776083239452	-0.000294213986760661	-0.00228921118025478
1.04	17.5069642405312	-3.81863133526923	756.086768646609	-81.7438367167994	14.8997457795823	-2.87354084549242	-0.9053708666543	-0.000343658038800015	-0.00244771153530905
1.05	17.5191144296198	-3.81239933223477	756.187452034602	-81.6367644546546	14.8611452359865	-2.87539414352266	-0.908974841685306	-0.000397478013225407	-0.0026044138285173
1.06	17.5305084999618	-3.80860477940729	756.283633616654	-81.5320252129063	14.8195236676274	-2.87605719399573	-0.911374380779821	-0.000455170961640307	-0.0027573621974154
1.07	17.5408510935375	-3.80789548990016	756.371827061922	-81.43077358652	14.7752917389602	-2.87536452316724	-0.912384800757437	-0.000516102583910237	-0.00290451332828476
1.08	17.549952138053	-3.81083718537819	756.448907951947	-81.3342190833485	14.7289531078906	-2.87319947640906	-0.911859746604389	-0.000579525982339197	-0.00304380512948206
1.09	17.557730220163	-3.81787925424197	756.512279370893	-81.2435899824727	14.6810899603297	-2.86950042273263	-0.909699148140216	-0.00064460507294432	-0.00317322975967203
1.1	17.5642105820699	-3.82932562411708	756.560009698068	-81.1600940560738	14.6323450876626	-2.8642646305742	-0.905855308079539	-0.000710441720025663	-0.00329090657408794
1.11	17.5695180569742	-3.84531266972437	756.590934409734	-81.0848786481707	14.5834012148695	-2.85754964951351	-0.900336791407793	-0.000776105455535196	-0.00339515037292987
1.12	17.5738654612874	-3.86579563637423	756.604715912506	-81.0189927543893	14.5349584610561	-2.8494721676928	-0.893209916729429	-0.000840664488502361	-0.00348453049006765
1.13	17.5775381489584	-3.89054450130249	756.60185798986	-80.9633536965794	14.4877109485002	-2.84020444790629	-0.884597789303603	-0.000903216612160342	-0.00355791674508496
1.14	17.5808755980231	-3.91914956178289	756.583674163025	-80.9187207308273	14.4423236597246	-2.82996856717727	-0.874676951690353	-0.000962918585416018	-0.0036145090698279
1.15	17.584251032321	-3.95103637925032	756.552211961451	-80.8856774797552	14.3994106658848	-2.81902878690136	-0.863671851127498	-0.00101901260606018	-0.00365384866085847
1.16	17.5880501720894	-3.98548907423056	756.510137593478	-80.8646244685822	14.3595158087974	-2.80768245701298	-0.851847424766706	-0.0010708486073902	-0.00367580973046516
1.17	17.5926502460249	-4.02168040788056	756.460587658368	-80.8557823124989	14.3230968123456	-2.79624990426042	-0.839500179224965	-0.0011179012956449	-0.00368057224540119
