Time [s]	GRFml [N]	GRFap [N]	GRFv [N]	Mml [N.m]	Map [N.m]	Mv [N.m]	Mfree [N.m]	COPml [m]	COPap [m]
0.01	0.902063969086104	-0.0981597860366747	577.610969350947	-33.3234562101641	-1.76035562022831	-4.41858371859399	-4.36684317258971	-0.00101760809683307	-0.00175429879547543
0.02	0.947811084193312	-0.252796431148038	577.755825486704	-33.3984741213882	-1.76668022701673	-4.46113193326668	-4.40711303749792	-0.00103074024338139	-0.00163508614081252
0.03	0.991594733089611	-0.402147400045211	577.894986961828	-33.4731445766626	-1.77347444550773	-4.50290219369553	-4.44669567721204	-0.00104442325343577	-0.00151604265990447
0.04	1.03213733237818	-0.541585957595406	578.025247017539	-33.5471670437345	-1.78092554768081	-4.54317028047699	-4.48492800900495	-0.00105899546470166	-0.00139741661668791
0.05	1.06828902881231	-0.666688317049987	578.143872339125	-33.6203443747723	-1.78919899879014	-4.58126595225015	-4.521194501449	-0.00107476882013986	-0.0012793177469759
0.06	1.09908913502277	-0.773429707564736	578.248754797075	-33.6925790621426	-1.79842413115244	-4.61659871467251	-4.55494977331911	-0.00109200178322592	-0.00116173768002917
0.07	1.12381761863449	-0.858362969751262	578.33852583838	-33.7638638663073	-1.80868193846634	-4.64867979058475	-4.58573788927345	-0.00111087541348385	-0.00104457678964604
0.08	1.14203351129728	-0.918770538416119	578.412625138631	-33.8342673759514	-1.8199959090632	-4.67713923165745	-4.61320748477108	-0.00113147440486227	-0.000927675675230555
0.09	1.15359799316011	-0.952782310567283	578.471318232821	-33.9039153069647	-1.83232659826288	-4.70173740169417	-4.63712209410379	-0.00115377452651083	-0.000810849332528153
0.1	1.15868090941253	-0.959453901273488	578.515661397555	-33.9729685673536	-1.84557037368965	-4.72237039170031	-4.6573653248305	-0.00117763744892496	-0.000693922024814483
0.11	1.15775051297873	-0.938802029148964	578.547415798964	-34.0415992962687	-1.85956247200816	-4.73906927316306	-4.67394080143616	-0.00120281341869493	-0.000576760907157747
0.12	1.1515472300563	-0.891796110518043	578.568916568252	-34.1099662139187	-1.87408420159882	-4.75199343429014	-4.68696707271796	-0.00122895169447123	-0.000459306585641715
0.13	1.1410431499575	-0.820307441870858	578.582905741638	-34.1781906835855	-1.88887383408097	-4.76141855126028	-4.69666792461338	-0.00125561810892084	-0.000341599003754633
0.14	1.12738969620956	-0.727019488163989	578.592340649027	-34.2463348784179	-1.90364046824894	-4.76772000336312	-4.70335874885477	-0.00128231861091487	-0.000223797329748164
0.15	1.11185650483013	-0.615304659252647	578.600191146612	-34.3143833590632	-1.91807994065475	-4.77135273283342	-4.70742977731238	-0.00130852720325523	-0.000106192858621533
0.16	1.09576489657558	-0.489074458184988	578.609239915653	-34.3822292029851	-1.93189171216495	-4.77282866889668	-4.70932709551516	-0.00133371635622514	1.0785675407167e-05
0.17	1.08041947731501	-0.352610957593376	578.621899820599	-34.4496655871807	-1.94479558947069	-4.77269287921158	-4.70953239422061	-0.00135738777401163	0.000126574573745042
0.18	1.06704134417615	-0.210388165294491	578.640061043116	-34.5163834232238	-1.95654714989968	-4.77149958490832	-4.70854240689132	-0.00137910134009052	0.000240485222874239
0.19	1.0567061373619	-0.0668919668590573	578.664978474872	-34.5819752929551	-1.96695082673842	-4.76978908751744	-4.70684891931404	-0.00139850017913755	0.000351721111943329
0.2	1.0502897909821	0.0735530015340018	578.697206826746	-34.6459455555463	-1.97586977491541	-4.76806652098054	-4.70492013450831	-0.00141533004431468	0.000459400855991138
0.21	1.04842433939598	0.206941949217853	578.73658732534	-34.7077261167113	-1.98323186238043	-4.76678317564151	-4.70318404314227	-0.00142945165320293	0.000562585963712309
0.22	1.05146556900395	0.32972750076132	578.78228599589	-34.7666969951292	-1.98903140526898	-4.76632096008053	-4.70201429988775	-0.00144084512280544	0.000660311864678936
0.23	1.05947370799659	0.438931119336918	578.832879677073	-34.8222105160028	-1.99332656572099	-4.76698038596365	-4.70171895252417	-0.00144960625193308	0.00075162057456149
0.24	1.07220775205393	0.532224815200988	578.886482382883	-34.8736177306987	-1.99623263840795	-4.76897229292902	-4.70253222480545	-0.00145593501817112	0.000835593335827917
0.25	1.08913345877424	0.607981199811265	578.940901702324	-34.9202955231528	-1.99791174299248	-4.7724133831302	-4.70460942517443	-0.00146011724411744	0.000911381627112892
0.26	1.10944452547558	0.665291557164997	578.993812844745	-34.9616728297895	-1.99855969340476	-4.77732551216169	-4.70802494681932	-0.00146250089422429	0.000978235081894624
0.27	1.13209600320487	0.703953110745013	579.042936864234	-34.997254473525	-1.99839101214869	-4.78363858417538	-4.71277324179908	-0.00146346884807973	0.00103552508498855
0.28	1.15584859630076	0.724427995620328	579.086209613517	-35.0266412887411	-1.99762318424111	-4.79119682005545	-4.71877259069615	-0.00146341022927575	0.00108276310691831
0.29	1.17932214865636	0.727777548021703	579.121929075249	-35.0495454793414	-1.99646129164806	-4.79976810233472	-4.72587144414451	-0.00146269243666333	0.00111961317050766
0.3	1.20105631969308	0.715576366742726	579.148870791486	-35.0658004853219	-1.99508413214814	-4.80905604220958	-4.73385707654411	-0.00146163592732552	0.00114589819750238
0.31	1.21957620051232	0.689811169593556	579.166363969377	-35.0753650084422	-1.99363280964592	-4.81871435652247	-4.7424662580354	-0.00146049355220738	0.00116160033134336
0.32	1.23346041256303	0.652769768980086	579.174324223104	-35.0783212351862	-1.99220259523211	-4.82836308213132	-4.75139761248612	-0.00145943587125288	0.00116685565216082
0.33	1.24140907126386	0.606925542235119	579.173242514221	-35.0748676652791	-1.99083861399734	-4.83760609102575	-4.76032528365857	-0.00145854340801991	0.00116194397140641
0.34	1.2423088946794	0.554822602237922	579.164133355144	-35.0653072786744	-1.98953562994618	-4.84604930474809	-4.76891347923115	-0.00145780628124451	0.00114727460059508
0.35	1.23529270669261	0.498966513989621	579.148448439103	-35.0500320296587	-1.98824190105276	-4.85331894723504	-4.7768314069683	-0.00145713111105028	0.00112336912141251
0.36	1.21979064217983	0.44172488531893	579.127964295138	-35.029504826429	-1.98686678028688	-4.85907912957342	-4.78376806620218	-0.00145635457748885	0.00109084223925094
0.37	1.19557052569172	0.38524151459869	579.104654148366	-35.0042402287525	-1.98529146753161	-4.86304803780064	-4.78944631994151	-0.0014552625427062	0.00105038178157297
0.38	1.16276517921467	0.331367031693839	579.080554790123	-34.9747850738922	-1.98338209091441	-4.86501200457337	-4.79363565766989	-0.00145361326451127	0.00100272881439089
0.39	1.12188482655868	0.281608143834801	579.057638919591	-34.9417001287019	-1.98100413005723	-4.86483679381372	-4.79616307408801	-0.00145116295201173	0.000948658706951884
0.4	1.07381330055161	0.237096717900497	579.037702189671	-34.9055436775803	-1.97803709955793	-4.86247551730298	-4.79692153956799	-0.0014476917601144	0.000888963791641148
0.41	1.01978741244422	0.198579017815846	579.022272236756	-34.8668577113725	-1.97438839487585	-4.85797273231884	-4.79587562482744	-0.00144302829833955	0.000824438059645577
0.42	0.961359587348221	0.166424496692183	579.012544518667	-34.8261571046335	-1.97000526531741	-4.85146443413695	-4.79306396192848	-0.00143707084159818	0.000755864119452047
0.43	0.900344671318758	0.140652648984563	579.009347085641	-34.78392188288	-1.96488401499069	-4.84317384713762	-4.78859836894265	-0.00142980366871429	0.000684002440029537
0.44	0.838752632765418	0.120975594522243	579.013133732828	-34.740592412147	-1.95907573218926	-4.83340312136596	-4.78265962645944	-0.00142130730239885	0.000609582717028642
0.45	0.778709665989288	0.106853334219412	579.024002578651	-34.6965671125516	-1.95268809599851	-4.8225212445127	-4.77549005910405	-0.00141176185811323	0.00053329704989382
0.46	0.722370909049189	0.0975580288096278	579.041735189439	-34.6522021238341	-1.94588308795577	-4.81094866952513	-4.76738323300484	-0.00140144319837945	0.000455794509576599
0.47	0.671828565326381	0.09224324742374	579.065850075854	-34.6078122467712	-1.93887072625497	-4.79913932406946	-4.75867122075089	-0.00139071209875426	0.00037767661732354
0.48	0.629019627167546	0.0900139463271623	579.095663799369	-34.5636724563557	-1.93189921958712	-4.78756080089498	-4.74971000116994	-0.00137999712515649	0.000299493248853505
0.49	0.595637608348559	0.0899929928734942	579.130353052608	-34.5200193302583	-1.92524218745392	-4.77667362166451	-4.74086364734118	-0.00136977236370834	0.000221738525965645
0.5	0.573052677866324	0.0913803540076188	579.169011851968	-34.4770518520921	-1.91918379618246	-4.76691051769554	-4.73248801040477	-0.00136053150166163	0.000144846356209358
0.51	0.562244340786838	0.0935016128943102	579.210699282276	-34.4349312199481	-1.91400280094438	-4.75865667847805	-4.72491462889209	-0.00135276000558255	6.91854232776831e-05
0.52	0.563750335483222	0.0958432328374235	579.254474895697	-34.393779498091	-1.90995655439344	-4.75223188397742	-4.71843558491992	-0.00134690726338691	-4.94639573601907e-06
0.53	0.577634726693271	0.0980729078173663	579.299420700465	-34.3536771717942	-1.90726603778885	-4.74787536225241	-4.71328999188322	-0.00134336054239572	-7.7328021332139e-05
0.54	0.603477299389247	0.100044361860501	579.344650482702	-34.3146598789187	-1.90610289179216	-4.74573410352319	-4.70965273566282	-0.00134242246891677	-0.000147821221176729
0.55	0.640385340350781	0.101787013121346	579.389308802309	-34.2767147748046	-1.90657927791689	-4.74585521997095	-4.7076260051593	-0.00134429346850197	-0.000216376208233664
0.56	0.687027783607245	0.103481927302623	579.432563235359	-34.2397771201778	-1.90874119907194	-4.7481827723408	-4.70723404040128	-0.00134906024141527	-0.000283036160984351
0.57	0.741690551308247	0.105426376276857	579.473594184661	-34.2037277508825	-1.91256566393785	-4.75255929561753	-4.70842139994977	-0.00135669091352931	-0.000347939982689699
0.58	0.802350806308374	0.10799002860436	579.511586780916	-34.1683920853755	-1.91796181309362	-4.75873205315953	-4.7110549067813	-0.00136703703227198	-0.000411322630321655
0.59	0.866766810678469	0.111566281272014	579.545729036601	-34.1335412501313	-1.92477585448378	-4.76636383902325	-4.71492927716568	-0.00137984210599912	-0.000473512430901872
0.6	0.932579215798818	0.116522467426531	579.575219535083	-34.0988957604869	-1.93279940171791	-4.77504793987269	-4.71977627531616	-0.00139475594831864	-0.000534924958900486
0.61	0.997418947274401	0.123152634698237	579.599286630285	-34.0641319974231	-1.94178058919162	-4.78432666953718	-4.72527707401948	-0.00141135371810775	-0.000596053260990381
0.62	1.05901643289438	0.131636294750351	579.617219531318	-34.0288914868649	-1.95143716869025	-4.79371270996756	-4.73107734525585	-0.00142915826708445	-0.000657454465672572
0.63	1.11530678128472	0.142006027125699	579.62840991634	-33.9927927382181	-1.96147068454538	-4.80271234097968	-4.73680446274542	-0.00144766423784666	-0.00071973308300368
0.64	1.16452566382661	0.15412612451818	579.632401041301	-33.9554451554545	-1.97158078520828	-4.81084952612111	-4.74208607814649	-0.00146636230524283	-0.000783521560363383
0.65	1.20529107720926	0.167683648271867	579.628939863204	-33.9164643190318	-1.98147875950382	-4.81768975047764	-4.74656924140721	-0.00148476202223559	-0.000849458891457662
0.66	1.23666684674223	0.182192384175611	579.618026648191	-33.8754877699492	-1.99089948159453	-4.82286248376966	-4.7499391794772	-0.00150241190838102	-0.000918168258223793
0.67	1.25820463444735	0.197009312435092	579.599956013378	-33.8321903240972	-1.99961110055849	-4.8260811719836	-4.75193683053746	-0.00151891568700717	-0.000990234804168343
0.68	1.26996229154018	0.211362391280173	579.575343442242	-33.7862979166124	-2.00742200505248	-4.82715974377352	-4.75237425554305	-0.00153394391226307	-0.00106618468334484
0.69	1.27249758324617	0.224387752339332	579.545132043853	-33.7375990272338	-2.01418481444383	-4.82602475196289	-4.75114711568924	-0.00154724060151317	-0.00114646649743585
0.7	1.26683755028065	0.235173857933231	579.510575661606	-33.6859528675744	-2.01979737718521	-4.82272245103385	-4.74824351205281	-0.00155862487247223	-0.00123143612507762
0.71	1.25442498946951	0.242809802864598	579.473196281565	-33.6312937125323	-2.02420097719171	-4.81742033146734	-4.74374862907039	-0.00156798794899906	-0.00132134576805909
0.72	1.23704467217343	0.246434769059112	579.43471589374	-33.5736310177883	-2.02737614306168	-4.81040288210605	-4.73784480205705	-0.00157528621821709	-0.00141633779782961
0.73	1.21673291598861	0.245285659598496	579.396965329587	-33.5130452655375	-2.02933660927764	-4.80206162160471	-4.73080683444897	-0.00158053127255867	-0.00151644369604331
0.74	1.19567493451349	0.238740135696496	579.361774918833	-33.4496797994591	-2.03012208270152	-4.79287971747072	-4.7229926150676	-0.00158377803703043	-0.00162158806124871
0.75	1.1760949749766	0.226352631886564	579.330853856822	-33.3837292231369	-2.0297905155993	-4.78341178321546	-4.71482931996302	-0.00158511215462196	-0.00173159731998117
0.76	1.16014458971082	0.207881399247503	579.305666744764	-33.3154252185839	-2.02841057644453	-4.7742596972144	-4.70679571615203	-0.00158463777859237	-0.00184621245664249
0.77	1.1497944627901	0.183305187435506	579.287316690609	-33.2450208691262	-2.02605494468646	-4.76604550741557	-4.69940130325728	-0.00158246680390426	-0.00196510478641527
0.78	1.1467350275844	0.152828785807985	579.276444522215	-33.1727747226197	-2.02279494250643	-4.75938266096388	-4.69316322024122	-0.0015787103728906	-0.00208789356286103
0.79	1.15229067572709	0.116877265746614	579.273153017006	-33.0989358907095	-2.01869686586113	-4.75484691534403	-4.68858199470483	-0.00157347323018622	-0.00221416405865685
0.8	1.16735169450635	0.0760793678712992	579.276963615116	-33.0237314381417	-2.01382020207155	-4.7529483382176	-4.68611730938998	-0.00156685120193299	-0.0023434847017993
0.81	1.19232720881524	0.0312410316126859	579.286810949458	-32.9473571714568	-2.00821773676969	-4.75410578035389	-4.68616499493499	-0.00155893176046551	-0.00247542190172903
0.82	1.22712138471581	-0.0166894517213629	579.30107785402	-32.8699726957454	-2.00193737456202	-4.75862510761565	-4.68903642375511	-0.00154979733539074	-0.00260955136302536
0.83	1.27113402088072	-0.0666627851354242	579.317670510566	-32.7917012870379	-1.99502533995501	-4.76668230629132	-4.69494137613182	-0.00153953077113816	-0.00274546495185224
0.84	1.32328546413138	-0.117574338929105	579.3341303073	-32.7126347494092	-1.9875303006272	-4.77831233864546	-4.70397528050619	-0.00152822213185666	-0.00288277253572353
0.85	1.38206459271505	-0.168311793626987	579.347776067496	-32.6328430190138	-1.97950787375623	-4.79340433478204	-4.71611150515397	-0.00151597593324775	-0.00302109863506109
0.86	1.44559747462375	-0.217802329236872	579.355867808944	-32.5523878745921	-1.97102494377426	-4.81170337945917	-4.73119911204419	-0.00150291784638814	-0.00316007417322064
0.87	1.51173328627016	-0.265056991363538	579.355781332442	-32.471339748816	-1.96216323832653	-4.83281880823678	-4.74896619330848	-0.00148919997143901	-0.00329932405387817
0.88	1.5781432235009	-0.309210038776101	579.345181874976	-32.3897963382128	-1.95302167569232	-4.85623858788204	-4.76902861574618	-0.00147500391194767	-0.0034384516939427
0.89	1.64242749932251	-0.349551364626427	579.322184900229	-32.3079015071458	-1.94371710479668	-4.88134904289725	-4.79090371856784	-0.00146054107878798	-0.00357702196237825
0.9	1.70222513727851	-0.3855504718929	579.285492859287	-32.2258628915925	-1.93438319815664	-4.90745892316283	-4.81402826187292	-0.00144604989699527	-0.00371454419247391
0.91	1.7553211589607	-0.416870953265716	579.234498382993	-32.143966639939	-1.92516741627973	-4.93382660332817	-4.83777972278226	-0.0014317898561708	-0.0038504570278925
0.92	1.79974593571855	-0.443374950773234	579.169346734428	-32.0625878791442	-1.91622612563586	-4.95968907428393	-4.86149989320121	-0.0014180326124959	-0.00398411682229115
0.93	1.83386191863038	-0.465117620270618	579.09095326225	-31.9821957538301	-1.90771810791106	-4.98429133677536	-4.88451965377308	-0.00140505059603338	-0.00411479114034775
0.94	1.85643365141354	-0.482332167203684	579.000974813015	-31.903352232759	-1.89979683363086	-5.00691483710382	-4.90618378400537	-0.00139310378260342	-0.00424165861684566
0.95	1.86667786799652	-0.495406519865831	578.901737318199	-31.8267042846957	-1.89260197842533	-5.02690368950936	-4.92587471592071	-0.00138242544136904	-0.00436381604106367
0.96	1.86429152830976	-0.504853135005539	578.796124803514	-31.7529694626971	-1.88625072810899	-5.04368759900081	-4.94303424142239	-0.00137320775880634	-0.00448029307372558
0.97	1.84945679298642	-0.511273764261501	578.687437631604	-31.6829153700827	-1.88082944557777	-5.05680061806103	-4.9571823325041	-0.00136558826369112	-0.00459007450500497
0.98	1.82282311670348	-0.515321232186639	578.579229686881	-31.617333881917	-1.87638625788172	-5.06589512414666	-4.96793241693274	-0.00135963793779781	-0.00469212945804091
0.99	1.78546778738943	-0.517660379477813	578.475135307963	-31.5570113359235	-1.872925068544	-5.07075067423929	-4.97500265708645	-0.0013553517992629	-0.00478544646592322
1	1.73883729450481	-0.518930308276836	578.378697007058	-31.502696165254	-1.87040141390005	-5.0712776598922	-4.97822299251275	-0.00135264259973413	-0.00486907293121801
1.01	1.68467282062287	-0.519709936738273	578.293204401565	-31.4550656084453	-1.86872047076977	-5.06751593454726	-4.97753791387666	-0.00135133809498159	-0.00494215714133514
1.02	1.62492387224165	-0.52048863958076	578.221553408434	-31.4146931928187	-1.86773739541801	-5.05962880016787	-4.97300512473788	-0.00135118214577448	-0.00500399077983992
1.03	1.56165456492193	-0.521643436074302	578.16613276545	-31.3820186478438	-1.86726004033517	-5.04789291180606	-4.96479040751355	-0.00135183969629813	-0.00505404975545643
1.04	1.49694733386864	-0.52342380545075	578.128742540089	-31.3573217729692	-1.86705396537143	-5.03268478029613	-4.95315913353071	-0.00135290547532749	-0.00509203117148573
1.05	1.43280884681892	-0.525944782124696	578.110546686617	-31.3407015744449	-1.86684954153171	-5.01446462328142	-4.9384649404696	-0.00135391608311532	-0.00511788437540413
1.06	1.37108265797471	-0.529188530132105	578.112059142347	-31.3320617163399	-1.86635084583821	-4.99375833632301	-4.92113614410121	-0.00135436497404278	-0.00513183425126577
1.07	1.31337267895448	-0.533014138724465	578.133160627177	-31.3311030232531	-1.86524596845821	-4.97113833603759	-4.90166045939598	-0.00135371972763553	-0.00513439523040388
1.08	1.26098088591166	-0.537174939715679	578.173141408711	-31.3373234473652	-1.86321830082219	-4.94720397614253	-4.88056858654463	-0.00135144092103836	-0.00512637487932497
1.09	1.21486187084604	-0.541342241941599	578.23076395546	-31.3500255900748	-1.85995834558009	-4.92256216651269	-4.85841718006977	-0.00134700187350702	-0.00510886635645304
1.1	1.17559592605382	-0.545134027951118	578.304338705153	-31.3683315648938	-1.85517558397073	-4.89780874629992	-4.8357716745366	-0.00133990852414967	-0.005083229490433
1.11	1.14338137363313	-0.548146880058018	578.391806146599	-31.3912047157949	-1.84860995017158	-4.87351108455955	-4.81318939788347	-0.00132971872236274	-0.00505106070233954
1.12	1.11804586778676	-0.549989212060467	578.490819013776	-31.417477471493	-1.84004249133501	-4.85019231245352	-4.79120337004939	-0.00131606024962923	-0.00501415245473791
1.13	1.09907545530417	-0.550313791025937	578.598819526269	-31.4458844246462	-1.82930483201818	-4.82831753304715	-4.77030716369734	-0.00129864694525018	-0.00497444334672989
1.14	1.0856593240017	-0.54884754819795	578.713108140727	-31.4750995754974	-1.81628710868193	-4.80828230724197	-4.75094119458736	-0.00127729237192914	-0.00493396037255629
1.15	1.07674743935351	-0.54541680196199	578.830902030825	-31.5037765693161	-1.80094409083799	-4.79040367340013	-4.73348080672502	-0.00125192052644934	-0.00489475521033428
1.16	1.07111769861304	-0.539966245835173	578.949383299079	-31.5305906819575	-1.78329925838884	-4.77491391731966	-4.71822651385116	-0.00122257317456245	-0.00485883669666295
