Time [s]	GRFml [N]	GRFap [N]	GRFv [N]	Mml [N.m]	Map [N.m]	Mv [N.m]	Mfree [N.m]	COPml [m]	COPap [m]
0.01	-1.03712654273094	0.901197356524523	878.052415686945	-7.03546013348985	4.12274985667084	0.896019537091631	-0.891986691144658	-0.0029235500986321	0.00447209578477215
0.02	-1.0568170327759	0.993900075096803	877.392414066324	-7.03671246786042	4.22580068136192	0.899502873571085	-0.895889132730571	-0.00292925803768707	0.00459573452063639
0.03	-1.09372395278004	1.07290221005896	876.651521448862	-7.04292065426877	4.33580232146507	0.903411934631552	-0.899998941389311	-0.00294166499418091	0.0047278720069367
0.04	-1.1588754661373	1.12710965353019	875.782530989956	-7.05667997514702	4.45525284013881	0.908052051830553	-0.904468705102763	-0.00296437726378385	0.00487164893336678
0.05	-1.25544055789704	1.15120193661144	874.784190538248	-7.07850192487098	4.58471291385614	0.913453591242342	-0.909275895952382	-0.00299808839060223	0.00502770686066778
0.06	-1.37771216299162	1.14693166766467	873.702534085294	-7.10686899189	4.72307343032536	0.919331888246403	-0.914199664294013	-0.00304061678138245	0.00519448792200122
0.07	-1.51273929112353	1.1226443989827	872.616453834147	-7.13902981439672	4.86841305472493	0.925140353965219	-0.918857569326596	-0.00308796847485437	0.0053693090967144
0.08	-1.64426806800613	1.09107999162425	871.613258489515	-7.17226358489843	5.01924648742154	0.930199152061057	-0.922787355666127	-0.00313605553364893	0.00554995288618548
0.09	-1.75797475421862	1.06603581569417	870.76280819675	-7.20517609154863	5.1758192011133	0.933861332647479	-0.925547387640567	-0.00318247542460248	0.00573632837652094
0.1	-1.84655542307939	1.05885245655384	870.098478350095	-7.23858788986696	5.34105815923843	0.935669743618157	-0.926807102087755	-0.00322775389053076	0.00593169837529978
0.11	-1.913196323516	1.07576253357872	869.610392475262	-7.27572219137188	5.52085105103455	0.935461707387094	-0.926404025382892	-0.00327565006372466	0.00614305095794371
0.12	-1.97231396265696	1.11687736113477	869.252381374094	-7.32162839077821	5.72348343969383	0.933392097387552	-0.924353451893539	-0.00333242781752696	0.0063803955952203
0.13	-2.04714445121368	1.17706062829947	868.960264994284	-7.38200020695614	5.95827317129326	0.929866437941991	-0.920808981798025	-0.00340529847996718	0.00665503316249944
0.14	-2.16460220530426	1.24833104013639	868.676220297431	-7.46169489698171	6.23364894810057	0.925401109758116	-0.915986187077425	-0.00350044513832548	0.00697711643883975
0.15	-2.34859339892945	1.3229497589499	868.372614640107	-7.563302403294	6.55507292366652	0.920452861104322	-0.910076063666722	-0.00362110704474194	0.00735301753297019
0.16	-2.61344860651093	1.39614368091773	868.068803806051	-7.68606691984722	6.92327193691527	0.915276745306722	-0.903184917573434	-0.00376615004717462	0.00778310637134705
0.17	-2.95919474932816	1.46755956062335	867.835879575439	-7.82537299277219	7.33320807148846	0.909871206165127	-0.895336018325518	-0.0039294273980478	0.00826050224433128
0.18	-3.36999060320954	1.54098905025597	867.786970594258	-7.97291551370263	7.77409412472823	0.904045626282257	-0.886550676140901	-0.00410009562635472	0.00877119384852848
0.19	-3.81628767637258	1.62250003040993	868.054084692568	-8.11758919792739	8.23056221513092	0.89760216464338	-0.876994071426266	-0.00426391136850246	0.00929565585925535
0.2	-4.260328365144	1.71764944415008	868.75602466503	-8.24703712361885	8.68485291632985	0.890573789844128	-0.867134987725883	-0.00440538174255645	0.00981176354119839
0.21	-4.6636958684967	1.82874946754709	869.964745357763	-8.34966322624065	9.11964946593668	0.883424980837273	-0.857845642052312	-0.00451045403949868	0.0102984836370072
0.22	-4.99503775343975	1.95311279406085	871.67869623985	-8.41674742423012	9.52099148428952	0.877120103914857	-0.850373696584743	-0.00456922943200599	0.0107395791973672
0.23	-5.23599624718789	2.08284015474389	873.810546459789	-8.44416413041499	9.88062479049842	0.873004560686422	-0.846158150958239	-0.00457804524238803	0.0111264882505588
0.24	-5.38386568894268	2.20617403351867	876.193237429545	-8.43318710866573	10.1972241431	0.872514307447066	-0.846522548157638	-0.00454029439033676	0.0114596744327167
0.25	-5.4504545152783	2.30992614956025	878.603426247492	-8.39003584723565	10.4761729651085	0.876802203825493	-0.852336993297121	-0.00446560726537693	0.0117480990488182
0.26	-5.4577725393343	2.38217555691857	880.796594462194	-8.32417345936649	10.7279529018321	0.886411298177493	-0.863765978043821	-0.00436748331910231	0.0120069531429656
0.27	-5.43211166952089	2.41442802066137	882.545022018978	-8.24579874029548	10.9655866936159	0.901113175162325	-0.880195100871973	-0.00425998808775485	0.0122542759905414
0.28	-5.39849510029785	2.40270629901868	883.669541105388	-8.1633156171265	11.2018607917247	0.919965514764587	-0.90036257540753	-0.00415451983891901	0.0125074085718244
0.29	-5.3771745253232	2.34748036659731	884.058580035154	-8.08165074266297	11.4471154799556	0.941553965531594	-0.922639274933191	-0.00405771425400347	0.0127802564086908
0.3	-5.38295926466635	2.25277036411329	883.672540161627	-8.00205080518358	11.7081824643594	0.964309591147599	-0.945341840081439	-0.00397122359220015	0.0130820278024058
0.31	-5.42700255967296	2.12500647109858	882.536379742068	-7.92348275442164	11.9886252220672	0.986769018451886	-0.96695614522283	-0.00389346483462683	0.013417558480305
0.32	-5.51969149808964	1.97222779505094	880.726651836182	-7.84515739328025	12.2899436137299	1.00768221276204	-0.986198949595476	-0.0038227009399564	0.0137887297839808
0.33	-5.67286491371946	1.80396150524649	878.35991276713	-7.76922597609873	12.6130354885215	1.02595633263744	-1.00193262076522	-0.00376027469959006	0.0141960758047396
0.34	-5.89988551170182	1.63173940947658	875.58712940776	-7.70254975179277	12.9591251133972	1.04051531077551	-1.01303161388037	-0.00371267526357821	0.0146396399532711
0.35	-6.21301169616291	1.46982290121561	872.594371584538	-7.65669111627608	13.3296221735108	1.05020997247253	-1.01833854674557	-0.00369146051943403	0.0151185214156825
0.36	-6.61870418846496	1.33546437815761	869.605482025273	-7.6458552143065	13.7248722661995	1.05390264025614	-1.01681804644168	-0.00371078500370126	0.0156292040607057
0.37	-7.11249916709264	1.24804475109429	866.879610418336	-7.68323187926023	14.1422933617082	1.05077159090334	-1.00792381849911	-0.00378314877233255	0.0161634093318049
0.38	-7.67547954125157	1.22673067320193	864.696917490736	-7.77680069167929	14.5747301685718	1.04076429017167	-0.992074820075764	-0.0039146833235244	0.0167065690320619
0.39	-8.27399899277891	1.28682805338917	863.329561126307	-7.92594569607183	15.0098467787166	1.02502476307962	-0.97104326538564	-0.00410156945470053	0.0172378992251989
0.4	-8.86328400899262	1.43560353389476	863.000978932559	-8.12006605797625	15.4310153627262	1.0060803092614	-0.948038190851874	-0.0043289219560938	0.0177325003519745
0.41	-9.39424063329131	1.66877601207058	863.842192330317	-8.33979858729833	15.8195957173279	0.987623562086698	-0.927343464809998	-0.00457274452686862	0.0181651336587714
0.42	-9.82171101249015	1.96894271034252	865.857011174067	-8.5606630515334	16.1579719155347	0.973857625254545	-0.91351902048974	-0.0048045873077569	0.0185146502243129
0.43	-10.1119506494526	2.30681256688931	868.907166259611	-8.758163132187	16.4324315185869	0.968538288724875	-0.910344811524705	-0.00499764961598725	0.0187677519761361
0.44	-10.2473758779477	2.64536060194755	872.723633364425	-8.91288691043746	16.6350399609008	0.973982609053357	-0.919810632549184	-0.00513256410317331	0.0189209565279341
0.45	-10.2275231369652	2.94613286855909	876.943349617731	-9.01412510257822	16.7640290614379	0.990359822226561	-0.941477663964097	-0.00520115690031164	0.0189802272154909
0.46	-10.0663204383776	3.17623173454056	881.163632396662	-9.06098569312991	16.8227193166576	1.01551395693464	-0.972443120681683	-0.00520709638013761	0.018958470858656
0.47	-9.78679257353991	3.31424871156013	885.002213241133	-9.0607857556295	16.8174312126233	1.04540737831634	-1.00795720110204	-0.00516332448784851	0.0188717152137873
0.48	-9.41489601003037	3.35368284027596	888.15015670529	-9.02537559497008	16.7550651246434	1.07507751003165	-1.04253572657323	-0.00508718179635126	0.0187350564622287
0.49	-8.97418798710309	3.30308973743732	890.407842042552	-8.96669398761355	16.6410028507008	1.0998357542304	-1.07125546983809	-0.00499484374288184	0.0185593706186986
0.5	-8.48255543861535	3.18310242077121	891.69921213518	-8.89304130762398	16.4777717914276	1.1163647863491	-1.09086574967144	-0.00489684008023816	0.0183494176942898
0.51	-7.95147377176551	3.02125363026759	892.064711643377	-8.8072300570688	16.2646375685657	1.12340999471644	-1.1004144242123	-0.00479598850587293	0.0181035197471944
0.52	-7.38748491228304	2.84598032176283	891.637170540823	-8.70706001414294	15.9980671945683	1.12189453866356	-1.10124244514365	-0.00468820681501592	0.0178146359041023
0.53	-6.79499815986098	2.68121760089478	890.606689493472	-8.58773648478174	15.6728912193969	1.11446630063788	-1.09639315543834	-0.00456569310061028	0.0174724774127978
0.54	-6.17927287853842	2.54265641165362	889.180691924115	-8.44520610743072	15.2839776452116	1.10464878640509	-1.08964740684929	-0.00442122243681808	0.0170662878702979
0.55	-5.5485881599535	2.43620714235207	887.544652910354	-8.27914382296392	14.8282507865188	1.09586672524461	-1.0844841046853	-0.00425204056542539	0.0165879674574903
0.56	-4.91507307586519	2.35865585866694	885.828483698259	-8.09454524861085	14.306873143756	1.0906261005541	-1.08325724857292	-0.00406209602737684	0.0160352393248143
0.57	-4.29427377891867	2.30005297921455	884.083462860633	-7.90144697330659	13.7273189315674	1.09005364995705	-1.0867867509769	-0.00386200679323767	0.0154144803379914
0.58	-3.70401116178971	2.24710344871978	882.274543188531	-7.71298102737929	13.1049251484691	1.09387408661863	-1.09441886049906	-0.00366694355605268	0.0147426890767968
0.59	-3.1632146998901	2.18674558469231	880.291920701596	-7.54251316301069	12.46339079778	1.10076878106638	-1.10447166671653	-0.00349324603963808	0.0140479446603671
0.6	-2.69114789075835	2.10918966653806	877.983087695318	-7.40083583961359	11.8337158929754	1.10895913590273	-1.11488484011616	-0.00335487187544803	0.0133677612316049
0.61	-2.30693220316325	2.00989375956404	875.202043944426	-7.29424156312487	11.2513100870537	1.11681736982009	-1.12386386578802	-0.00326066080401821	0.0127450676113971
0.62	-2.02884458062828	1.89023026455788	871.866804881401	-7.22388973108334	10.7514521988039	1.12333033628424	-1.13034567354368	-0.00321298424149097	0.0122221307884762
0.63	-1.87279877414273	1.75688638935851	868.011676928277	-7.18639158003655	10.3638315186837	1.12831078329793	-1.13419151081947	-0.00320784076057712	0.0118334425259311
0.64	-1.84980905000332	1.62029054144042	863.819141849137	-7.17516998951175	10.1073507317537	1.13233575247356	-1.13610128579038	-0.00323605399425253	0.0115991413645675
0.65	-1.96289064978257	1.4925152632959	859.619115699527	-7.18202340873279	9.98651433437493	1.13646529707761	-1.13731316071273	-0.00328505189612349	0.0115206862326088
0.66	-2.20441426500651	1.38514092497979	855.850787581892	-7.19843682180327	9.99045211301498	1.14183950864557	-1.13918919336696	-0.00334075649618193	0.0115800942193344
0.67	-2.55507197481047	1.3074685976966	852.992316265003	-7.21643602988866	10.094977842869	1.14926562958484	-1.14279433070837	-0.00338929508302888	0.0117431719728354
0.68	-2.98521770666468	1.26528603349345	851.473184103177	-7.22903281812679	10.2672567824428	1.15889714918761	-1.14856284878467	-0.0034184286486687	0.0119660762111135
0.69	-3.45857682437024	1.2601990847085	851.589708849161	-7.23044776636429	10.4719297770762	1.17008195525637	-1.15612330631141	-0.00341869064272216	0.0122036019795829
0.7	-3.93751019803684	1.2894308366858	853.444067687476	-7.21629190357618	10.6771622034328	1.18142137397529	-1.1643235635775	-0.00338422366146252	0.0124171358537243
0.71	-4.3884947343872	1.34600552539915	856.921205757774	-7.18378288813938	10.8591688739963	1.19103743999904	-1.17145980895319	-0.00331324575551417	0.0125803684349328
0.72	-4.78641765093596	1.41933671952054	861.708163521627	-7.13195004255085	11.0042617832413	1.19699515984326	-1.17566786507405	-0.00320804709778488	0.0126815587437541
0.73	-5.11665172037359	1.49632626769926	867.349768949144	-7.06171809490561	11.1081944131339	1.19777956901684	-1.17538868254816	-0.00307446105871334	0.0127221319801559
0.74	-5.37451777003924	1.5630476329172	873.326361436892	-6.97577784768583	11.1732996776875	1.19269954808599	-1.1697876812521	-0.0029208664301249	0.0127123555416058
0.75	-5.56243821544265	1.60690294738199	879.135276427257	-6.878228217651	11.2044360502978	1.1820965817584	-1.15900565127053	-0.00275690723390853	0.0126655081353598
0.76	-5.68566293368631	1.61888154996834	884.358766700805	-6.7740557312514	11.2049546537634	1.16728284874938	-1.14415604339085	-0.00259219637679553	0.0125921886616533
0.77	-5.74779135590009	1.59535308663054	888.70603185677	-6.66855863986024	11.1737704773933	1.15021054412596	-1.12705436330767	-0.0024352564597917	0.0124962033129886
0.78	-5.74736612014039	1.53883197592038	892.024338196118	-6.56680826945658	11.1042402818211	1.13296030348636	-1.10974977278199	-0.00229284901985038	0.0123729337915016
0.79	-5.67656421167054	1.45739288357225	894.281807703935	-6.47318950839012	10.9850428997733	1.11720098991438	-1.09399765025193	-0.00216969931679256	0.0122104013366691
0.8	-5.52249771449502	1.36282139261453	895.530538582426	-6.39101402547209	10.8027574847717	1.10379003987827	-1.08083757292221	-0.00206850296245997	0.0119925815014768
0.81	-5.2709521014579	1.26799122931449	895.862083013629	-6.32218769458414	10.5454516511291	1.09264256410173	-1.07041058259708	-0.00199005512668116	0.0117040376425421
0.82	-4.91169082714512	1.18420426514116	895.367502556753	-6.26694723411234	10.2063924998801	1.0829095043694	-1.06207034868499	-0.00193338675688182	0.0113347097576744
0.83	-4.44393397121595	1.11921501913953	894.111551288965	-6.22373936496887	9.78699987399916	1.07340036428759	-1.05474225426941	-0.00189589526472622	0.0108837354906641
0.84	-3.88045095854279	1.07639670846425	892.125905646188	-6.18935769887802	9.29835105480288	1.06310231272001	-1.04739929558794	-0.00187355980457915	0.010361450907256
0.85	-3.24898089955738	1.05509731248879	889.421022167455	-6.15943784969291	8.76086731406461	1.0516155701217	-1.03948543497802	-0.0018613722044295	0.00978914199269959
0.86	-2.59036017915102	1.05183913006217	886.011463248453	-6.12932289856675	8.20219644291095	1.03935614563071	-1.03113909261792	-0.00185406011087796	0.00919659988718807
0.87	-1.95360978215454	1.06178185872023	881.946442527405	-6.09516886675619	7.65367756661334	1.02745893320719	-1.02314250809144	-0.001847041479344	0.00861798078331827
0.88	-1.38904636485176	1.07988087276258	877.336486528004	-6.05501720716576	7.14606454239623	1.0174168757793	-1.01661948784538	-0.00183738741812378	0.00808680398809036
0.89	-0.940973255617149	1.10141524947185	872.368489845002	-6.00948797927346	6.70533333161744	1.01057961312125	-1.01259045616112	-0.00182446612357157	0.00763107766756216
0.9	-0.641529141811072	1.12192363159949	867.304524448194	-5.96179766437415	6.34937208879774	1.00767905184379	-1.01154098665345	-0.00180996447823445	0.00726949015990047
0.91	-0.506841743807989	1.13690371635651	862.463657369607	-5.91698825123176	6.08615250008342	1.00853697539676	-1.01315371383437	-0.00179715610333597	0.00700935600800862
0.92	-0.535937872002394	1.14175227018227	858.189745697062	-5.88051785188554	5.91365292984624	1.01204758490215	-1.01629745342108	-0.00178955568160277	0.00684661720000224
0.93	-0.712177344189899	1.13228547250602	854.810905670868	-5.8566092316891	5.82142925806844	1.01643827517539	-1.0192815683502	-0.0017893621680658	0.00676776497940407
0.94	-1.00654795603466	1.10584669729765	852.597672759679	-5.84687538748017	5.79340042137519	1.01972562969892	-1.02029760711864	-0.00179622788095002	0.00675316942667004
0.95	-1.38207163551968	1.06263928046811	851.726796290611	-5.84967702366444	5.81120672022574	1.02022842790063	-1.01791261442765	-0.00180682071342064	0.00678106413382423
0.96	-1.79872766869649	1.00669189517345	852.256467817619	-5.86042826826019	5.85744419245418	1.01699069214992	-1.01146673186823	-0.00181538325730912	0.00683136863951284
0.97	-2.21847890657757	0.945883604720693	854.116966511874	-5.87274259997586	5.91816876540541	1.01000355584437	-1.00126225562523	-0.00181513359089569	0.00688863199017425
0.98	-2.60999956845533	0.890722695588512	857.118501048519	-5.88002721561442	5.98426017063457	1.00017849264856	-0.988496954984238	-0.00180004208532292	0.00694360491574347
0.99	-2.95251574882929	0.851987731793058	860.975564937866	-5.8769998089986	6.05148757599392	0.989093328960382	-0.974967689633789	-0.0017663825198182	0.00699324216415936
1	-3.23794185711692	0.837754892236084	865.344505447554	-5.86066203721786	6.11938037427054	0.978586577943492	-0.962629054256106	-0.00171354610874286	0.00703924977761261
1.01	-3.47048945251074	0.850618514033932	869.868507769028	-5.83048528718069	6.18924097750528	0.970304017769401	-0.953122181204034	-0.00164388299772877	0.00708557965666018
1.02	-3.66333629409311	0.885975953044916	874.222350284147	-5.78785449129495	6.26180944242069	0.965302806879192	-0.947387778892695	-0.00156168621655373	0.0071354925509351
1.03	-3.8327601326624	0.932065007736022	878.148772892651	-5.73506500842989	6.33517108596595	0.963798183843302	-0.945450398751177	-0.00147172546058139	0.00718891674312333
1.04	-3.99110263503713	0.972037575388932	881.479638613057	-5.67429108544037	6.403460414175	0.965104009654671	-0.94641796057353	-0.00137787009771206	0.00724078505328291
1.05	-4.14062203038809	0.987803700417612	884.138282136623	-5.60690907041844	6.45674525806604	0.967778746117238	-0.948692759849084	-0.00128227434291306	0.0072808216440341
1.06	-4.27034587165765	0.96481351212894	886.123878903081	-5.53338901984793	6.48219190476367	0.96994869027575	-0.950346599208652	-0.00118536660096658	0.00729489794052418
1.07	-4.35730255371891	0.896526860774415	887.483133679607	-5.45373391235715	6.46627255456176	0.969744476742421	-0.949579299905804	-0.00108657920427124	0.00726765925108835
1.08	-4.37216798548962	0.787217270331167	888.277718491003	-5.36823447990993	6.39747102474985	0.965759164428272	-0.945160483543058	-0.000985486409860736	0.00718575452365749
1.09	-4.28786061136849	0.652070016945503	888.556670539854	-5.27819602320262	6.26877000120294	0.957422770591966	-0.936752793712181	-0.000882883137933832	0.00704080105908678
1.1	-4.08850529740081	0.514239082679526	888.341112645785	-5.18631920558483	6.07923389200996	0.94519655741446	-0.925034459252249	-0.000781379692709527	0.00683126505058584
1.11	-3.77590150406552	0.399446038376192	887.62475012834	-5.0965646641836	5.83424443843237	0.930525742516092	-0.911581452521947	-0.000685286533285367	0.0065627416254872
1.12	-3.37132020439487	0.329538858498985	886.388837998692	-5.0135386606565	5.54433567182486	0.915548194793062	-0.898528545102542	-0.000599836602915849	0.00624658921849863
1.13	-2.91190820686205	0.316864809964788	884.626124299306	-4.94161861175904	5.22298663006387	0.902624376049028	-0.888089333253835	-0.000530032175278805	0.00589736135174435
1.14	-2.44270449845585	0.361145544797346	882.365830919754	-4.88412137427642	4.8840263392313	0.893807890076206	-0.882057558094408	-0.00047951792486467	0.0055298207759556
1.15	-2.00667371906072	0.449787456144096	879.691617694381	-4.84277661459528	4.53938668249009	0.890395853613404	-0.88141905281015	-0.000449837359402294	0.00515640307655274
1.16	-1.6357556682231	0.561466225230192	876.746580280329	-4.81763086024935	4.1977833389933	0.892675056566692	-0.886170904203599	-0.000440259770902784	0.00478579960281611
1.17	-1.34552501311762	0.671790525209399	873.722966058759	-4.80734208529162	3.86457567836733	0.899921104358381	-0.895382715082424	-0.000448151555538234	0.00442293206408523
1.18	-1.13481171189656	0.759260174824582	870.838430227461	-4.80970116706946	3.54267252967494	0.910634137221927	-0.907465821097746	-0.000469697566977012	0.00407013658896743
