Time [s]	GRFml [N]	GRFap [N]	GRFv [N]	Mml [N.m]	Map [N.m]	Mv [N.m]	Mfree [N.m]	COPml [m]	COPap [m]
0.01	-4.06059608132454	1.0636280084485	641.659567429801	19.5493398260734	52.7631973109871	0.26800567108464	-0.479218756001933	-0.00398932819090514	0.00585204774267711
0.02	-4.15013291738962	1.04417120746993	641.760866598219	19.6398740183921	52.6021897949037	0.295161898108015	-0.507805528069391	-0.00385355467310011	0.00559587712976228
0.03	-4.20609937013476	1.03197340249056	641.860761579783	19.7217011286994	52.4412496515487	0.32039713393845	-0.533970622500895	-0.00373117554685376	0.00534006607810983
0.04	-4.20487420977125	1.03306266133773	641.959982854553	19.7870965756311	52.2830553434262	0.342246857358314	-0.555966681982534	-0.00363417988616488	0.00508877096421373
0.05	-4.13809519795958	1.05067443175694	642.059849147401	19.8310243083451	52.1307315883576	0.360392693641274	-0.573453799711284	-0.00357043123544443	0.00484675261426287
0.06	-4.01427757905113	1.08454247592859	642.16246717003	19.8520643628486	51.987358177843	0.375766143075195	-0.587600005594371	-0.00354223633857975	0.00461858347485883
0.07	-3.85546478952567	1.13095263026243	642.270379168923	19.8526897507615	51.855196345218	0.390228204451358	-0.600661991875038	-0.00354589083116674	0.00440748527554907
0.08	-3.69013522849434	1.18357676660558	642.385363138267	19.8387571241922	51.7347717774713	0.405951531648063	-0.615211608844543	-0.00357240190064079	0.00421404802780218
0.09	-3.54468368019246	1.23488315145215	642.506420093332	19.818253274739	51.6240609680559	0.424723860962405	-0.633282768946584	-0.00360932926162982	0.00403520893732578
0.1	-3.43608032097976	1.27773860923962	642.627466604937	19.7995456762172	51.5180859425394	0.447399419026058	-0.6557165757011	-0.00364338787359586	0.00386390305110734
0.11	-3.3677745099587	1.30676544860931	642.735725287609	19.7895480226357	51.4091919990268	0.473655931950065	-0.68189317713558	-0.00366322305253808	0.00368969388634538
0.12	-3.32980059239486	1.31912455444449	642.812034069324	19.7922674654332	51.2881402847845	0.502101917382984	-0.70990017165762	-0.00366168975086467	0.00350044292434221
0.13	-3.30274033133241	1.31462210176407	642.834035879768	19.8081170746315	51.1459106016686	0.530664985821567	-0.737050504827756	-0.00363708233874815	0.00328473974990606
0.14	-3.26409144054669	1.29528193372781	642.782348733444	19.8341693481109	50.9758476937539	0.557113596973176	-0.760568776572238	-0.00359304221249612	0.00303450947511547
0.15	-3.19498360379422	1.26468199002236	642.648503535123	19.8652548106505	50.7755932924717	0.579542521090188	-0.778235319594096	-0.00353723135624806	0.0027470738299229
0.16	-3.08521996029634	1.22735752411435	642.44214023726	19.8955620867488	50.5482141531358	0.596686995313457	-0.788813078756706	-0.00347918514730106	0.00242604771828964
0.17	-2.93527081539231	1.18843410284817	642.194323248174	19.9202566999094	50.3021026364063	0.608005745361737	-0.792166575645639	-0.00342794612416186	0.00208078739688494
0.18	-2.75489888865505	1.15344413969249	641.954410091665	19.936653043123	50.049558796551	0.613560591782669	-0.789086415816124	-0.00339008253911277	0.00172455521902487
0.19	-2.55921316106618	1.12810917054147	641.779773947629	19.9446389390429	49.8043614886999	0.613788936826114	-0.780923232679946	-0.00336852849879854	0.00137196282923802
0.2	-2.36375675373136	1.1178281793671	641.720323549355	19.946303068707	49.5789655147414	0.609290518061478	-0.7691823886326	-0.00336241805093906	0.00103645171837102
0.21	-2.18045008207937	1.12673430735023	641.802192173592	19.9449626895225	49.382101974249	0.600723237666343	-0.755220596706512	-0.00336781624415394	0.000728498780718401
0.22	-2.01575667837853	1.15642548682457	642.016112338043	19.9439518507301	49.2174519898342	0.588837225631129	-0.740124648467811	-0.00337905084250845	0.000454932686163645
0.23	-1.87149013989503	1.20473313399637	642.315184867142	19.9455669811059	49.0837389397213	0.574600614043544	-0.724766977428922	-0.00339025220004929	0.000219339004810082
0.24	-1.7476068356404	1.26504204095038	642.624057843346	19.9504833748947	48.9761473763827	0.559318030093151	-0.70995813047374	-0.00339670935451097	2.31740430712279e-05
0.25	-1.6455516975282	1.32662546458283	642.857797332699	19.9577933607149	48.8885715101673	0.544636475019069	-0.696581741124236	-0.00339572453503267	-0.000132978977344711
0.26	-1.57054322883296	1.37620173069248	642.945290257032	19.9656267410373	48.8159522056381	0.532375991441997	-0.685614855787071	-0.00338677877215532	-0.000248549561839229
0.27	-1.53165295244813	1.40052880179133	642.850173430334	19.9721425399228	48.7559526108852	0.524196749911739	-0.677995411991813	-0.00337099901389792	-0.000322850503685523
0.28	-1.53944626910348	1.38946668349202	642.582769748162	19.9765641187955	48.7094470373056	0.521189624072403	-0.67437290207213	-0.00335012211000074	-0.000355725752551106
0.29	-1.60193511045343	1.33869783093089	642.199194064419	19.9798956788348	48.6796835842323	0.523523302081238	-0.674836543144961	-0.00332533302921756	-0.00034874166335308
0.3	-1.72027550511675	1.25130080256547	641.787714951185	19.9850262207831	48.6704100778005	0.530278436548363	-0.678734495084688	-0.00329643846407046	-0.00030648559456764
0.31	-1.8857970691228	1.13763796691618	641.446266835303	19.9960963408718	48.6835945929743	0.539548121856271	-0.684671804042436	-0.00326175837095288	-0.000237453863235038
0.32	-2.07955836944703	1.0134702436278	641.257479864658	20.0172401020005	48.7175192853172	0.548802627209427	-0.690716051432163	-0.00321887003458088	-0.000154071537829426
0.33	-2.27484609267409	0.896711918003062	641.268067449332	20.0510501749564	48.7659275878907	0.555434117624881	-0.694771800527184	-0.00316599561232012	-7.15927130171545e-05
0.34	-2.44213754180625	0.803630646555739	641.477914834151	20.0972636059429	48.8185818798328	0.55734218386152	-0.695031966903174	-0.0031035194168465	-5.95291145782939e-06
0.35	-2.55529111119372	0.74546189388296	641.84134491365	20.1521577370106	48.8631362047295	0.55340966748985	-0.690391481248361	-0.00303499356941694	2.89902899263672e-05
0.36	-2.59732484869482	0.726296897012039	642.279693739201	20.2089606573559	48.8877903312969	0.543750269722124	-0.680718812378616	-0.00296711543747752	2.41041185151114e-05
0.37	-2.56420091539984	0.742755654717281	642.701417984271	20.2592648227726	48.8839170096494	0.529670735098488	-0.666916638369685	-0.00290850948565513	-2.32955237408072e-05
0.38	-2.46554987330632	0.785473640470599	643.024195614841	20.2950892977283	48.8478471949736	0.513361006218737	-0.65075229238688	-0.00286759451243002	-0.000109260066431416
0.39	-2.32211303566011	0.841947364925908	643.193258047386	20.3109888812026	48.7812728290421	0.497387997560322	-0.63449042649852	-0.00285019167929645	-0.000224729586529471
0.4	-2.16061186713885	0.899930369269242	643.191503449558	20.3055537703721	48.6901943960395	0.484111638269204	-0.62040622108393	-0.00285767856710184	-0.000358352734299017
0.41	-2.00747785196817	0.950444156026096	643.039391934187	20.2818120593105	48.5828339197078	0.475160554597145	-0.610290326381235	-0.00288635236851931	-0.000499718776716784
0.42	-1.88315246709278	0.989606465275137	642.785514538024	20.246388564362	48.4672699724494	0.471096349584145	-0.605068579859717	-0.00292827560422715	-0.000641931118074812
0.43	-1.79840696305776	1.01884840278344	642.491231007352	20.2076708522392	48.349603808935	0.471357271861055	-0.604641948887632	-0.00297338087799837	-0.000782662228954734
0.44	-1.75344680041356	1.0435868923873	642.21416688534	20.1735473187913	48.2332195566598	0.474504619360004	-0.60800075412502	-0.00301218940633496	-0.000923375230104495
0.45	-1.73971807442399	1.07088595942265	641.995264908544	20.1494032082156	48.11925771535	0.478708419462105	-0.613588543170377	-0.00303830359424273	-0.00106707541233592
0.46	-1.74361627451996	1.1069233722204	641.852586647065	20.1369513548089	48.0079546385364	0.482326353259681	-0.61980631249026	-0.00304992965664275	-0.0012155045778291
0.47	-1.75091025480576	1.15507728880266	641.782694783844	20.1341831319768	47.9001871712593	0.484384739271812	-0.625489418731455	-0.0030500242956959	-0.00136690160419273
0.48	-1.75067991480282	1.21516042439878	641.768021378152	20.1363630258441	47.7985102401778	0.484791514041843	-0.630188095763851	-0.00304510573180983	-0.00151524908638873
0.49	-1.73783996026399	1.28386622436635	641.786938419953	20.1376858393534	47.7071915676774	0.484204761925723	-0.634149973575079	-0.00304316236068269	-0.00165139271257481
0.5	-1.71375062747297	1.35603468853998	641.822798204824	20.1330640315514	47.631140786423	0.483618458159106	-0.638020762829987	-0.00305130751271088	-0.0017657575550209
0.51	-1.6848878188166	1.42607805790208	641.869046031383	20.1195438839822	47.5740545302303	0.483852811672808	-0.642400351330423	-0.00307382135323797	-0.00185182461927474
0.52	-1.65999114246282	1.48893627092097	641.929218310714	20.0970246548635	47.5364101369072	0.485187979723424	-0.647459545494583	-0.003111030607303	-0.00190924798075576
0.53	-1.64647802834468	1.54024271957234	642.012547994217	20.0681927975864	47.5140408948846	0.487322327816583	-0.652799872316386	-0.00315919825989663	-0.00194555954715692
0.54	-1.64713901290386	1.57583345409868	642.127331892015	20.0377968852492	47.4978876337957	0.489685647198201	-0.657628578781309	-0.00321133159082232	-0.00197578902714363
0.55	-1.65812975295899	1.59111945716888	642.274744183988	20.0115204672401	47.4751871137022	0.491958939448115	-0.661170413688525	-0.00325863736165233	-0.00201990606680852
0.56	-1.6689885334839	1.58097239063145	642.445349807334	19.9947465052683	47.4319239265035	0.494531946822486	-0.663117685097766	-0.00329227562561918	-0.00209861341650791
0.57	-1.66485388704257	1.54056637835597	642.619458040904	19.9914716002047	47.3559667262818	0.498632793989665	-0.663890470969286	-0.00330506551132292	-0.00222851993952072
0.58	-1.63036923515374	1.46714346862754	642.771120304327	20.0035578160645	47.240057805386	0.505999831051515	-0.664558285282606	-0.00329284193223589	-0.00241795824165003
0.59	-1.55416393483826	1.36213371721437	642.874467453302	20.0304324180123	47.0838157546283	0.518178128612184	-0.666429195896395	-0.00325522953430568	-0.00266459882889503
0.6	-1.43252556041037	1.23271489655126	642.910493089011	20.069270403391	46.894161281736	0.535715328469832	-0.670471285264389	-0.00319568900025824	-0.00295555804182496
0.61	-1.27106481053523	1.09192627312345	642.872396780239	20.1156176151842	46.6840170798641	0.557611620580689	-0.676819932117548	-0.00312081046145385	-0.00327001604731658
0.62	-1.08379122297078	0.956883416460084	642.768096339895	20.1643313170212	46.4696251342603	0.58130344853864	-0.684600368962653	-0.00303897749824356	-0.00358365596836269
0.63	-0.889861677998212	0.845327742747979	642.619292819813	20.210641237854	46.267208178845	0.603257089496021	-0.692167837018201	-0.00295867641875636	-0.00387373052252415
0.64	-0.709032553859	0.771418052545474	642.457304065669	20.2510912956337	46.0898536711309	0.620001193497023	-0.697693139620155	-0.00288683164839287	-0.00412342227513857
0.65	-0.557258351182034	0.742055559455304	642.316594497131	20.2841356714569	45.9453804259656	0.629240417390133	-0.699874480122638	-0.00282756190945332	-0.00432442649718923
0.66	-0.4437833427056	0.754958682617029	642.227405623253	20.3102424382889	45.8356165300156	0.630642669430256	-0.698497623509459	-0.00278165285604892	-0.00447725115866832
0.67	-0.370505190181332	0.799177383617437	642.209077462752	20.3314878131058	45.7570956743732	0.62599979294522	-0.694617332599692	-0.00274685133147112	-0.0045894000413334
0.68	-0.333561025327931	0.857946080759035	642.265532913927	20.3507657870067	45.7028067520019	0.61868297976103	-0.690271266552279	-0.00271886270970145	-0.00467216631476769
0.69	-0.326304204021124	0.913012149974395	642.383993181384	20.3708445130743	45.6644134615172	0.61256513979467	-0.687809235966506	-0.00269274840466338	-0.00473705556676446
0.7	-0.342395879759216	0.949125372912156	642.537350360139	20.3935358005869	45.6343374540814	0.610770582866697	-0.689062943226931	-0.00266433397244958	-0.00479282210872722
0.71	-0.377797839060727	0.957389150299694	642.689835837893	20.4191957051626	45.6072440562006	0.614671533820128	-0.694644268330838	-0.00263127206830005	-0.00484379125922157
0.72	-0.430996054420941	0.936627566882001	642.804844072624	20.446660840437	45.5807112744938	0.623463075837117	-0.703622500957449	-0.00259353901340542	-0.00488968195589984
0.73	-0.501587913314904	0.892617307857213	642.853202274553	20.4735884499057	45.5551139662307	0.634447239722668	-0.713705602899578	-0.00255332545641551	-0.00492669398314155
0.74	-0.588094460458731	0.835697049779052	642.820005536378	20.4970574451198	45.5329446543401	0.643915871220622	-0.721880113040678	-0.00251444501981413	-0.00494931224066464
0.75	-0.686199304101662	0.777667928382293	642.70844856516	20.5142386246204	45.5178818474187	0.648325261693562	-0.725306893863514	-0.0024814783391236	-0.00495217552700816
0.76	-0.788417722514665	0.728937630059065	642.539800195197	20.5229633157644	45.5139015564177	0.645369553002422	-0.722180029066219	-0.0024588761550316	-0.00493145752897378
0.77	-0.885548144287248	0.696592260689562	642.349561481748	20.5220890083669	45.5246302987041	0.634609621080689	-0.712265554249446	-0.00245018530824637	-0.004885454763214
0.78	-0.969439480773241	0.683664150261286	642.180651684588	20.5116394916287	45.5529977676629	0.617476330602639	-0.696942768611953	-0.00245748077247365	-0.00481438023056291
0.79	-1.03597920485408	0.689477197874437	642.074984496229	20.4927512257596	45.6011128957664	0.59668130119301	-0.678737286514051	-0.00248102796283234	-0.0047196270649576
0.8	-1.08703783809115	0.710711153630564	642.064985339734	20.4674742629402	45.6702053221699	0.575260208130954	-0.660504275304272	-0.00251918026906373	-0.00460291589044726
0.81	-1.13046286442132	0.742758602855279	642.166542418179	20.4384660027669	45.7604765616543	0.555580829181528	-0.644534188549947	-0.00256852497471571	-0.00446573298086905
0.82	-1.17794456948883	0.781009437750968	642.374687952188	20.4086022279888	45.8707922332306	0.53864004455375	-0.631873166484788	-0.00262429801700159	-0.0043093131372135
0.83	-1.24137789755356	0.821819825781034	642.663003409941	20.3805298325774	45.9982832396251	0.523859908324606	-0.622070814536529	-0.00268107041582955	-0.00413517825516613
0.84	-1.3289040929938	0.863053845556269	642.987267818224	20.3562020645227	46.1380488071545	0.509416289559298	-0.613419006485253	-0.00273366055452573	-0.00394599611552315
0.85	-1.44193331273493	0.904199781558391	643.293140621855	20.3364598905931	46.2832054678744	0.492956724168159	-0.603580617506802	-0.00277815860837305	-0.00374636149722501
0.86	-1.57410898712215	0.946147255849619	643.526719383013	20.3207388368155	46.4254670744471	0.472446640065677	-0.590384828448376	-0.00281288343209918	-0.00354308359841909
0.87	-1.71253375745132	0.990753733452362	643.645852967822	20.3069804322953	46.5562792497929	0.446861416102074	-0.572526362589752	-0.00283905059012834	-0.00334470368555861
0.88	-1.84088295045686	1.04031921136878	643.629486534849	20.2918084106445	46.668319426269	0.416516689740909	-0.54995780439832	-0.00286093306519331	-0.00316022605757721
0.89	-1.94351372561395	1.09703433462829	643.482427879746	20.2709928878011	46.7569911383363	0.382967450093575	-0.523881528319647	-0.00288535882287699	-0.00299734073348851
0.9	-2.00946447440055	1.16240771799966	643.233918115041	20.2401733909632	46.8214680819297	0.348554173916026	-0.496384136324438	-0.00292051595849807	-0.002860642701974
0.91	-2.03533509204244	1.23666601042825	642.930084448121	20.1957498033274	46.8649260440798	0.31577929023508	-0.469863486581338	-0.00297421003778886	-0.00275041745859905
0.92	-2.02636077484898	1.31818500305054	642.622234380548	20.1357909548879	46.8938281227292	0.286727900357472	-0.446444195469417	-0.00305189782366766	-0.00266242410706369
0.93	-1.99542626453218	1.40312329911341	642.354343869609	20.0607710781821	46.9164280957165	0.26270152696073	-0.42755470318577	-0.00315494873555777	-0.00258880117780474
0.94	-1.96021675914689	1.48550752797291	642.15343479702	19.9739422895856	46.9409165505054	0.244138712438376	-0.413764220759271	-0.00327960607424893	-0.00251985609880623
0.95	-1.93909936955222	1.55797000191064	642.025628035258	19.8811973534437	46.97374795092	0.230791719758266	-0.404882511479264	-0.00341700732275574	-0.00244621944567458
0.96	-1.94662550043968	1.61313799698189	641.958766163308	19.7903694508506	47.018602003653	0.222051734635343	-0.40024317053155	-0.00355439113694933	-0.00236076139127506
0.97	-1.98968932349242	1.64538740516954	641.930282752342	19.7100387089704	47.0761808127876	0.217287030887365	-0.399046576809524	-0.00367732288294687	-0.00225980647720969
0.98	-2.06531774660155	1.65244127232771	641.917258413941	19.6480417788769	47.1447304528397	0.216080145601388	-0.400641257722244	-0.00377249076601682	-0.00214347086525102
0.99	-2.16076971187616	1.63624783423504	641.904987353116	19.6099783449764	47.2209358343859	0.218305488514365	-0.404665081939997	-0.00383044184991543	-0.00201524826111577
1	-2.25610666036255	1.60276111534893	641.89110023294	19.598046842235	47.3007701720942	0.224054605810758	-0.411031293987148	-0.00384759970665904	-0.0018811578329303
1.01	-2.32875681848366	1.56060560649316	641.884057349759	19.6105006753652	47.3800021786519	0.233469777697398	-0.419804380585038	-0.00382705131111438	-0.00174877984675109
1.02	-2.35899967751539	1.51899288236417	641.896957938451	19.6418934308333	47.4543045000821	0.246571297797777	-0.431045272636306	-0.00377788208720908	-0.00162637470766047
1.03	-2.33493953768301	1.48552316975974	641.939313056659	19.6840981265571	47.5191448546692	0.263153038713122	-0.444702826071035	-0.00371320441591805	-0.00152210607993003
1.04	-2.25557500411961	1.46455548147761	642.010105643713	19.7278867515546	47.5697657909557	0.282780068736418	-0.460592165328679	-0.00364736773613428	-0.00144327319399074
1.05	-2.1310499144327	1.45665422407977	642.094922449186	19.7647021796757	47.6015193776869	0.304868189287765	-0.478447969824727	-0.00359305500182128	-0.00139545798541485
1.06	-1.97998131761921	1.45927835444651	642.168438445118	19.7881995779851	47.6106462731379	0.328782500509296	-0.497997554672454	-0.00355898698292823	-0.0013815959683911
1.07	-1.82465446474197	1.46847624610004	642.201626099563	19.7952039636081	47.595358035824	0.353882370558037	-0.518986791359591	-0.00354875909825447	-0.00140111976577617
1.08	-1.68554630404985	1.48100593555454	642.171403302241	19.7859053358157	47.5568954780066	0.37947198906146	-0.541119486866762	-0.00356098531744886	-0.00144942295123318
1.09	-1.57683680914642	1.49612493099408	642.069550794183	19.7633327388253	47.500166799347	0.404677319874541	-0.563926249227766	-0.00359053823216193	-0.00151789694248067
1.1	-1.50420144583494	1.51635577241673	641.907869474385	19.7323361328668	47.4336412865368	0.428332363646268	-0.586634895469036	-0.00363038636428115	-0.00159469626196668
1.11	-1.46536499600566	1.54683784364192	641.717632940173	19.6983979607511	47.3683624864716	0.448985649993061	-0.60814032357163	-0.00367343307973556	-0.00166621825107677
1.12	-1.45292619183995	1.59334794859591	641.543077010808	19.6665744668222	47.3161894307573	0.465109209878237	-0.627148197357092	-0.00371387269021517	-0.00171909599262354
1.13	-1.45819178074414	1.65956723137459	641.430463627126	19.6407577155756	47.287602765996	0.475509677203061	-0.642496892509104	-0.0037478333223474	-0.00174235503943032
1.14	-1.47447811254346	1.74451585703021	641.415653626889	19.6233113450377	47.2895592131303	0.479835177247732	-0.653572648560941	-0.00377335830554459	-0.00172931866250609
1.15	-1.49865607806127	1.84112851812208	641.513715578015	19.6150252012934	47.3239021226488	0.478989670792685	-0.660664191392179	-0.00378997700755113	-0.0016788784647741
1.16	-1.53050751521234	1.93665591323477	641.713680481561	19.6152880303706	47.3867318042518	0.475252225698088	-0.66509178227012	-0.00379817173185759	-0.00159586254410743
1.17	-1.57041281465477	2.01502401740515	641.980191261975	19.6223884571606	47.4689336917874	0.47197132938554	-0.669006528369366	-0.00379896879908859	-0.00149039711576326
