Time [s]	GRFml [N]	GRFap [N]	GRFv [N]	Mml [N.m]	Map [N.m]	Mv [N.m]	Mfree [N.m]	COPml [m]	COPap [m]
0.01	2.20159527952709	-1.04253404304559	705.820490280581	2.35763062632515	11.0314593383696	1.29401804851515	-1.27036381223207	0.00329482827911509	-0.00335392391828648
0.02	2.15162615427473	-1.16642489855823	706.227607238429	2.41609420150918	11.2041913125991	1.27874781325973	-1.25283342644986	0.00337895487221629	-0.0031202600436358
0.03	2.08577918708813	-1.27606102369872	706.663969954795	2.46603518350298	11.3868343964985	1.26272502550147	-1.23484102419308	0.00345083836621762	-0.00287330160993599
0.04	1.99161971440181	-1.36016998502739	707.137555346693	2.4998237760672	11.5863451453825	1.24539971537895	-1.21606484788795	0.00349962683972982	-0.00260339343529742
0.05	1.86098247648034	-1.4122081727337	707.63436916382	2.51265487624424	11.807224171441	1.22663110107639	-1.19649591861252	0.00351859605315785	-0.00230384580463638
0.06	1.69044584096065	-1.43139572995489	708.120865310121	2.50339428806864	12.0510257172026	1.20671788029687	-1.1764498389467	0.00350633161589842	-0.00197168948100146
0.07	1.48112472014835	-1.42243472248803	708.555169307937	2.47476936602413	12.3161105377187	1.1863208119549	-1.15649725152238	0.00346693094771922	-0.00160829043290045
0.08	1.23825682974844	-1.39395334270826	708.902923331674	2.43289426815752	12.5976575408754	1.16633483696584	-1.13736720261576	0.00340923653894332	-0.00121970710671537
0.09	0.970934631687935	-1.35607525508253	709.151823431219	2.38620045320431	12.8879954610491	1.14775879679137	-1.11986229000991	0.00334523701069378	-0.000816565059199414
0.1	0.691982777236483	-1.3177793155114	709.319439206473	2.34391161895768	13.1773093340549	1.13157946891883	-1.10478970162427	0.0032878664346746	-0.000413241512390861
0.11	0.417632937901511	-1.28479081482775	709.451317243033	2.31428552041896	13.4546964529168	1.11866269130847	-1.0928885525706	0.00324853465497366	-2.63200770268535e-05
0.12	0.166527589936306	-1.25859169144755	709.609733136755	2.30293950047015	13.7094295069823	1.10964497932126	-1.08473828424602	0.00323483297761762	0.000327478280266524
0.13	-0.0422192717757951	-1.23679264634066	709.856592193744	2.31163777767067	13.9321964720674	1.10484012150662	-1.08065999145371	0.00324892587976511	0.000633478724523628
0.14	-0.191750497079693	-1.21468359258637	710.235825234351	2.33788509086028	14.1160789420976	1.10419719415599	-1.08065099907344	0.00328708068393491	0.000880880564332776
0.15	-0.270386437698712	-1.18741384961159	710.760593610298	2.37550767957993	14.2571105377717	1.1073484341195	-1.08440004848557	0.00334055716075543	0.0010638697805645
0.16	-0.273907999911068	-1.15207602102316	711.408804912828	2.41613435371288	14.3543869229412	1.11375869941935	-1.09140581786671	0.00339771306751802	0.00118188319183749
0.17	-0.206474241280535	-1.10903710081091	712.127598304249	2.45120668714702	14.409818482109	1.12294173832356	-1.10117354330035	0.00344680038742784	0.00123913294868139
0.18	-0.079849671830926	-1.0621447252588	712.84468314835	2.47396427769916	14.4276754537018	1.13466480738581	-1.11341648563107	0.00347868703699894	0.00124365664496123
0.19	0.0888491680169512	-1.01782347283508	713.482695732407	2.48085369855652	14.4140573521375	1.14904757658198	-1.12816778336611	0.00348875353713096	0.00120618050072013
0.2	0.280230181895226	-0.983420803948989	713.972560742853	2.47200605294684	14.3763478869458	1.1664884385777	-1.14573056125984	0.00347749124093499	0.00113899024047842
0.21	0.475672683395025	-0.965349146222479	714.26303110526	2.45074144019958	14.3226421714585	1.18741634571647	-1.16645661653949	0.00344976131641661	0.0010548685857969
0.22	0.659604475761042	-0.967559513810538	714.325438964219	2.42236447566941	14.2611015200931	1.21194437040097	-1.19042225881417	0.00341309071528961	0.000966063434544362
0.23	0.820622520481938	-0.99071293344023	714.154365711705	2.39269889838747	14.1992223669787	1.23955758102057	-1.21712851670666	0.00337562773272204	0.000883248065787545
0.24	0.951518609404227	-1.03217480577076	713.765795502376	2.36681626380635	14.1430825900726	1.26897355498887	-1.2453617476597	0.00334438286970362	0.000814517978634466
0.25	1.04864041066356	-1.08672848425322	713.194185362123	2.34826473274019	14.0967060544645	1.29826013975937	-1.27329993811084	0.003324171792076	0.000764580927257896
0.26	1.11116862307293	-1.14774068541138	712.489077803346	2.33887714844926	14.0617161837201	1.32519961375494	-1.29885693069697	0.00331736441486519	0.000734361499209468
0.27	1.1407666976731	-1.20843373824562	711.710998109911	2.33902829695066	14.0374057119655	1.34778948371852	-1.32015967567421	0.00332425767902222	0.000721206020720733
0.28	1.1417163946682	-1.26293151935014	710.925998488831	2.34809217087187	14.0212423457127	1.36471022917329	-1.33599464149557	0.0033437275209246	0.000719734996724231
0.29	1.12124842395673	-1.30684151422619	710.198609322599	2.36484789320921	14.0096996013771	1.37559622513459	-1.34606514863208	0.00337381299631223	0.000723197515725804
0.3	1.08951725268496	-1.33729526431167	709.583956557721	2.38767706273147	13.9992000752873	1.38101627699839	-1.35096963940306	0.00341201380093115	0.000725011539528753
0.31	1.05871288465573	-1.3525521455935	709.120844774138	2.41453376893955	13.986923580198	1.38217579195635	-1.35191300993595	0.00345527123830291	0.000720095224711503
0.32	1.04117500654004	-1.35141764071418	708.828015893736	2.44279181464479	13.971275702784	1.38045128694016	-1.35025777911397	0.00349977183368944	0.000705641223623432
0.33	1.04692697646364	-1.33278065317439	708.705145026651	2.469136073664	13.9519152704426	1.37692283909047	-1.34707376474419	0.00354080067288354	0.000681145383537529
0.34	1.0815036577996	-1.29550917655182	708.738511263307	2.48964823201115	13.9293662060712	1.37206409553537	-1.34283841514663	0.00357285293645426	0.000647721939658452
0.35	1.14503740945603	-1.23878099233089	708.909311696656	2.50015416004721	13.9043527454282	1.36568915553567	-1.33738216267642	0.00359010264925774	0.000606950115553506
0.36	1.23317456740396	-1.16272830407413	709.201200292748	2.49678768738256	13.8770698122694	1.35716539259091	-1.33008777063692	0.00358717534057018	0.000559638817689279
0.37	1.33964465224419	-1.0691200008365	709.603621251476	2.47662980738149	13.8466198452276	1.34581220740682	-1.32026890635917	0.00356003762040902	0.000504927127304655
0.38	1.45952468598698	-0.961754234518781	710.109096347735	2.43824106467635	13.8108129214754	1.3313451084481	-1.30759617037918	0.00350675352080698	0.000440050532532932
0.39	1.5918132741592	-0.846310143696313	710.705282170662	2.38193293024162	13.7664455181337	1.31420930447006	-1.29242375480933	0.00342788769835556	0.000360919326562681
0.4	1.74009711744966	-0.729587979162726	711.365207472289	2.30970799310661	13.7100569256669	1.2956809924074	-1.27590024612108	0.00332644486660882	0.000263423114045369
0.41	1.91082887682562	-0.618290677406125	712.040410682974	2.22490344924201	13.6390300096292	1.27768825389191	-1.2598145579725	0.00320737810406668	0.000145153015974231
0.42	2.10973928131139	-0.517687101806768	712.661008704117	2.13165583840554	13.5527823286679	1.26239566224579	-1.24621372851501	0.00307681969999007	7.07929346738245e-06
0.43	2.3377393095735	-0.430574768680403	713.14422181116	2.03433754085805	13.4537197436013	1.25167854674927	-1.23690723371796	0.00294124406714358	-0.000145317944882151
0.44	2.5879582974129	-0.356889536334576	713.409584464033	1.93709239039661	13.3476322791695	1.24665597217451	-1.23301596214865	0.00280675190058965	-0.000301871488243066
0.45	2.84517863531117	-0.294106922969567	713.396385755639	1.84353900600333	13.243320634554	1.24743809715173	-1.23471534045923	0.00267859102965051	-0.000448687404022541
0.46	3.08803152244832	-0.238313508992045	713.077917012654	1.75664767999217	13.1514399647027	1.25317478179563	-1.24126058905924	0.00256094273884078	-0.000570123670097844
0.47	3.29328932627807	-0.185596236096183	712.468188379978	1.67875397180709	13.082785653522	1.26238988182223	-1.25128657267033	0.00245693588956242	-0.000651361461688482
0.48	3.44084641137128	-0.133292268633568	711.619364959292	1.61165460459718	13.0464452187822	1.27348546928439	-1.2632783098252	0.00236881478716111	-0.000680930504210031
0.49	3.51779871544462	-0.0807054396953768	710.611159264018	1.55672884065983	13.0483213047602	1.2852393107236	-1.27604653113503	0.00229817104134566	-0.000652513166579549
0.5	3.52044166758636	-0.0291028699716932	709.535665178969	1.51503066712235	13.0904471053508	1.29712105342376	-1.28903992621711	0.00224614437240622	-0.000565526138342765
0.51	3.45379509089001	0.0189266925012583	708.481938666696	1.48730410147187	13.1712819006216	1.3093180154045	-1.30238430249553	0.00221350536683629	-0.000424325812066972
0.52	3.32909229641151	0.0604510011477347	707.523982407677	1.47389490858683	13.2868666377908	1.32246607394478	-1.31663744556757	0.00220056740319552	-0.000236297023915422
0.53	3.16022703945243	0.0931189751700959	706.714177612792	1.47457255992933	13.4324476733066	1.33718575472808	-1.33235016254801	0.00220694083813655	-9.42398429060187e-06
0.54	2.96028202973264	0.115710303491309	706.082358717748	1.48832744272585	13.6040401109575	1.35359038012577	-1.34959175611034	0.00223122418317656	0.000249912919352946
0.55	2.73901070144631	0.128171032834215	705.639275599258	1.51324777623152	13.7994476547143	1.37094081834317	-1.36760991252778	0.00227078992993723	0.00053827045155741
0.56	2.50169702162773	0.131208784776504	705.382456189804	1.54658456600155	14.018460110969	1.38757221185538	-1.38475090547622	0.00232183153573207	0.000855265977433906
0.57	2.24939102286403	0.125677071290181	705.302461889928	1.58506970798218	14.2622314350895	1.40113326456814	-1.39868518212477	0.00237977633398045	0.00120254640068623
0.58	1.9802451210635	0.112023878495397	705.387994596872	1.62546986799846	14.5320977405853	1.40908681540937	-1.40689304773257	0.00244004871045522	0.00158200640929473
0.59	1.69156744454305	0.0900131061123846	705.628985728972	1.66526198105568	14.8282432975091	1.40934621163731	-1.40728992395117	0.00249902556279791	0.00199385194842805
0.6	1.38218117569939	0.0587926590514945	706.017452322396	1.70323924174641	15.1486290784875	1.40088077212443	-1.39882693718269	0.00255491164409971	0.00243509741461989
0.61	1.05464391186006	0.0172462054092441	706.546420449697	1.73983263097314	15.4884819642528	1.38412210077569	-1.38189860351742	0.00260822435988162	0.00289890743114818
0.62	0.716819477101499	-0.0355169736906637	707.207551094791	1.77698415190265	15.8404590667223	1.361041964223	-1.35842701298785	0.00266164762991938	0.0033749255942162
0.63	0.38227794486068	-0.0996869752855009	707.988265310248	1.81753303303715	16.1954163972748	1.33484728710698	-1.33156672716015	0.00271919139267152	0.00385046590452398
0.64	0.0691376905204099	-0.174397628857047	708.869180771748	1.86424360901795	16.543575544572	1.30933610025258	-1.30507338358299	0.00278483223772263	0.00431224996608287
0.65	-0.202686502948656	-0.257533736035212	709.822566212366	1.91875443672834	16.8758198675173	1.28805754491673	-1.28247823321591	0.00286102738032046	0.00474828803810801
0.66	-0.415366413740126	-0.34570997212396	710.812304274374	1.98079548645158	17.1848593589646	1.27348949439195	-1.26628016859665	0.00294759316934634	0.005149519885774
0.67	-0.557244379226363	-0.434433607624871	711.79552791014	2.04796032047543	17.4660601354937	1.26646119679264	-1.25737883274836	0.00304135801400263	0.00551092298617928
0.68	-0.625968480994024	-0.518484313834653	712.725685345004	2.1161403918865	17.7178163759434	1.26599237689793	-1.25491517158022	0.00313674777187889	0.00583192569070118
0.69	-0.629693367055834	-0.592544309187109	713.55638602582	2.18049311569063	17.9414316453069	1.26960507377187	-1.25657130412631	0.00322712943019954	0.00611610239434196
0.7	-0.58588727067685	-0.652059427941378	714.245147142598	2.23662090063181	18.1405628523584	1.27402443267163	-1.25924481036519	0.00330646268261992	0.00637025641068789
0.71	-0.517993733455393	-0.694206874082159	714.75625304981	2.28156917628413	18.3203562039787	1.27606668048895	-1.25989979964262	0.00337070792335481	0.00660309850620155
0.72	-0.450828203410337	-0.718730265502648	715.062383354557	2.31433720854127	18.4864601441071	1.27345829793214	-1.25634817344736	0.00341855584057804	0.00682379043522169
0.73	-0.405922351357299	-0.728344082784109	715.145276587044	2.33579519648108	18.6441220394967	1.26535921773189	-1.24774608384177	0.00345132184714037	0.00704063205766242
0.74	-0.397966625915438	-0.728463167382196	714.996140648343	2.34812298397609	18.7975528675411	1.25246304570703	-1.23468921209064	0.00347216017475516	0.00726012550447908
0.75	-0.433104448025379	-0.726185043371254	714.616499493558	2.35403245588145	18.9496776390776	1.23668086933249	-1.21891815413184	0.00348496138520915	0.00748656106872664
0.76	-0.509275811572922	-0.728689208001485	714.019618644008	2.35605166971049	19.1022932481585	1.220534050498	-1.20275573045536	0.0034933244245785	0.00772215818609828
0.77	-0.618298885659346	-0.741426296058707	713.231841319975	2.35604442335359	19.2565548512162	1.20644730387851	-1.18845637563425	0.00349985304534994	0.007967684795326
0.78	-0.749058231223649	-0.766566723596535	712.292563654743	2.35498147459515	19.4136332081287	1.1961325949026	-1.17764299543704	0.00350580873562611	0.00822338797276778
0.79	-0.891068364723469	-0.802125268063232	711.251616104758	2.35285612454796	19.5753475135021	1.19019983660488	-1.17095299015749	0.00351097911032017	0.00849000806390188
0.8	-1.03773466557961	-0.841997509541751	710.163650279386	2.34860971813797	19.7445874122512	1.18805163217117	-1.16794149572061	0.00351357944117769	0.00876962188107427
0.81	-1.18873918775958	-0.876904345200406	709.080511066154	2.34000912646387	19.9253883895426	1.18804708814754	-1.16722487838366	0.00351010704248744	0.0090660713989254
0.82	-1.35107456000008	-0.896024890507282	708.043933484359	2.32354865139772	20.1226027530466	1.18787277970334	-1.16680735358209	0.00349524552309632	0.00938478795644931
0.83	-1.53834918613099	-0.88897089229154	707.081570638094	2.29455238679114	20.3411967766888	1.1850394403352	-1.16451848110596	0.00346205709192426	0.00973192247412591
0.84	-1.76816585674091	-0.84774021246182	706.208844994957	2.24766010174241	20.5852862569305	1.17742062791696	-1.15848830551409	0.00340270942172094	0.0101128360100637
0.85	-2.05770813304521	-0.768357210977605	705.437354814757	2.17776830171104	20.85708336745	1.16375138128129	-1.14758771462986	0.00330982861206319	0.0105301737859274
0.86	-2.41815895793098	-0.652005038408666	704.788019447146	2.08130806608115	21.1559569898214	1.14400411692351	-1.13175919627239	0.00317830676621411	0.0109819040882994
0.87	-2.84911739967049	-0.505521332357682	704.30469665106	1.95755656156186	21.477801042653	1.11955986639115	-1.11216314209914	0.00300713819364495	0.0114598032798188
0.88	-3.33456850753945	-0.34114534234976	704.062676914965	1.8095879751756	21.8148597446577	1.09310737909716	-1.09107927494357	0.00280073445495455	0.0119488616133457
0.89	-3.84196778365051	-0.175406769212253	704.167022512385	1.64452249538218	22.1560788236698	1.06824195562774	-1.07154151526527	0.00256924494742605	0.0124279413858878
0.9	-4.32547348524542	-0.0271056871958921	704.738321454699	1.47291868817999	22.4879465459999	1.04880163310323	-1.05674682219655	0.00232767169009473	0.0128717447351211
0.91	-4.73331834154713	0.0854952609296253	705.887424882802	1.30740933537539	22.7956747404014	1.0380572583381	-1.04934951321187	0.00209392268091235	0.0132537957056162
0.92	-5.01799450688026	0.147872859952787	707.684824032897	1.16090992979697	23.0644734771846	1.03793929845577	-1.05080756490281	0.0018862679116336	0.0135498068514773
0.93	-5.14674315821436	0.152171936014136	710.132964627756	1.04484853856725	23.2806266651367	1.04850871613425	-1.06096118127971	0.00172082966751397	0.0137406033905226
0.94	-5.10925626887491	0.0990659391093278	713.149829224913	0.96783376535776	23.4321108815059	1.06784165747068	-1.07798181146994	0.00160969611082062	0.0138138187442311
0.95	-4.91985835121988	-0.0021062713395876	716.569277490459	0.935010506804295	23.5086301014437	1.09239795180589	-1.09873601045304	0.00156001642267045	0.0137638900816286
0.96	-4.61280786612542	-0.135166780525975	720.158767451172	0.948119227755156	23.5011443281853	1.11780616340279	-1.11948810249532	0.00157410981611872	0.0135904074821893
0.97	-4.2314417543063	-0.280555969682942	723.64990387253	1.00606522574481	23.4011900452012	1.13986727496884	-1.13675807303702	0.00165032484048488	0.0132954431219558
0.98	-3.81405041325941	-0.419573369243791	726.773709193133	1.10569629751007	23.2004387037815	1.15550338614208	-1.14809678543705	0.0017842249463792	0.0128808946153218
0.99	-3.38083209187384	-0.538299303132982	729.291925071191	1.24250936779706	22.890937542884	1.16338963332014	-1.15256381074578	0.00196969315661455	0.012346939856125
1	-2.92638985081606	-0.630201322803994	731.018146927731	1.41113001411742	22.4662926133162	1.16410760093133	-1.15078972795352	0.00219970701252103	0.0116923569608308
1.01	-2.42078157241728	-0.696852435728156	731.826979272613	1.60556346285874	21.9237251599792	1.15981222447122	-1.14464075948004	0.00246674349502529	0.0109168079107262
1.02	-1.81947540405287	-0.746758439944346	731.653709703368	1.81932680992938	21.2665637741432	1.15355412099231	-1.13662752642023	0.00276293348337453	0.0100244458783696
1.03	-1.0795663759319	-0.792795458250885	730.489420631467	2.04559709906282	20.5064616173739	1.14848916555086	-1.12926416286661	0.00308013818905595	0.00902765711883069
1.04	-0.177346280531321	-0.84903114301517	728.376182768498	2.27745498671716	19.6645656796953	1.14720686236663	-1.12456728043571	0.00341007088035505	0.00794959792938693
1.05	0.878351326844463	-0.927692791035909	725.40453198807	2.50821438766158	18.7710602759952	1.15132796636605	-1.12380038755763	0.00374449066958438	0.00682449719623729
1.06	2.04139226307673	-1.03682238654676	721.712331245754	2.731759143249	17.8629146282618	1.16140278222631	-1.12746084863671	0.00407541703801806	0.00569535670206778
1.07	3.23383517910342	-1.17886311442736	717.482023751094	2.94279202781363	16.9801585523655	1.17703862286263	-1.1354224737858	0.00439529383579962	0.00460946073846397
1.08	4.36013160916133	-1.35018917311972	712.933168321232	3.13693867953861	16.1614277380465	1.19713672279059	-1.14711899556938	0.00469706756846067	0.00361273608263468
1.09	5.32589278309965	-1.5414864846482	708.30889412759	3.31071154934869	15.439720458099	1.22013289172745	-1.16168306365847	0.00497420340953003	0.00274428177512315
1.1	6.05597048132629	-1.73889193941283	703.857492354617	3.46139152133772	14.8392267285325	1.24419037401396	-1.17801648429798	0.00522070408232644	0.00203225005887342
1.11	6.50724008856271	-1.92581793033028	699.812455166773	3.58690409506637	14.3737655300393	1.26735222777404	-1.19482483644256	0.00543119890709187	0.00149178988960308
1.12	6.67348559293218	-2.08534126983835	696.374936055128	3.68575013549945	14.0469166503457	1.28769398119389	-1.21067613646193	0.00560113552338926	0.00112515314512934
1.13	6.58233228212404	-2.20289305752494	693.701666159104	3.75701210881431	13.8535165134304	1.30351300637147	-1.22413040661798	0.00572705550465868	0.000923526967513744
1.14	6.28632705962912	-2.26880188051082	691.899378731744	3.80041521873988	13.7819312776788	1.31355638398771	-1.23394521046553	0.00580689088119135	0.00086985315882282
1.15	5.85137269196198	-2.28012483640628	691.02470027329	3.81639473018368	13.8164831784201	1.31724495021183	-1.23931346194037	0.00584019692666937	0.000941880250465932
1.16	5.34560684660894	-2.24124959234114	691.087105495148	3.80611335987803	13.9395606199105	1.3148217843811	-1.24005752251903	0.00582824152835115	0.00111490864295083
1.17	4.83078122305534	-2.16299714227989	692.052329435379	3.77138538745479	14.133198042044	1.30735533839042	-1.23670318436298	0.00577389870887113	0.00136400432181455
1.18	4.3568250015789	-2.06033696845972	693.844503127646	3.71449138222313	14.3801553575832	1.29656305781785	-1.23039006027822	0.00568133499669465	0.00166572822270455
1.19	3.95916098089301	-1.94921515098847	696.346772906302	3.63790066692885	14.66466929867	1.28447761142033	-1.22262823560952	0.00555552243753654	0.00199955429724924
