Time [s]	GRFml [N]	GRFap [N]	GRFv [N]	Mml [N.m]	Map [N.m]	Mv [N.m]	Mfree [N.m]	COPml [m]	COPap [m]
0.01	1.27690146257756	1.88506493358269	787.472655635989	17.4599049409557	4.6486716195936	1.18329359605984	-1.16611232901135	-0.00241047283016527	-0.00353494822981887
0.02	1.35417020112226	2.02078910366106	786.103481541635	17.36403407814	4.58726278018769	1.20512096157031	-1.18701998234755	-0.00249760172603608	-0.00360246877169579
0.03	1.41700353854886	2.13263061788997	784.747670702887	17.2726680654094	4.54093298647467	1.22405442897881	-1.20524173184244	-0.00257934775031743	-0.00365081075829321
0.04	1.45329850168386	2.20222468744269	783.416348127665	17.1888482883681	4.52157313805027	1.23734950379432	-1.21821117766699	-0.00265214980850881	-0.00366479964387906
0.05	1.45375344141973	2.22462493936622	782.152986304223	17.1135006086623	4.53865816349416	1.24283737009726	-1.22395490766121	-0.00271604533086478	-0.00363261639747209
0.06	1.41275775322086	2.20985911741502	781.03673632827	17.0452888759752	4.59832340055785	1.2392354781076	-1.22139242971931	-0.00277494302109538	-0.00354702284374864
0.07	1.32901086330081	2.17987216270833	780.171962642221	16.9813186257524	4.70256846734137	1.22642335243996	-1.21057846148176	-0.00283542608995535	-0.00340631632724847
0.08	1.20577833510244	2.16210895100289	779.66773107275	16.9184983107553	4.84888548977288	1.2056043185182	-1.19281847780283	-0.00290443930633166	-0.00321465864844933
0.09	1.05067809325017	2.18192409443221	779.613505800585	16.8550876509401	5.0305776081848	1.17926874229686	-1.17058952621233	-0.00298663786689268	-0.00298148228019685
0.1	0.87490396261684	2.25611790493698	780.057644948493	16.7918542564288	5.23785971378079	1.15090808451254	-1.14723219623822	-0.00308232243401529	-0.00271990307927633
0.11	0.691851314402066	2.38926554011598	780.993857181285	16.732382756119	5.4595839505936	1.12449558658698	-1.12644051333054	-0.00318668498607022	-0.00244437955141225
0.12	0.515216831948509	2.57345114963242	782.358312653775	16.6823883543054	5.68520657767637	1.10382709911305	-1.11164485308624	-0.00329062533680269	-0.00216813237507096
0.13	0.356792030668535	2.79095156333207	784.037363781132	16.6482489901439	5.90650132230716	1.09187381493024	-1.10543113623473	-0.00338285731102383	-0.0019009629046855
0.14	0.224327289476702	3.01868032998566	785.88348875356	16.6352400539099	6.11857562989387	1.09031037738535	-1.10914346961851	-0.00345261393766561	-0.00164802834730393
0.15	0.119955195987235	3.2329727537784	787.735586196492	16.646036842628	6.31994821279642	1.09933658833947	-1.12276885473653	-0.00349211839956398	-0.0014098626620313
0.16	0.0396614339467658	3.4135307934325	789.439340808054	16.6799331660629	6.51173179500446	1.11782201061781	-1.14511587931854	-0.0034981291795968	-0.00118356334367714
0.17	-0.0258734126062679	3.54586571529696	790.864013131785	16.7329771848051	6.69623622045163	1.14370324449538	-1.17420714812314	-0.00347220534084169	-0.00096471972238199
0.18	-0.0890648524974339	3.62213807739546	791.913415922098	16.7989495152231	6.87547112515773	1.17449253000006	-1.20774475987538	-0.0034197322899312	-0.000749455218680251
0.19	-0.162262784161087	3.64071126315904	792.530577846403	16.8708921035386	7.0500296139615	1.2077406430418	-1.2435035153411	-0.00334807376559376	-0.000535960849341766
0.2	-0.254406610725286	3.60492703298015	792.697133715435	16.942785131103	7.21867896287041	1.24133934085562	-1.27955695124999	-0.00326439904038633	-0.000325101685038354
0.21	-0.368420544307266	3.52160573717045	792.429362985465	17.0109657701141	7.37873204755129	1.2736262872986	-1.31432152424726	-0.00317376029058258	-0.000120002059214419
0.22	-0.5001408829644	3.3996525122473	791.772811578499	17.0749641442159	7.52701652067801	1.30333258930415	-1.34647746469113	-0.00307788803641307	7.51592540754187e-05
0.23	-0.639168508068493	3.2489926067342	790.796708244302	17.1375698554357	7.6610846028901	1.32945849522643	-1.37486066510336	-0.00297497348460407	0.000256694644483357
0.24	-0.771491897943101	3.07990503043245	789.588363583566	17.2041118783073	7.78026350318655	1.3511638152644	-1.39840847736827	-0.00286046019869457	0.000422792635062452
0.25	-0.883201708189606	2.90268487330415	788.246969286406	17.2811114175967	7.88623287421462	1.36772555497976	-1.41619634065338	-0.00272861996101703	0.000574348289773818
0.26	-0.964285663202287	2.72745150882865	786.876100742807	17.3746216980152	7.98298775930644	1.37856937834058	-1.42754855562576	-0.00257448800416726	0.000715055388213204
0.27	-1.01146063154859	2.56386193997179	785.574823054711	17.4886634356149	8.07624070536623	1.38334723479369	-1.43217123955556	-0.00239562962036211	0.000850812160586079
0.28	-1.02928110972934	2.42052316769075	784.428286012663	17.6241636713486	8.17247661741209	1.38202257284127	-1.43025106757401	-0.00219324048615344	0.000988683625930631
0.29	-1.02927219081517	2.30403805326353	783.499530393112	17.7786901076557	8.27795855965465	1.37493343102827	-1.42248461774921	-0.00197225540522339	0.00113576576415469
0.3	-1.02740682854514	2.21782970794854	782.824433528122	17.9470591041363	8.39797543900026	1.36281875205041	-1.41003262169406	-0.00174042045434364	0.00129829288469219
0.31	-1.04069678647711	2.1610883455861	782.411108151837	18.1226394492289	8.53652899820305	1.34680149385841	-1.39441339068206	-0.00150659429088129	0.0014812268376298
0.32	-1.08385400366516	2.12827826956924	782.243835766744	18.2989589547482	8.69650320734418	1.32832004792	-1.37735266882225	-0.00127878512327462	0.00168839265755155
0.33	-1.16686091743438	2.10957120168251	782.290264119499	18.471125430996	8.88018617454447	1.30899476868629	-1.36059918857216	-0.00106251413782965	0.00192302537512412
0.34	-1.29393163140235	2.0923406993857	782.50969763662	18.6366378739637	9.0898760533415	1.29042112558247	-1.34570975923527	-0.000859988773952436	0.00218842621465071
0.35	-1.46389572729552	2.06353234289126	782.860236508258	18.7953705298453	9.32824958627331	1.27390139161766	-1.33381492221317	-0.000670302893051922	0.0024883541443656
0.36	-1.6716524457932	2.01242417732825	783.303283684275	18.9487927772299	9.59823689322186	1.2601572873179	-1.3253950309305	-0.000490544325906339	0.00282684304223529
0.37	-1.91013455169701	1.93311430200066	783.805180027571	19.0987462226914	9.90232321488271	1.2490917905804	-1.32011569408332	-0.000317395109314056	0.00320733585465066
0.38	-2.17221393785063	1.82607870134968	784.336891820408	19.246248924381	10.2414355649145	1.23967465365999	-1.31677731381667	-0.000148652657103399	0.00363130922040228
0.39	-2.45212498018301	1.69833581507164	784.873273561413	19.3907830515925	10.6137816688125	1.23000731000313	-1.31341921973829	1.58663617824129e-05	0.00409682167067388
0.4	-2.74619094195105	1.56208401558874	785.393256439792	19.5303476012919	11.0140975993719	1.2175845716388	-1.30758811828898	0.000174361103831955	0.00459754068043799
0.41	-3.05283496652883	1.43205631676176	785.881512282078	19.6622781214068	11.4336740127588	1.19972525742932	-1.2967432632359	0.000324010376175021	0.00512271431218708
0.42	-3.37199529229979	1.3221644842314	786.331112346554	19.7845460430059	11.8612832730957	1.17410337551411	-1.27873686669389	0.000462517831722242	0.00565826144873594
0.43	-3.70413523261103	1.24220022661399	786.74590361412	19.8970544654116	12.2848078468784	1.13928249726011	-1.25228375028161	0.000589666465321548	0.00618876142120928
0.44	-4.04905795557876	1.19537955918347	787.141099669998	20.0024191733266	12.6931014321887	1.095141605867	-1.21732207356203	0.000708281865305582	0.00669978458273812
0.45	-4.40473055177454	1.1773559603655	787.541019575228	20.1058794795848	13.077511905864	1.04308451602468	-1.17517096612489	0.000824188452778873	0.00717986343866112
0.46	-4.76631561530121	1.17702168928598	787.973833021324	20.2142732645864	13.4326077427578	0.985952646134085	-1.12841698574612	0.000945081953746429	0.00762152530992077
0.47	-5.12561207616864	1.17901972525144	788.464229415692	20.3343347790609	13.7559365364148	0.92761649882488	-1.08051353764945	0.00107861850870516	0.00802114836073253
0.48	-5.47110775987843	1.16747055327917	789.025733528612	20.4708182567372	14.0469915890447	0.872299760759686	-1.0351505604291	0.0012303033459059	0.00837782612269289
0.49	-5.7888091107996	1.13006145649929	789.654665577014	20.6250274218484	14.3058313480147	0.823773051175178	-0.995527391563102	0.00140184780611352	0.00869176022741791
0.5	-6.06389869264718	1.06144640267467	790.327415420172	20.7942117446201	14.5318831315196	0.784613251883293	-0.963711713013895	0.00159051963077594	0.00896281670013693
0.51	-6.28306434291124	0.964954270967183	791.001894203876	20.9720166382439	14.723343144181	0.755731028579436	-0.940265922277874	0.00178968825265724	0.00918974527748029
0.52	-6.43708407856943	0.851954576048745	791.622992253561	21.1498445135917	14.8773227718755	0.736310321385198	-0.924259142055013	0.00199038153871034	0.00937025014091297
0.53	-6.52303233054359	0.738848276643207	792.130889322516	21.3187132973149	14.9906047109932	0.724190054552193	-0.913672344412499	0.00218336233529171	0.00950175912405044
0.54	-6.5454132338977	0.642386407907909	792.470374648555	21.4710789470353	15.0606774700657	0.7165842515068	-0.906081101408277	0.00236110836007808	0.00958250893633983
0.55	-6.51570829500709	0.574629290584823	792.599113433967	21.6021489485122	15.0866749576888	0.710928036295269	-0.899409050682293	0.00251916863865476	0.00961252020103676
0.56	-6.45024135701218	0.539095420953245	792.49312958903	21.7104172738444	15.0699459742277	0.705593560484216	-0.89251978244948	0.00265662123470334	0.00959415800188618
0.57	-6.3667949873907	0.529371086770971	792.148625549792	21.7974128429657	15.0141457962315	0.700259534686303	-0.88546649515443	0.00277566191364009	0.00953217070611201
0.58	-6.28086301515835	0.530709906843761	791.580426612432	21.8668775635541	14.9248932973388	0.695828969719959	-0.879330239474349	0.00288059620200853	0.00943326696734637
0.59	-6.20259962778598	0.524189068132916	790.818447419084	21.9237065257797	14.8091152742549	0.693934710554421	-0.875710255197379	0.0029766124621774	0.00930536349165612
0.6	-6.1353253942109	0.492153130413823	789.904176628513	21.9729694559649	14.6741990589826	0.696202621635497	-0.876038707528733	0.00306867012832335	0.00915661734720985
0.61	-6.0759259705927	0.423277292602625	788.888907454167	22.0192164804625	14.5270344088065	0.703515436820483	-0.880942272717662	0.00316069465833846	0.00899430496345516
0.62	-6.01682577675707	0.315763639140024	787.834263392808	22.0661144093259	14.3730021900612	0.715514894696679	-0.889851850356322	0.00325511105795973	0.00882359911144731
0.63	-5.94870004910287	0.177861019182674	786.813869476387	22.1163314062526	14.2149982828712	0.730501381606684	-0.900981040910423	0.00335264619656506	0.00864636617249914
0.64	-5.8629199731069	0.0257933341991021	785.913549202758	22.1715358865588	14.0526609472455	0.745767195007133	-0.911683244954813	0.00345232018225872	0.00846023711472355
0.65	-5.75297252217623	-0.120057913503915	785.227007892448	22.232406694667	13.882047866538	0.758271055344413	-0.919090701362311	0.00355160656080333	0.00825831552290235
0.66	-5.61463714686154	-0.239509022150556	784.845085221531	22.2986320251692	13.6960133582122	0.765464414646961	-0.92086428719247	0.00364680702993381	0.00802987301279601
0.67	-5.44527926426747	-0.316364849270212	784.839152982361	22.3689498074257	13.4854149953075	0.766038665273835	-0.91585559184058	0.00373369390551626	0.0077621833644958
0.68	-5.24296817194208	-0.340971655740969	785.242211115169	22.4413079178712	13.2410384445832	0.760384302739405	-0.904505264254869	0.00380839743356154	0.00744328703132308
0.69	-5.00609788010487	-0.311354759492944	786.033398360986	22.5131866620575	12.9558466939125	0.750630692395794	-0.888867102770875	0.00386838739820528	0.00706508054963073
0.7	-4.73382675276933	-0.233103418061813	787.13184776557	22.5820517327433	12.6269572686309	0.740248029293572	-0.87224167434186	0.00391329156088316	0.00662586799803622
0.71	-4.4271578474872	-0.118272715477513	788.403678337275	22.6458349442734	12.2567397982226	0.733312057722064	-0.858505199560156	0.00394527680713719	0.0061315423135701
0.72	-4.09010667192028	0.0164701608761238	789.682022538798	22.7033083218393	11.852646401157	0.733624129738779	-0.85130223245846	0.00396881788956316	0.00559492069549294
0.73	-3.73031848156823	0.152266955439056	790.795754613428	22.7542377501257	11.425776520403	0.743916079447557	-0.853308156056658	0.00398985957145837	0.00503333282273771
0.74	-3.35872022136573	0.270802697648704	791.599642316496	22.7992638411769	10.9885904031844	0.765338210725593	-0.865744559942429	0.00401456632758612	0.00446513631251239
0.75	-2.98819306109513	0.356951546323066	791.998150840544	22.8395344853203	10.552456157936	0.797338933089435	-0.88825213891781	0.00404797383705668	0.00390617979623026
0.76	-2.6316328409865	0.400827232858536	791.957261482948	22.8761808442095	10.1257366514437	0.837926986302532	-0.919118157011445	0.00409286855507307	0.00336721233999993
0.77	-2.29996528572584	0.398798608510577	791.502564648757	22.9097715753727	9.71289440100128	0.88420256770218	-0.955756883613372	0.00414913695639896	0.00285286756286041
0.78	-2.00064461450114	0.353301734154727	790.706028211408	22.9398945332253	9.31471926451284	0.932986248199079	-0.995285471372248	0.00421369375570457	0.00236229455944731
0.79	-1.73694583632847	0.271650174394368	789.666716121676	22.965000878806	8.92942011673616	0.981378215313558	-1.03503939966913	0.00428097361628144	0.00189099151468997
0.8	-1.50808360457112	0.16433159148243	788.491460832717	22.9826015961603	8.55410073857904	1.02713454711881	-1.07292173334319	0.00434388414586373	0.00143310648430395
0.81	-1.30996805498681	0.043333302791258	787.28013820254	22.9898286733121	8.18611846560992	1.06882404979293	-1.10755239456689	0.00439506546396717	0.000983472839339972
0.82	-1.13629920327354	-0.0791555689732651	786.117615974757	22.9842687302754	7.8239699734972	1.10579753583348	-1.13824717041494	0.00442826045627931	0.000538886549266759
0.83	-0.979703322075665	-0.191636513626863	785.071824873128	22.9648687233731	7.46757139527726	1.13804022195988	-1.16489111257762	0.00443955667302498	9.8470426156072e-05
0.84	-0.83268849263519	-0.284009085043429	784.195679780285	22.9326410199498	7.11800128514502	1.16598271488631	-1.18777383845697	0.00442823138452475	-0.000336737448633551
0.85	-0.688299029490964	-0.34834957762007	783.530126692447	22.8909004305064	6.77689304774904	1.19032653008538	-1.2074354277431	0.00439695513271487	-0.000764674072379123
0.86	-0.540449494518005	-0.379829234634693	783.106189782845	22.8448702834815	6.44569160978113	1.21191186802872	-1.22454661575673	0.00435122155491163	-0.00118330090838792
0.87	-0.384002308235371	-0.37755660449831	782.944985375019	22.8006809198199	6.1249622324582	1.23163144387696	-1.23982759482922	0.0042980703301837	-0.0015915514479255
0.88	-0.214710236495292	-0.344938518972241	783.055697686508	22.7639934697389	5.81390115522817	1.25038038717367	-1.25399992011227	0.00424440130212222	-0.00198998844952408
0.89	-0.0291711068035548	-0.289197587149275	783.432159382201	22.7386345116815	5.51016988338474	1.26902778946819	-1.26776329399008	0.00419535038873575	-0.00238103200379208
0.9	0.175067399135468	-0.219969207132349	784.048940066864	22.725656503975	5.21014664538442	1.28839632815442	-1.28178864433046	0.00415322653586192	-0.00276865764183193
0.91	0.39916402679769	-0.147295881622483	784.857911551705	22.7231232958066	4.90963155360085	1.30923879077897	-1.29671770875382	0.00411735884900399	-0.00315752919631918
0.92	0.642400593448174	-0.0796384686596128	785.786333058034	22.726695519969	4.6049387888819	1.33220271120078	-1.31315712965784	0.00408491246032849	-0.00355165216406883
0.93	0.901472734267283	-0.0225681939749569	786.737627428259	22.73083620233	4.2941752368806	1.35777721486277	-1.33165401427074	0.00405240010790575	-0.00395279563286005
0.94	1.16987739279048	0.0214494865349615	787.59604175835	22.7302619617041	3.9783902902785	1.38622072018142	-1.35264257453594	0.00401736465500369	-0.00435907390389045
0.95	1.43767675867836	0.0522118288936507	788.236045452107	22.7211953656659	3.66224804639874	1.4174746843322	-1.37635894342072	0.00397963011943436	-0.00476412366370715
0.96	1.69188191623536	0.070347302558859	788.536455939651	22.7020491891392	3.35396082096105	1.45107606983639	-1.40273249891447	0.00394164724169876	-0.00515720595059843
0.97	1.91755802464408	0.076007056396292	788.397997008252	22.6733641832457	3.06442154563673	1.48608789920623	-1.43127436568606	0.00390775333242122	-0.00552431467001607
0.98	2.09954109211725	0.0683324983572864	787.761664580212	22.6370632352014	2.80571656080866	1.52107170575577	-1.46099409817925	0.00388252720989635	-0.00585006675527222
0.99	2.22444892059427	0.0460206603346072	786.624404327449	22.5952982159798	2.58939247223064	1.55412684082869	-1.49038085421247	0.00386872843072483	-0.00611990586417072
1	2.28255094281565	0.00883734403881316	785.048584441444	22.5492850934415	2.42490720083562	1.58301797825289	-1.5174825290022	0.00386546479303562	-0.00632207816331198
1.01	2.26909012145745	-0.0405019296586995	783.162655106918	22.498514013558	2.31858913659492	1.60540127022978	-1.54010228037747	0.0038671852510207	-0.00644896956397933
1.02	2.18482244470479	-0.0948892071714967	781.151957729485	22.4405922031746	2.27320762427686	1.61913917846777	-1.55610529918384	0.00386386675134864	-0.00649766790999978
1.03	2.03578937770572	-0.142559448713587	779.240410622645	22.3717749996016	2.28802571768876	1.62266504899222	-1.56379286754024	0.00384243085955627	-0.0064699018471307
1.04	1.83256078250074	-0.168397203645422	777.66530346695	22.2880308740081	2.35906931387421	1.61532818308969	-1.56226569386414	0.00378909423440144	-0.00637167711792391
1.05	1.58928352956421	-0.156688719556368	776.648427009424	22.1863329580039	2.47936329707379	1.59763151067119	-1.55167939634899	0.0036921194451609	-0.0062129106334004
1.06	1.32280332892775	-0.0946730980665718	776.36722613415	22.0658110575748	2.63903631802533	1.57128091875192	-1.53330609849126	0.00354434253651337	-0.00600717920441024
1.07	1.05193205218038	0.0240937031482825	776.929703249604	21.9284409440921	2.82539763249002	1.53900437725924	-1.50936211070814	0.00334491627997369	-0.00577145918196098
1.08	0.796710816048685	0.197575793073292	778.356504054355	21.7790709373417	3.02323625051975	1.50416239304595	-1.48263140809526	0.00309989133627309	-0.00552556577694457
1.09	0.577385698134018	0.414994477936638	780.572968448323	21.6247529211908	3.21560716213566	1.47023643883109	-1.45598218245356	0.00282151138962738	-0.00529099782062686
1.1	0.412842559125063	0.658600859067776	783.412832749069	21.4735154281542	3.38523693111909	1.4403204570905	-1.43190907877956	0.00252636893591762	-0.0050890665062765
1.11	0.318440424547344	0.906996004201253	786.633701504635	21.3328534246602	3.51645317657301	1.41673298201094	-1.4122182656621	0.00223280498051603	-0.00493846518256119
1.12	0.303469898223521	1.13905026751421	789.942553045048	21.2082840547126	3.59731185470637	1.40081571292242	-1.39791096798486	0.00195809269234959	-0.00485270528806142
1.13	0.368739432375355	1.33734273630379	793.027818029707	21.1023123231926	3.62145523739491	1.39291257000728	-1.3892412113377	0.00171598582847821	-0.00483799079067332
1.14	0.504958467844145	1.49028471340046	795.59347950576	21.0140628339616	3.58923763288407	1.39246563025002	-1.38586251615371	0.00151512008521526	-0.00489207025273902
1.15	0.692574530327618	1.59260668805435	797.390540783795	20.9396782722602	3.50780583245358	1.39814687578983	-1.3869635586145	0.00135854181081396	-0.00500440126204604
1.16	0.903505057045838	1.64447010244266	798.242100236961	20.8733954498141	3.39006741928182	1.40797126444363	-1.39132801620787	0.00124435138075063	-0.00515765462734979
1.17	1.10480458795984	1.64988617701119	798.059790366924	20.8090323660462	3.25274476170162	1.41938797384204	-1.39731798897939	0.001167164568732	-0.0053302720615867
1.18	1.26379861923701	1.61523006270827	796.850905585396	20.7415052657319	3.11391854159505	1.42939207882271	-1.40284001221115	0.00111989954745606	-0.00549956069126595
1.19	1.35372687321615	1.54841126234356	794.716655898984	20.6679811040558	2.99055946212596	1.43471341016263	-1.40537910160292	0.00109535337035482	-0.0056447162305982
