Time [s]	GRFml [N]	GRFap [N]	GRFv [N]	Mml [N.m]	Map [N.m]	Mv [N.m]	Mfree [N.m]	COPml [m]	COPap [m]
0.01	-5.21550999782055	1.18738689206784	765.988007927396	7.19723341853235	-26.5342363201249	1.03819325677226	-1.04610588790157	0.0051396070982882	-0.0042326702348699
0.02	-5.43249536733878	1.02502546791389	766.531146887578	7.19013037112446	-26.3508678817909	1.07184880861166	-1.0874926601418	0.00512348856960776	-0.00396678434743253
0.03	-5.63604937309621	0.870297061527701	767.025460367464	7.18225646378468	-26.181625502704	1.10194225534992	-1.12490054442185	0.00510694914637166	-0.00372142326440694
0.04	-5.81412364874563	0.72905821227804	767.43080149108	7.17454738959334	-26.0373604925231	1.12563184525885	-1.15516584831972	0.0050916870401212	-0.00351246347373774
0.05	-5.954766392365	0.606781513849775	767.711810437741	7.16870978558805	-25.9261491797946	1.14128384520594	-1.17636199787244	0.0050803449890704	-0.00335197782420676
0.06	-6.04657043824761	0.508544968505652	767.84041574974	7.16655847453701	-25.8526471384535	1.14871362647541	-1.18804129031248	0.00507561469110074	-0.00324728523429996
0.07	-6.07990469019454	0.438864310410721	767.799043763352	7.16894017727268	-25.8180097225103	1.1490891252835	-1.19114546714345	0.00507879498641328	-0.0032007001253665
0.08	-6.04878252574507	0.401347033045584	767.583529406534	7.17471045197754	-25.8204471031568	1.14452890255311	-1.18762060800862	0.00508842527418885	-0.00321011864662518
0.09	-5.95292429749678	0.398187418744659	767.204695223861	7.18031644157583	-25.8562879940615	1.13751135585933	-1.17985358531212	0.0050997272897414	-0.00327032812659633
0.1	-5.79932419318345	0.429572604026533	766.687981338041	7.18037609195366	-25.9212615825094	1.13026377196797	-1.17009477853258	0.00510537117986121	-0.00337469216240116
0.11	-5.60255690349942	0.493111778581428	766.071093659249	7.16928473800745	-26.0116532121471	1.124301010369	-1.16002802769599	0.00509760459854969	-0.00351676470207557
0.12	-5.38327137528905	0.583415229228141	765.400148688731	7.14345557039309	-26.1250665049665	1.12023069871994	-1.15059358243517	0.00507122353038547	-0.00369146060569603
0.13	-5.1648203410835	0.691938587655689	764.7251046912	7.10347561174007	-26.2606930581654	1.11785077096888	-1.14208027480534	0.0050264365832563	-0.00389561255611492
0.14	-4.96861024213557	0.807189854449002	764.095357286745	7.05536775993075	-26.4191763105374	1.11646754756519	-1.13441004485008	0.00497055589870532	-0.00412798055020641
0.15	-4.80927115974613	0.915388145790644	763.556257266502	7.01034782806477	-26.6022835309876	1.11529489079716	-1.12747572093462	0.00491770957834081	-0.0043889531688327
0.16	-4.69091445884714	1.00165265640837	763.146992218463	6.98290737451895	-26.8126212652843	1.11378348316166	-1.12138615995517	0.00488635211221611	-0.00468022680704994
0.17	-4.60548981615998	1.05174893312382	762.899793789597	6.98760092410998	-27.0535400123859	1.11177691470901	-1.11652431974656	0.00489507061853756	-0.00500466132576671
0.18	-4.53367956084439	1.05428758824584	762.839893864941	7.03538258570197	-27.3292127627813	1.10947476381356	-1.11341129152405	0.0049577999065189	-0.00536633282346183
0.19	-4.44810053586432	1.00306076781254	762.98524742147	7.13054872439236	-27.6447100688639	1.10726308916456	-1.11245401811075	0.0050798398127172	-0.00577061726089206
0.2	-4.31804555573059	0.898985792403872	763.344982217665	7.26920728826506	-28.0058077354226	1.10551399811171	-1.11369893770273	0.00525588994067028	-0.00622402934495936
0.21	-4.11471801748614	0.751026415595417	763.915945584586	7.43974172896944	-28.4183014079507	1.10444404950777	-1.11670043457791	0.00547071909626651	-0.00673356644928036
0.22	-3.81590922082905	0.575589921124333	764.677525389744	7.62512204269783	-28.8867626923201	1.10407020228486	-1.1205527466749	0.00570227140580581	-0.00730546704815244
0.23	-3.40928116144494	0.394270934782256	765.585862126684	7.8063600089055	-29.4128958003904	1.10424478359964	-1.12406030205311	0.00592627286051139	-0.0079435252669981
0.24	-2.89377472095718	0.230317284542398	766.569290170765	7.9661123104263	-29.9938520934812	1.104719641516	-1.12597172441265	0.00612100956945105	-0.00864731030254329
0.25	-2.27909606803748	0.104622794107381	767.527066045385	8.09149844666162	-30.6209519351827	1.10519725447689	-1.12519805306557	0.00627102956985592	-0.00941073479759136
0.26	-1.58366156060577	0.0322104908847001	768.33306878112	8.17556629278141	-31.2792150248296	1.10536114445564	-1.12097052734997	0.00636900425457276	-0.0102213646281307
0.27	-0.831693074365447	0.0199838318492157	768.845307186574	8.21733331239044	-31.9479350579664	1.10491212373732	-1.11294071051817	0.00641564484161949	-0.0110606925118111
0.28	-0.050240178913166	0.0660881202631836	768.92096959097	8.22074786769216	-32.6023125171317	1.10364563122099	-1.10125443297537	0.0064181288211238	-0.0119053787554882
0.29	0.733278986419502	0.160747840705866	768.435617630366	8.19310770529805	-33.215943173539	1.10158058566548	-1.08662345071488	0.00638775841117167	-0.012729264108352
0.3	1.49279760169061	0.288130430754126	767.304092927527	8.14341820607454	-33.7637892742664	1.09910467760271	-1.07038067192795	0.0063375156144484	-0.013505822473401
0.31	2.20473220828236	0.428722750911989	765.499873772746	8.08096265953567	-34.2251522872741	1.09706130520491	-1.05446198422957	0.00627991487751423	-0.0142106543215753
0.32	2.84885958569565	0.561841144044674	763.069144821168	8.01413424421985	-34.5861311386937	1.09669564125483	-1.0412414534784	0.00622527058149658	-0.0148236216663757
0.33	3.40918193944546	0.668089959790288	760.135978770502	7.94946190281526	-34.8411045075347	1.09941407074524	-1.03317658130154	0.0061803426256114	-0.0153302927126334
0.34	3.87474908391764	0.731700714788558	756.896035345473	7.89078811965416	-34.9929343486173	1.10638383218267	-1.03229244775402	0.00614734505456493	-0.0157225001823086
0.35	4.24014547622007	0.742662462914479	753.598136018607	7.83867914679848	-35.051840446528	1.11808031888432	-1.03962003768984	0.00612343699823903	-0.0159980073054809
0.36	4.50529446555524	0.698425043932847	750.515685995088	7.79027062064955	-35.0331919662082	1.13394197140653	-1.05476457289763	0.00610093830839209	-0.0161594776155906
0.37	4.67444697689605	0.604818704164931	747.912514285166	7.73977802937771	-34.9547180658625	1.15228810384319	-1.07577986608192	0.00606850771796608	-0.0162130984200262
0.38	4.75460390833861	0.475798114273963	746.009425132459	7.67978223433228	-34.8337693433789	1.1705854411547	-1.0994526614531	0.00601333617568578	-0.0161672587563742
0.39	4.75395696104041	0.331758686444806	744.957899417671	7.60315440951821	-34.6852131541208	1.18603317872052	-1.12197436794843	0.00592407841869913	-0.0160316075844398
0.4	4.68101581848997	0.196485722730763	744.825743111082	7.50519730308726	-34.520325281702	1.19631372248382	-1.13983879433587	0.005793887939614	-0.0158166363692335
0.41	4.54483419193555	0.0931970595760445	745.596460292225	7.38537298587227	-34.3467139978961	1.20027378813667	-1.15070533459732	0.00562269076384636	-0.0155336986603549
0.42	4.35623161189809	0.0404850090717729	747.180630903066	7.24797479136263	-34.168983947783	1.19829506770519	-1.15395017977911	0.00541786939146494	-0.0151951736890288
0.43	4.12933877164205	0.0491072713098613	749.434680996016	7.10133770768565	-33.9896241649174	1.19219744753568	-1.15071039559292	0.00519288659935835	-0.0148143737492636
0.44	3.88241827076839	0.120432646505351	752.181059103794	6.95562835801856	-33.8095639714601	1.18467089887165	-1.14338872009404	0.00496399474852194	-0.014404832826393
0.45	3.63692181068573	0.246934056727579	755.224440720314	6.81977931518507	-33.6280042277476	1.17840545718056	-1.13477883874811	0.00474586565410962	-0.0139788011049524
0.46	3.41420960525282	0.41456215046489	758.361036266183	6.69854248703558	-33.441456643795	1.17521800039982	-1.12712130781196	0.00454748815813311	-0.013545063706139
0.47	3.23019614442328	0.606309018724526	761.381630844014	6.59075338737724	-33.2423130721084	1.17550379677656	-1.1214457752134	0.00436978764272355	-0.0131065208751184
0.48	3.08916881792903	0.805951901682633	764.072435911339	6.48962732150213	-33.0175929615704	1.17824586259533	-1.11746601487745	0.00420601401630916	-0.0126582121157847
0.49	2.97881623056462	1.00094822255794	766.2198443546	6.38528901730763	-32.7486592041073	1.1816178913594	-1.11409103209578	0.00404509163476441	-0.0121865487472262
0.5	2.86874414499698	1.18373582271482	767.624713693958	6.26894650389068	-32.4125710865848	1.18398194568673	-1.11036639885659	0.00387707475980525	-0.0116703817809714
0.51	2.71419563629401	1.351187566966	768.128571952778	6.1374256928667	-31.985350206396	1.18489808818871	-1.10645922717721	0.00369896404298609	-0.0110841705773597
0.52	2.46531297274708	1.50253244737588	767.64889554039	5.99645380685599	-31.4468501693076	1.18570871929647	-1.10423365928648	0.00351876205334356	-0.010402990711985
0.53	2.08038894855271	1.63652605261056	766.215063744293	5.86128935234278	-30.7863020129638	1.18937409133659	-1.10707450263777	0.0033559872292247	-0.00960854642252701
0.54	1.53975437809173	1.74889926816002	763.992942353146	5.7540410564961	-30.0071557302275	1.19949520214671	-1.11888306451512	0.00323789745211323	-0.00869489521226879
0.55	0.855954465539013	1.83106322055521	761.286152765552	5.69809795185848	-29.1297369240357	1.21878400681348	-1.14250562644678	0.00319211025642263	-0.00767241262700391
0.56	0.0762395556169779	1.87070616364891	758.506652747164	5.71115651741362	-28.1905833904658	1.24751009492462	-1.17813668796838	0.00323767238006667	-0.00656873547738895
0.57	-0.72473635122947	1.85436629932925	756.115374705501	5.79898705972938	-27.2380810977007	1.28255315999562	-1.22234580044124	0.00337741686874105	-0.00542603253892782
0.58	-1.46119277048149	1.77144560735157	754.542934781262	5.9520432367105	-26.3250009760568	1.31755630220278	-1.26824009803143	0.00359429581139714	-0.004294846283174
0.59	-2.05759895897618	1.6186153305329	754.107725821528	6.14623037944307	-25.499464049749	1.34432379659461	-1.30691283798176	0.00385325120543789	-0.00322569579523979
0.6	-2.46916674061617	1.40331221371399	754.951346344642	6.34783852596491	-24.7964324653352	1.3551458894035	-1.32985319811433	0.00410841849921961	-0.00226034055823982
0.61	-2.6951788978355	1.14513339655271	757.008070059115	6.52126581446313	-24.2318227325778	1.34533168304424	-1.33157927889678	0.00431365997718358	-0.00142482301839758
0.62	-2.7806461846217	0.874407072892253	760.016682719605	6.637215248982	-23.8007193488612	1.31505931545235	-1.31157961881992	0.00443326548678891	-0.000726013808008907
0.63	-2.8051697048046	0.627939287412435	763.572007997506	6.67890182214637	-23.4800878829524	1.2698077024556	-1.27480761895763	0.00444958535161866	-0.000152453511500839
0.64	-2.86181506827923	0.442725222039468	767.203188242959	6.64451360237063	-23.2351660577754	1.21908740096788	-1.23043738726845	0.00436541133362478	0.000320911242964128
0.65	-3.03197290382731	0.349042400203879	770.459377879274	6.5454574241104	-23.0277316357674	1.17378333645757	-1.18919747442837	0.00420069965504533	0.000725579676524535
0.66	-3.36349631099712	0.364616309587967	772.982759517159	6.40130244469888	-22.8240209886343	1.14293341586125	-1.16011960344915	0.00398507118028713	0.00109202327643154
0.67	-3.85839582698809	0.491355371814076	774.553694098785	6.23331703318057	-22.6003336605704	1.13099418137834	-1.14776922034641	0.00374876998174734	0.00144390141213463
0.68	-4.47336646442122	0.715512280062773	775.10159864677	6.05876179424514	-22.3452026881918	1.13649911466418	-1.15087509567517	0.00351501614618022	0.00179527436958354
0.69	-5.13244354960942	1.01120530571595	774.684916336613	5.88762341430813	-22.0581349788163	1.15255484473907	-1.16280728746714	0.0032959446592089	0.0021510511504419
0.7	-5.74748024115744	1.34629645837573	773.451268081021	5.72248505105328	-21.7459413530517	1.16901901418231	-1.1737444016887	0.00309292509430714	0.00250986614721482
0.71	-6.24008519823722	1.68897030759117	771.592373838307	5.56111398857318	-21.4182531770393	1.17567396529312	-1.17383833418406	0.00290054067699719	0.00286792129564728
0.72	-6.55874528234559	2.01320880657641	769.306953330691	5.40048942343825	-21.0838119706805	1.16542239977686	-1.15639780096807	0.00271238403840923	0.00322224744503907
0.73	-6.68691570643961	2.30177302683602	766.779542798096	5.24064623415417	-20.7485894840613	1.1365574041409	-1.12014195160418	0.00252642474467379	0.00357229386724162
0.74	-6.64106591189322	2.5461496832473	764.176156618907	5.08693300894709	-20.4159899161316	1.09346544379575	-1.06988530430775	0.00234807402935633	0.00391952436315357
0.75	-6.46087621080505	2.74391624907344	761.651494349452	4.94994415023796	-20.0886102418613	1.0455933561203	-1.0154892332252	0.00219001587375989	0.00426547669160021
0.76	-6.19592617985539	2.89479132574409	759.358945215699	4.8432311845631	-19.7705462911619	1.00500194691117	-0.969405404014888	0.00206903244263956	0.00460926084269103
0.77	-5.89367141744946	2.99700312312682	757.454842021323	4.77964089836079	-19.4691582878483	0.983204594942199	-0.94350860858441	0.00200103832390741	0.00494558679122975
0.78	-5.59225350327136	3.04542138276847	756.09181300341	4.76754119987772	-19.1955223694536	0.988158596966811	-0.946081368991155	0.00199605692403804	0.00526413395115333
0.79	-5.31929876518348	3.03223326999393	755.401166708537	4.80817567983293	-18.9633416929122	1.02220819488403	-0.979740980360029	0.00205480005625303	0.00555054238888858
0.8	-5.09528139480528	2.95002547804271	755.469058355228	4.8949725788721	-18.7866600129923	1.08149919064018	-1.04082126115023	0.00216791602000677	0.00578872762799054
0.81	-4.93824699716571	2.7962566388439	756.314019636084	5.0149803477913	-18.6771157989911	1.15697377922003	-1.12031537203902	0.00231807551287122	0.00596379803935126
0.82	-4.86639244850877	2.57753976844265	757.873416198011	5.15193225504949	-18.6415776689063	1.23662198956992	-1.20606343623715	0.00248417077172081	0.00606471743760906
0.83	-4.8962763502072	2.31208014932204	760.003740516197	5.28997249256746	-18.680804526695	1.3083329096735	-1.2855466376357	0.00264629671592909	0.00608602810060704
0.84	-5.03674819478812	2.02906099149753	762.495489389869	5.41694619121173	-18.7893751462158	1.36255195979622	-1.34852066627977	0.00279004104832659	0.00602834191231444
0.85	-5.28104365447254	1.76461728255571	765.099282085656	5.5263839962221	-18.956697269347	1.39405214245351	-1.38882305121136	0.00290894544810283	0.00589775372512641
0.86	-5.60086262629288	1.55505215173978	767.557225182581	5.61779166191998	-19.1686031352113	1.40243411716946	-1.40498452855087	0.00300465963303698	0.00570465257519132
0.87	-5.94598914062786	1.42884550548607	769.63302157806	5.69540029751106	-19.4089713468181	1.39137783753119	-1.39966067117485	0.00308504106252938	0.00546248330717775
0.88	-6.25117272975017	1.39952191543473	771.135794948736	5.76595398207857	-19.6609857997499	1.36703658974715	-1.37824160626047	0.00316100436333655	0.00518683215318044
0.89	-6.44927864784408	1.46141187825549	771.935213893245	5.83628866422372	-19.9079528667312	1.3361690651065	-1.34718083681225	0.00324314290461947	0.00489487560550539
0.9	-6.4872000440698	1.58972014388775	771.968133386283	5.91137610135304	-20.1338947762408	1.3045893166818	-1.31256167693758	0.00333902064162728	0.00460491046443451
0.91	-6.3396973030742	1.74522956833483	771.238688611965	5.99324860385987	-20.324278562781	1.27630739818632	-1.27922684855906	0.00345167821865888	0.00433553514322982
0.92	-6.0167075024814	1.88269425765121	769.814151939901	6.08090645135512	-20.4671572500676	1.25343326322394	-1.25052988656852	0.00357947888716437	0.00410416059741736
0.93	-5.56162076538118	1.96088200088883	767.818077397583	6.17104628884398	-20.5547266214039	1.23664421622048	-1.22853757048657	0.00371707705861246	0.00392485945727283
0.94	-5.04084908449851	1.95167064136585	765.420950225697	6.25929013944805	-20.5849595865106	1.22586571883168	-1.2143997524158	0.00385709258841938	0.00380597491615786
0.95	-4.52772713913513	1.84580236914061	762.82753276584	6.34154257088916	-20.5627311107699	1.22082133788149	-1.20862717690011	0.00399201235261837	0.00374821971330813
0.96	-4.0854721028894	1.65383284686263	760.259972394536	6.41513097969574	-20.4998201859325	1.22124188288783	-1.21114324737615	0.00411587531604274	0.00374404453383487
0.97	-3.75406817063937	1.40220486072455	757.93669968559	6.4794629807225	-20.4134151757698	1.22671583688112	-1.22113378490614	0.00422538864259958	0.00377878760654543
0.98	-3.54454940227283	1.1257842578251	756.048869955266	6.53605042787137	-20.3231908662618	1.23633236868732	-1.23684034494692	0.00432025337736464	0.00383360277389255
0.99	-3.44174482363878	0.859158318086554	754.737871795009	6.58789469326018	-20.2475194578744	1.24835384272171	-1.25548324541927	0.00440264736791851	0.00388957391479722
1	-3.41393088728234	0.629204083156748	754.078412869628	6.63838917107457	-20.1997425256438	1.26013468935602	-1.27345308609149	0.00447601260289943	0.00393197067500184
1.01	-3.42583829502675	0.450842536366697	754.07129286053	6.69004183763288	-20.18552116518	1.26839687468822	-1.28680170100301	0.00454349129662857	0.00395345786730766
1.02	-3.45067734059854	0.326738121817015	754.648079951376	6.74340676436867	-20.2020411452764	1.26982729785733	-1.29194246451809	0.00460649077793496	0.00395531198178811
1.03	-3.47746754485675	0.250401368426696	755.687005925884	6.79659294230164	-20.2393365642097	1.26183575252887	-1.28638271882865	0.00466386581102707	0.00394626612346349
1.04	-3.51172485575374	0.211151100739226	757.036425229575	6.84557080081592	-20.2833671251439	1.24324711714625	-1.26928726677047	0.00471204961290828	0.00393932490455839
1.05	-3.5698596025898	0.199003132679244	758.540199968109	6.88524665940596	-20.3199494540765	1.21471511948677	-1.24171482420596	0.00474616174615383	0.00394752485128724
1.06	-3.66970249040337	0.207849488744817	760.059126841601	6.91099872850288	-20.33838949866	1.17872580879784	-1.20645905791903	0.00476176239913451	0.00397994214638603
1.07	-3.82073082306095	0.236106714966409	761.484138850122	6.92017009439719	-20.3337867613413	1.1391752963649	-1.16752983948361	0.00475664445851165	0.00403914574150871
1.08	-4.01745755276564	0.285011085176939	762.739920851022	6.91298593061529	-20.3074450852566	1.10062071575419	-1.1293969860339	0.00473198410271625	0.00412078834048191
1.09	-4.23815700276438	0.35555981816226	763.780720149344	6.8925365174601	-20.2654684131292	1.06738443934991	-1.09616726720065	0.00469236228691772	0.00421529480533356
1.1	-4.44913191928092	0.445479094933256	764.582387776295	6.86379416192185	-20.2162166805237	1.04272186761629	-1.0708694805532	0.00464457019828779	0.00431090573368387
1.11	-4.61280909020429	0.547461164398396	765.135281490275	6.83199141050455	-20.1676374267703	1.02824015249514	-1.05498763352375	0.00459557380596098	0.00439691071544518
1.12	-4.69677697001105	0.649360841891677	765.441448028788	6.80093898206241	-20.125457014517	1.02368894833821	-1.04832135328236	0.00455035320138841	0.00446590676647907
1.13	-4.68083596903317	0.736309222257441	765.516986058599	6.7719009851373	-20.092829810455	1.02715290315968	-1.04918060163416	0.00451041079882442	0.00451433515197303
1.14	-4.56015707138997	0.794052539030014	765.397646940256	6.74345013747916	-20.0714490734136	1.03558151808704	-1.05485338390124	0.0044735195814497	0.00454122766142723
1.15	-4.34425865554064	0.812458083321523	765.143663371889	6.7123668369812	-20.0635394571289	1.0455175344318	-1.06223344622256	0.00443483798355804	0.00454578200412376
1.16	-4.05302482776023	0.78812982226056	764.839358452374	6.6752585018319	-20.0737945756538	1.05384750625423	-1.06846954412216	0.00438901898829125	0.00452483252698044
1.17	-3.71179176623558	0.725400063558229	764.584557133662	6.63030766765165	-20.1103275257006	1.05840545331042	-1.07150283486289	0.00433257709755264	0.00447132365811892
1.18	-3.34735250625925	0.635473404207459	764.477753033897	6.57851114297603	-20.1840654172234	1.05830825554271	-1.07039166563651	0.00426568543156802	0.00437451867457578
1.19	-2.98576049299667	0.534021999666824	764.594317297321	6.52396380071398	-20.3066008467177	1.05397482864133	-1.06537477181492	0.00419278786536859	0.0042220331592886
