Time [s]	GRFml [N]	GRFap [N]	GRFv [N]	Mml [N.m]	Map [N.m]	Mv [N.m]	Mfree [N.m]	COPml [m]	COPap [m]
0.01	-2.68861446286795	1.54752976799306	605.537887452387	14.8655596050692	43.0005237020451	0.351868125530073	-0.527753977966969	-0.00171279490043208	0.000818370877258778
0.02	-2.41152900946501	1.32459153246613	605.812026631842	14.9054172063741	42.936934701568	0.373464543571075	-0.526697799040068	-0.00166340459989878	0.00067841488616166
0.03	-2.14438250556071	1.12203686110619	606.066933661003	14.9382931995228	42.8702339462079	0.394480439222426	-0.526733352092365	-0.00162483479964692	0.000535397455210196
0.04	-1.89472941894647	0.956362081510654	606.27994037177	14.9583009112815	42.7982324974821	0.414435122648464	-0.528722270585393	-0.00160593786640029	0.000388211072516187
0.05	-1.6680312882337	0.837230154040506	606.428159068555	14.9623869841724	42.7200663348356	0.432854351668709	-0.533004964690901	-0.00161084421644586	0.000238021529505583
0.06	-1.46782363243786	0.766239140910721	606.49240873293	14.950996081257	42.6363692798085	0.449258205314347	-0.539306345480735	-0.00163801921208073	8.81062219456608e-05
0.07	-1.29650768681993	0.737612187884118	606.462894310591	14.9279267270262	42.5491344746347	0.463162259818314	-0.546803927949027	-0.00168073883951525	-5.70428676912593e-05
0.08	-1.15629567306018	0.740468030170363	606.344426028237	14.8994331004817	42.4613584435448	0.474104101889632	-0.55433524727244	-0.00172880221682337	-0.000192934514836318
0.09	-1.04973797255103	0.761891662376408	606.158651690348	14.8727967612035	42.376577438251	0.481701762283652	-0.560682883230311	-0.00177100305141153	-0.000316129562848433
0.1	-0.979464638025911	0.789883147091294	605.941568908256	14.8547021523522	42.2983814764878	0.485736916788888	-0.564856653591901	-0.00179773078065137	-0.000424778289705607
0.11	-0.947180069357023	0.815445278177635	605.736192453857	14.8497824510475	42.2299595876837	0.486240112350767	-0.566299602446144	-0.00180308405927365	-0.000518535957530097
0.12	-0.952349667697245	0.833465390553406	605.582089342191	14.859654997695	42.1737113792955	0.483546847786565	-0.564973333334884	-0.00178603555137735	-0.000597995976454824
0.13	-0.991212303981479	0.842474007379493	605.504877580518	14.8826491640797	42.1309573947267	0.478297799416134	-0.561317338485674	-0.0017504403051517	-0.000663948038919782
0.14	-1.05665258897871	0.843667014582609	605.509151678358	14.9142682523515	42.1017827584401	0.471373124261888	-0.556112381832712	-0.00170396555718566	-0.000716809234005689
0.15	-1.13912584640015	0.839683381499623	605.577413768292	14.9482555291581	42.0850420679414	0.463772949848747	-0.550299099014588	-0.00165626897903137	-0.000756484050091433
0.16	-1.22840533033907	0.833551179442613	605.675673005858	14.9779931034167	42.0785323223369	0.45647443613183	-0.544805256869563	-0.00161690674283166	-0.000782720540943249
0.17	-1.31559611489172	0.828024531614336	605.764078329013	14.9978890249106	42.0793089705866	0.450302205502439	-0.540420228255693	-0.00159347672462784	-0.000795814448711574
0.18	-1.39475361822562	0.825324770315648	605.809139359591	15.0044268145415	42.0840890931821	0.445840764585795	-0.537729852451474	-0.00159039289299179	-0.000797353758919594
0.19	-1.4635770821625	0.827146423389644	605.793502812077	14.9966606009407	42.0896673599604	0.443398965524953	-0.537098934735943	-0.00160847965738986	-0.000790658551768519
0.2	-1.52295132298395	0.8347340487873	605.720153843695	14.9761045804532	42.0932718701627	0.443016906710046	-0.538672689500047	-0.00164533725829386	-0.000780673917628094
0.21	-1.57547259356545	0.848879813697843	605.609959019954	14.9461314695649	42.0928075273827	0.444494667252735	-0.54236941254642	-0.00169624013577496	-0.000773277923856452
0.22	-1.62340954886823	0.869798123473209	605.493843310426	14.9111044801218	42.0869663755416	0.447424680496858	-0.547854199714754	-0.00175524880701661	-0.000774190009773801
0.23	-1.66674084094231	0.896945650511541	605.402665670545	14.8754891738548	42.0752161328387	0.451222511149639	-0.554508904715954	-0.00181625542379638	-0.000787817942332958
0.24	-1.70193211323949	0.928918510851513	605.358376835108	14.8431314777294	42.0577003094317	0.455165420469373	-0.561433042396065	-0.00187380583664254	-0.000816404309254337
0.25	-1.72195150523848	0.963544725458319	605.369197546466	14.8167850825941	42.0350914372756	0.458454580116002	-0.567511890506876	-0.00192367701810292	-0.000859720898617133
0.26	-1.71769315023386	0.998209160072334	605.429787648325	14.7978766604595	42.0084354689744	0.460310023605163	-0.571567677441706	-0.00196327150061071	-0.000915358826948209
0.27	-1.68054942567891	1.03034194650986	605.525468111319	14.7864498804682	41.9790172864653	0.460089928488472	-0.572574522685258	-0.00199188823691465	-0.000979453424801879
0.28	-1.60546267295578	1.05792360325573	605.638286296189	14.7812391468752	41.9482705994701	0.457406492045239	-0.569883151943831	-0.00201085825748148	-0.00104754601312718
0.29	-1.49353844165763	1.07984987294488	605.752519794844	14.7798702197418	41.9177497585388	0.452200166518637	-0.563384142020054	-0.00202344759739248	-0.00111527193241329
0.3	-1.35332879622943	1.09606235500458	605.858020641311	14.779227159535	41.8891679631939	0.444739450873534	-0.553548781447649	-0.00203439320503329	-0.00117868035895113
0.31	-1.20022321047765	1.1074559370107	605.951081291185	14.7760243920997	41.8644770360767	0.435534855616003	-0.541323119419732	-0.00204899262354474	-0.00123419005855857
0.32	-1.05392964310869	1.11566569840866	606.033560126008	14.7675619890944	41.8459201447014	0.425185918808854	-0.52790040807752	-0.00207181425322744	-0.0012783823534786
0.33	-0.934612756234024	1.12286137679552	606.11134415287	14.7525383424027	41.835950610777	0.414207793968632	-0.514440587335313	-0.00210528287665823	-0.0013079374248739
0.34	-0.858679581398387	1.13161507524414	606.192816884531	14.7316952342173	41.8369102732151	0.402897690617007	-0.501825189736335	-0.00214854326935188	-0.00131997341085743
0.35	-0.835320899578179	1.14478674436327	606.287257766061	14.708035619788	41.8504265705682	0.391294550067163	-0.490523842318282	-0.00219703101606628	-0.00131285281833921
0.36	-0.864695861813361	1.16526636100205	606.402621956699	14.6864264542137	41.8766158185215	0.379258076850643	-0.480609011421996	-0.00224303905363876	-0.00128725074430747
0.37	-0.938172230185206	1.19540547343843	606.542334611005	14.6725760255881	41.9133272455995	0.366653087842237	-0.471903969629673	-0.00227728087375112	-0.00124705343024861
0.38	-1.04046680959298	1.23610560407494	606.701531396942	14.6716033141736	41.9557555130903	0.353584431571987	-0.464204136421217	-0.00229110542566813	-0.00119958949004084
0.39	-1.15304565997385	1.2857683130016	606.864109411672	14.6866055102879	41.9967213972663	0.340599890602279	-0.457488792708555	-0.00227874521034777	-0.0011548475534599
0.4	-1.25787343462153	1.33953610183613	607.002393623724	14.7176897810518	42.0277485866393	0.328774128726123	-0.452044447053685	-0.00223889969325597	-0.0011236691172844
0.41	-1.3406023567954	1.38932465773911	607.080763238147	14.7618213629046	42.0407932845855	0.31961081303168	-0.44844952147572	-0.00217512827048705	-0.00111530392320536
0.42	-1.39254077189424	1.4249779074597	607.063268466691	14.8135781293943	42.030212791792	0.314749959393256	-0.447413577853847	-0.00209490825810932	-0.00113501595330018
0.43	-1.41114984575682	1.43649365760922	606.923604453461	14.8665856107103	41.994405182607	0.315532330335634	-0.449511942941246	-0.00200766845628986	-0.00118249610334875
0.44	-1.39925501320537	1.4168124227015	606.654524158657	14.9151607656394	41.9365932261237	0.322533632042465	-0.45489657901447	-0.00192246106368599	-0.00125162489727104
0.45	-1.36348968591633	1.36433549111412	606.273486627825	14.9556194156722	41.8644641762023	0.335215650307937	-0.463084316501159	-0.00184604176711356	-0.00133170171410951
0.46	-1.31260948478631	1.28430138584338	605.822276417868	14.9868341417334	41.7887321803757	0.351830365376158	-0.472913624865265	-0.00178194548178046	-0.00140977526259195
0.47	-1.25619323111137	1.18844429474159	605.360202031261	15.0099153381424	41.7210283821489	0.369650794649271	-0.482717018314149	-0.00173074745453294	-0.00147336141226284
0.48	-1.20393760076928	1.09288335351705	604.952580047433	15.0272140540081	41.6717147360559	0.385503106788024	-0.49068631378576	-0.00169124651852037	-0.00151275528148515
0.49	-1.1653855528403	1.01475078098293	604.657714413409	15.0410829120394	41.6481902168862	0.396471218016342	-0.495334390911263	-0.00166197772923782	-0.00152235906121823
0.5	-1.14966375976926	0.968454151195518	604.515910623619	15.0528912258812	41.6540333761175	0.40057746267722	-0.495909370003874	-0.00164237927018973	-0.00150085584586296
0.51	-1.16476800645532	0.96255563259852	604.543148042949	15.0626565105651	41.6890067256759	0.397240506138579	-0.492619182527783	-0.0016331256235842	-0.00145048306549261
0.52	-1.21616487661415	0.998033128538825	604.730318247744	15.0693874317974	41.7496749775731	0.387378956044127	-0.486581714852103	-0.00163551264141548	-0.00137591809248994
0.53	-1.30489308640634	1.06826825928118	605.047167240761	15.071941700492	41.8302701031072	0.373142139216695	-0.479509536794808	-0.00165018999071831	-0.00128328630205543
0.54	-1.42577234563642	1.16064060075202	605.448945849798	15.0699990024459	41.9235017069356	0.357365529653363	-0.473232573810878	-0.00167582451079429	-0.00117956615835768
0.55	-1.56655744767982	1.25924002002877	605.8836157981	15.0647078594378	42.0212023348528	0.342924206064879	-0.469218623083133	-0.00170833624594413	-0.00107233255473421
0.56	-1.70876920757094	1.34802269792964	606.298154924812	15.0586969752198	42.1148994983797	0.332167936288813	-0.468246857984214	-0.00174115582142487	-0.00096952396515787
0.57	-1.83048535464802	1.4137414796828	606.643570883706	15.0553921405506	42.1965084214555	0.326567808384694	-0.470325463643543	-0.00176657833347038	-0.000878869889693989
0.58	-1.91072598445212	1.44813090942967	606.87908231007	15.0578525149426	42.2592882085843	0.326613779462972	-0.474848443947856	-0.00177787200016211	-0.000806794973298108
0.59	-1.93445619848371	1.44904997992567	606.976151474922	15.0675329288136	42.299025678905	0.331914803866515	-0.480899003884704	-0.00177149206747396	-0.00075693528986126
0.6	-1.89688528773564	1.4205133541896	606.92259883788	15.0834224855694	42.3151953614717	0.341403192826878	-0.487563751089553	-0.00174866365322157	-0.00072870610669129
0.61	-1.80580133529306	1.37172685964788	606.726196261893	15.1018923629675	42.3117001982346	0.353547696433081	-0.494138624233374	-0.00171576170265142	-0.000716502756286708
0.62	-1.68113173584502	1.31536284814002	606.416407759884	15.1173544685108	42.2968042492174	0.3665255065649	-0.500172324305549	-0.00168327220497699	-0.00071002206362164
0.63	-1.55162336179125	1.26536700293535	606.042759027541	15.1235724789448	42.2820418962345	0.378363303512757	-0.505374190178374	-0.00166354219699749	-0.000695884616826847
0.64	-1.44928026371281	1.23460006582304	605.668857483962	15.1152665657851	42.2801755345819	0.387098836104707	-0.50947431752697	-0.00166787735998364	-0.000660325580927545
0.65	-1.4027740046302	1.23261201744674	605.36222413185	15.0895727333176	42.3025779573209	0.391015580222842	-0.512139098995945	-0.0017037214960236	-0.000592350152410492
0.66	-1.43130655006436	1.26383997021456	605.181459752556	15.0469701427254	42.3566318533116	0.388962043534341	-0.51301098946188	-0.00177261647216942	-0.000486549049322216
0.67	-1.54030713281867	1.32651194301224	605.163382724537	14.9914435386605	42.443793021137	0.380702674697557	-0.511873962274488	-0.00186942905670284	-0.000344808572409261
0.68	-1.71992774824546	1.41250478019638	605.313255844886	14.9298461690428	42.5588362155214	0.367189857906876	-0.508876059447895	-0.00198302172663811	-0.000176417195706713
0.69	-1.94668309920215	1.50831702471401	605.60087407485	14.8706141826654	42.690529903295	0.350626739730302	-0.504699138935315	-0.00209822520434089	3.51668690140583e-06
0.7	-2.18790731610332	1.59715910671923	605.964159178748	14.8221169223717	42.8236460614031	0.33422589502624	-0.500573169974092	-0.00219870765729691	0.000176986759119702
0.71	-2.40811150835257	1.66194175910729	606.320250370465	14.7909922147988	42.9418948321041	0.321653975027825	-0.498087263893475	-0.00227016532452162	0.000326668380819073
0.72	-2.57593156646606	1.68869776339488	606.582273443133	14.7808120021823	43.0311597480114	0.316259717001595	-0.49882975348028	-0.0023031951440774	0.000439328655422233
0.73	-2.67022430625727	1.66976671788297	606.678440547925	14.7913589999511	43.0823438440958	0.320271546715555	-0.503960821353921	-0.0022952554221628	0.000508310988551808
0.74	-2.68403146759838	1.60598463316599	606.569265914785	14.8186788307625	43.0932272851984	0.334184919984729	-0.513852928670346	-0.0022512757776264	0.000534591807795692
0.75	-2.62556756162715	1.50721655422783	606.258748681805	14.8559174821208	43.068953807824	0.356521824292244	-0.527914059009517	-0.00218273245029488	0.000526262252662613
0.76	-2.51602396258735	1.39087801946456	605.796451290096	14.8947839632717	43.0210515475074	0.384046226702191	-0.544647302641786	-0.00210532621017911	0.000496642930640945
0.77	-2.38468616199942	1.27856990169676	605.269327548041	14.9273279525709	42.9651888197141	0.412393343196984	-0.561925193053492	-0.00203572410115571	0.000461505428980713
0.78	-2.26246952504132	1.19148475447613	604.784525037412	14.9476332347037	42.9181079075985	0.436959623620202	-0.577398591064143	-0.00198806944470287	0.000435998302662222
0.79	-2.17533878428324	1.1456623921955	604.446634946814	14.9530327926534	42.8943283830675	0.453838040404488	-0.588936042704475	-0.00197104934055625	0.000431855217726262
0.8	-2.13909239065098	1.14831421332893	604.334399675619	14.9445599655263	42.9032473071762	0.46058337058342	-0.595000320179459	-0.00198619497285812	0.000455337665522249
0.81	-2.15665358606037	1.19621244420294	604.482269143781	14.9265397405916	42.9471887870569	0.456646963140241	-0.594900096116553	-0.00202779498409122	0.00050619109760075
0.82	-2.21839305258298	1.27659185407258	604.871255432724	14.9054443352706	43.0207861400812	0.443408036272802	-0.588888978333199	-0.00208440195049675	0.000577719627496198
0.83	-2.30526341144649	1.37030349552273	605.43145205806	14.8883236228856	43.1118417533797	0.423822900402365	-0.578110654371411	-0.00214151932030349	0.00065793305476336
0.84	-2.39384397955773	1.45632731547904	606.055855047884	14.8812174045242	43.2035359571703	0.401792591065111	-0.564406637630541	-0.00218478438970193	0.000731588491449997
0.85	-2.46195745712835	1.51640640077345	606.622439251242	14.8879346679052	43.2775896790197	0.381398532875992	-0.550016851789416	-0.00220288768677701	0.000782826675681081
0.86	-2.49344875941427	1.53861899165832	607.019504129589	14.9094553326882	43.317777860832	0.366168220298859	-0.537216954068364	-0.00218960242095512	0.000797992043721163
0.87	-2.481026004006	1.51911854171484	607.168613589162	14.9440189985554	43.3130936534479	0.358509317891105	-0.527948764163886	-0.00214458387270411	0.000768150837329507
0.88	-2.42665700976663	1.46188211118542	607.040171961753	14.9877785839982	43.2599136745957	0.359399333719704	-0.52350598604343	-0.00207293580595325	0.000690822983698269
0.89	-2.3397101090098	1.37688782660769	606.658566961739	15.035774631473	43.1627149379768	0.368353722433648	-0.524331070022538	-0.00198381998784358	0.000570552599893526
0.9	-2.2336186000809	1.2774962704281	606.096319497332	15.0829596334608	43.033204243189	0.38363564979522	-0.529959361988922	-0.00188853143571899	0.000418157061570168
0.91	-2.12216619889919	1.17784405498155	605.459121857957	15.1250614535679	42.8880650977092	0.402631255247267	-0.539118229932896	-0.00179846360837244	0.000248772279332066
0.92	-2.01645912710343	1.09080785714607	604.865407195835	15.1591772296437	42.7458177359346	0.422302969618798	-0.549959944172848	-0.0017232912994084	7.90805747228895e-05
0.93	-1.92330383294028	1.02670881783832	604.42481003577	15.184080102172	42.6234537402532	0.439647337195139	-0.560385525978478	-0.00166957869028428	-7.57051566454559e-05
0.94	-1.8451810673188	0.992587205019742	604.219518370763	15.200264957801	42.5335160201578	0.45211027443628	-0.568406259708593	-0.00163993351469527	-0.000204469873217206
0.95	-1.78148288528669	0.991733558681417	604.291360654733	15.2097559718122	42.4821593556906	0.457935325326324	-0.572488692580274	-0.001632786970448	-0.000301891653901321
0.96	-1.73033251646433	1.02326136187288	604.635983425604	15.2156794956629	42.4684925624995	0.45642707149167	-0.571833313466039	-0.00164285005825737	-0.000368865631510173
0.97	-1.69023732937586	1.08177284179002	605.204135474126	15.2216108855638	42.4852331998059	0.448101214543479	-0.566542979106444	-0.00166223392873532	-0.00041160228867354
0.98	-1.66102374697181	1.15744188866656	605.909191410582	15.2307545987189	42.520460122059	0.434676361939562	-0.557644540980708	-0.00168210221530174	-0.000439643862551353
0.99	-1.64386331277052	1.23694197991624	606.639654587471	15.2451002054069	42.5600724684601	0.418859234842089	-0.546940188553469	-0.00169457030095599	-0.000463286850758582
1	-1.64056649466622	1.30548062389624	607.275257532965	15.2647697849096	42.5904772837585	0.403901451450661	-0.536689247130772	-0.00169444181709788	-0.00049102892808045
1.01	-1.65255949545956	1.34979313387195	607.705109250878	15.2877836545284	42.6010310052349	0.392965494058806	-0.529158231850383	-0.00168034658335448	-0.000527639071989383
1.02	-1.68000392651114	1.36145577123041	607.845916647566	15.3103914349599	42.585836250427	0.388413994161479	-0.52612023007756	-0.00165495729591691	-0.000573281820976435
1.03	-1.72138802378045	1.33952830645714	607.657692632984	15.3279548567134	42.5446222396578	0.39119841384835	-0.528418798500803	-0.00162419932292868	-0.0006238522220402
1.04	-1.77368913272705	1.29152420316718	607.15389334849	15.3361801203112	42.4825932190812	0.400536317391018	-0.535717942775272	-0.00159565678745954	-0.000672369578465615
1.05	-1.83297644105332	1.23210243584618	606.403064422035	15.3323556201669	42.4092959222669	0.414011258726567	-0.54652631384515	-0.00157661603439807	-0.000711018357735405
1.06	-1.89516848253857	1.17957728430278	605.520168318178	15.3162193979615	42.3367170192798	0.428113950942527	-0.558513586896827	-0.00157228452381808	-0.000733282672133517
1.07	-1.9566237890829	1.15110743566421	604.647822774924	15.290182824469	42.2769551680348	0.439104027198854	-0.569050323778333	-0.00158464205761211	-0.000735631792418978
1.08	-2.0143281441342	1.1579580561207	603.930279382575	15.2588411198722	42.2398970017128	0.443959484278919	-0.575829975662307	-0.00161215600660047	-0.000718369115054629
1.09	-2.06561655236385	1.20230207985056	603.48533018694	15.2279317813443	42.2313394218041	0.44114055797832	-0.577401020091089	-0.00165031390168036	-0.000685505266152464
1.1	-2.10757476652992	1.2765810003781	603.380564748536	15.2030703789951	42.2519271095813	0.430945132787319	-0.573461696311399	-0.00169270300089286	-0.000643780740643196
1.11	-2.13643408093042	1.36562619071361	603.619878021121	15.1886366900507	42.2971174569805	0.415358221268592	-0.564842132946241	-0.00173227347372396	-0.000601165522619962
1.12	-2.14734015182116	1.45084789115321	604.143783202491	15.1870930286261	42.3581730110742	0.397454646113591	-0.553194246683436	-0.0017624726532226	-0.00056524692136195
1.13	-2.13480393429886	1.51516138828942	604.843525108643	15.1988371754677	42.4239635763158	0.380547290582864	-0.540496387809423	-0.00177808220031994	-0.000541869310464904
1.14	-2.09393474619782	1.54716405382142	605.585336702919	15.2225038850218	42.4831934079479	0.367339107144474	-0.528529261023501	-0.00177574497008404	-0.000534244266654882
1.15	-2.02226442245703	1.54343305935874	606.238640303334	15.2555068660321	42.5265974280503	0.359317541279651	-0.518477697229319	-0.00175426128416656	-0.00054257336755742
1.16	-1.92168878925349	1.50851380357849	606.70137373737	15.2945959321606	42.5486875411006	0.356537784736277	-0.510762562614577	-0.00171473625082541	-0.00056409051833739
1.17	-1.79988272374155	1.45292838355118	606.91700363309	15.3362803140178	42.5487539566887	0.35781234958935	-0.505127101947258	-0.00166059314032874	-0.000593383068104081
