Time [s]	GRFml [N]	GRFap [N]	GRFv [N]	Mml [N.m]	Map [N.m]	Mv [N.m]	Mfree [N.m]	COPml [m]	COPap [m]
0.01	-5.71057852756642	-1.51844483105329	634.269724875047	5.77952513095124	29.6748041928376	0.726244609165934	-0.707585207786454	0.0100689297716571	0.00995389265668811
0.02	-7.71555220559357	-1.27591563421612	639.671398580864	5.91953558170543	30.4280765940097	0.503040485043635	-0.515152542367041	0.0102001247051776	0.0107112866436226
0.03	-9.3967473789319	-1.04221592278243	645.333538402458	6.07017771563871	31.0955109368416	0.320665225326766	-0.360128888439453	0.0103423981423588	0.011321405045501
0.04	-10.4654422267609	-0.828133872966399	651.486312488761	6.23999584318431	31.605421479781	0.215161883807	-0.27533939184558	0.0105047193604961	0.0116621645669123
0.05	-10.7227350178855	-0.648484478703483	658.119355490428	6.42753210710695	31.8987240014495	0.208716043471758	-0.280396957156834	0.0106851217316976	0.0116476768482244
0.06	-10.0919333845201	-0.520428098665834	664.936157776507	6.61989150637598	31.9347730921552	0.305314806674615	-0.377758514920292	0.0108692279633337	0.0112395912337742
0.07	-8.63366551431287	-0.459287525762242	671.389226876377	6.79487559980897	31.6968718921491	0.489741892252157	-0.552075248790837	0.0110327239702088	0.0104519234288843
0.08	-6.53871516856229	-0.473533315137167	676.78185605153	6.9259064292303	31.1955143401226	0.730323415191677	-0.773116278816381	0.0111468669465253	0.00934778619613663
0.09	-4.09758964362069	-0.561012622496927	680.408413788497	6.98818489152889	30.4676422689361	0.985005247629826	-1.00173111839	0.0111852198828438	0.00802785169156739
0.1	-1.65127808375824	-0.707977813540051	681.700282375412	6.96426753832711	29.5712560103449	1.20947949268614	-1.1975339745435	0.0111295216611823	0.00661221960277064
0.11	0.467504110543912	-0.891305211687278	680.347362984952	6.84756176919941	28.5761044539173	1.3655189385524	-1.3265423881074	0.0109730250446582	0.00521901939351893
0.12	1.99089079345892	-1.08300449576817	676.372881925562	6.64301094978236	27.5523440301888	1.42766167925087	-1.36707596631331	0.0107206197074187	0.00394397024452897
0.13	2.75936735952639	-1.25525828384374	670.149582428599	6.36518622490704	26.5596065520043	1.38692719054902	-1.31279606006927	0.0103862324700266	0.00284495890298603
0.14	2.74475983614789	-1.38416541798626	662.356263184931	6.03477230598919	25.6387384245316	1.25112139515788	-1.17261266871115	0.00998889535771252	0.00193453285013545
0.15	2.04996292448632	-1.45112003991859	653.883540045261	5.67475555267239	24.8077138878119	1.04216140294496	-0.967973293472078	0.00954913334355367	0.00118140804868483
0.16	0.887090763193073	-1.44200726150108	645.705524635586	5.30740983749586	24.0621835462746	0.79142304544068	-0.728513823090127	0.009086861073339	0.000520170752750237
0.17	-0.461037567078066	-1.34555646088325	638.738919759203	4.95256762220055	23.380117657768	0.534258883656612	-0.487103864568215	0.00862102298942535	-0.000133205616444254
0.18	-1.68933878811334	-1.1526841938053	633.712192487577	4.62695628764573	22.7292769699518	0.304625596140862	-0.275062124004915	0.00817021201054979	-0.000863288539155793
0.19	-2.52137670235479	-0.858174448931221	631.06487814552	4.3438948974613	22.0758963370266	0.130404300190857	-0.117970095301983	0.00775292485515455	-0.00173793010656065
0.2	-2.75532666349824	-0.464734745350172	630.891299383591	4.11259473791395	21.3929807303229	0.0297117350513343	-0.0322820473697073	0.00738623856313247	-0.00279464986674655
0.21	-2.29823275026169	0.0120860362295927	632.935372703942	3.93670076325389	20.6668927971197	0.00840111568744042	-0.0229081018150618	0.00708249518347992	-0.00403252562237855
0.22	-1.18315827374699	0.540662153996077	636.635390937175	3.8123617988172	19.9013289002953	0.0590114270574923	-0.0820771027928371	0.00684472848961548	-0.00541039578818209
0.23	0.433996817843172	1.07420395515604	641.211156618665	3.72671468880851	19.1182235654206	0.161505325437309	-0.189905314381305	0.00666255433774376	-0.00685124907493384
0.24	2.29834017064983	1.55699684555334	645.781304526968	3.65790994683202	18.3555227410169	0.286077930545039	-0.317036487080236	0.00651060518835511	-0.00825200988131075
0.25	4.09755610600603	1.93510416196473	649.495930277405	3.57753043781015	17.6621126800568	0.398030266669338	-0.429396011406232	0.00635108235841453	-0.00949749355597879
0.26	5.51516992770821	2.1687163247679	651.668063360074	3.45551128416726	17.0905119294759	0.464212516767039	-0.494567932797604	0.00614073388824854	-0.0104769727463003
0.27	6.2871130484702	2.24230364149176	651.886580723484	3.26671502693456	16.6882579525983	0.45999791722024	-0.488725161486995	0.00584096900875397	-0.0111014333283712
0.28	6.25199880973297	2.16912064246808	650.093099785048	2.99751932393525	16.48923422217	0.375348138347398	-0.402634558657507	0.00542848648902816	-0.0113191890258098
0.29	5.38578087548465	1.98832690322317	646.607308779077	2.65047120973481	16.5064115029105	0.218453900106267	-0.245199080876543	0.00490325761984067	-0.0111272201036368
0.3	3.81333647427384	1.75540364666132	642.090446628965	2.24541807564469	16.7274951892876	0.0157715777691498	-0.0433684850044059	0.00429122539020144	-0.0105756794157743
0.31	1.79298604121292	1.52874714536319	637.445866153983	1.81646136491467	17.1146633257903	-0.19200350262471	0.162000666103238	0.00364053238336037	-0.00976373009225007
0.32	-0.325251088864985	1.35648977220958	633.667852779756	1.40529014470735	17.6089089379239	-0.357536118878178	0.323793994744992	0.00301199252352979	-0.00882632186544902
0.33	-2.16145389062572	1.2673345405081	631.662432210166	1.0525224291641	18.13855521231	-0.436590668614968	0.398329054436947	0.00246622361977944	-0.00791346193917153
0.34	-3.37654717221134	1.26764790741843	632.073080917323	0.789246059249271	18.6305120260324	-0.397813132727178	0.354985769621675	0.00205078230642397	-0.00716549603765376
0.35	-3.73790246428939	1.34486719931928	635.146690246189	0.630832286743488	19.0220775097967	-0.230281569432087	0.183541610498369	0.00179050957718363	-0.00668926232835743
0.36	-3.16575769155845	1.47526550045989	640.669171368771	0.574369525577054	19.2708199916824	0.0530402146294751	-0.102587045321588	0.00168321418939554	-0.00654019625817825
0.37	-1.74996692409673	1.63296484510678	647.986544587546	0.600014805281907	19.3604342101178	0.416887836648693	-0.46806727691273	0.00170122783910298	-0.00671434904920021
0.38	0.267004191125844	1.79711094380708	656.109399092442	0.675552298871295	19.3013896911428	0.810053210678457	-0.862017872762386	0.00179782737178324	-0.00715206288051418
0.39	2.53726193837822	1.9551944832601	663.880779599464	0.762786624665703	19.12643328763	1.1750806860104	-1.22758167102754	0.00191650826471701	-0.00775231822029193
0.4	4.674453190186	2.10216139601294	670.17434560201	0.824224552951175	18.882219044119	1.45907979888993	-1.51251725771867	0.00200082712894745	-0.00839430460909357
0.41	6.32601845620456	2.23658404890537	674.084152485372	0.828765847357892	18.6191734555494	1.62324041240339	-1.6784706410802	0.00200293201403534	-0.00896125051719593
0.42	7.23582012461315	2.35620394555899	675.070527845002	0.755649082076553	18.3819431675917	1.64908085941627	-1.70704530662056	0.00188967837091036	-0.00936135608204719
0.43	7.28533200608712	2.45525202817838	673.036964079979	0.596454186176099	18.2023866538206	1.54038009822186	-1.60169180612579	0.00164603259581109	-0.00954176794610256
0.44	6.50698606179456	2.52506742035156	668.327855132979	0.355369914583702	18.0962219238088	1.32084233371811	-1.38549038417057	0.00127602331911747	-0.00949351585531921
0.45	5.06937245090507	2.5579796609507	661.652762001909	0.0481127165992665	18.0634122342902	1.02849150080106	-1.09578992612314	0.000801709667394235	-0.0092475896944777
0.46	3.23933977674648	2.55278569321557	653.956382296293	-0.300139043531946	18.0914669919017	0.708352832235487	-0.77717386834711	0.00026056171885902	-0.00886426455537348
0.47	1.32975496570395	2.51913130326356	646.261977416379	-0.657557602820121	18.1602882446488	0.405061168385422	-0.474281959409586	-0.000298538831653428	-0.00841893862213078
0.48	-0.356569579374693	2.47821210417113	639.518259303511	-0.989102396150865	18.2471035076065	0.156708365055282	-0.225707106744549	-0.000820588309013437	-0.00798795276918207
0.49	-1.57646363048794	2.45852159488612	634.475597454968	-1.26047685169525	18.3303474986114	-0.00932046602048642	-0.0596813327653894	-0.0012508835069367	-0.00763719963167581
0.5	-2.18112276406359	2.48743399882333	631.608243969559	-1.44239355324913	18.3919312115111	-0.078362046715927	0.00824746049684379	-0.00154214963685295	-0.00741510133136392
0.51	-2.13095225284397	2.58136333598849	631.08765329261	-1.5147338867954	18.4179578757538	-0.0486263723929937	-0.024275834460484	-0.00166156229191627	-0.00735014508061022
0.52	-1.48974557315492	2.73820021307343	632.801026794047	-1.46997812058535	18.398418343307	0.0700197648829412	-0.147359524173278	-0.00159651383617831	-0.00745201218982616
0.53	-0.401666478560488	2.93519287309922	636.401724015595	-1.31517665000842	18.3265990068775	0.258155076147784	-0.340892896754669	-0.00135786309631047	-0.00771470292005128
0.54	0.942224432774682	3.13355637900497	641.375699665136	-1.07183105842731	18.1988363245449	0.489458315400358	-0.577360089276403	-0.000979654599268742	-0.00812005007208239
0.55	2.33973664218862	3.28861701067346	647.11048023713	-0.773390302005881	18.0149209706483	0.733742834056447	-0.825218311037074	-0.000514917749628419	-0.00864053584401286
0.56	3.60824985301711	3.36225243047408	652.958647369416	-0.460583416868153	17.7790252123372	0.960274309162433	-1.0526263649354	-2.80260969569568e-05	-0.00924113412139799
0.57	4.60566693359608	3.33360079759051	658.293750844277	-0.175356741148642	17.500655188341	1.14122870478633	-1.23124197655547	0.000415043422410166	-0.00988067934113002
0.58	5.24049735349475	3.20475090560567	662.560573120146	0.0454277385940225	17.1949478011576	1.25501546434102	-1.33970558007362	0.000756654119634992	-0.0105137268451419
0.59	5.47309062622572	3.00000558478411	665.322284378321	0.175295411701511	16.8817125385193	1.28905442469241	-1.36635948912407	0.000955712945532983	-0.0110938449475496
0.6	5.31169362998619	2.75950781033136	666.304362040057	0.201493676253946	16.5829534655789	1.24153933745512	-1.31077069611426	0.000992683585281262	-0.0115787591450692
0.61	4.80676575730309	2.52966435857488	665.430743184122	0.125912272298274	16.3191051325851	1.12179727464518	-1.1837549696328	0.000870815877826225	-0.0119369221193339
0.62	4.04526188711941	2.35335712245034	662.843885324482	-0.0362659002161307	16.1047255665668	0.949059632370118	-1.00582112788533	0.000613910344786528	-0.0121542080159416
0.63	3.14440043453326	2.26237340571223	658.899436075314	-0.259584627119692	15.9447372335964	0.749746342127218	-0.804218077772164	0.000261596413143605	-0.0122388632255304
0.64	2.24292181880596	2.27323862714093	654.129192733309	-0.512218440782928	15.8323545323509	0.553652487711567	-0.609011230979631	-0.000136666301308042	-0.0122228492776879
0.65	1.48778936357121	2.38632079905415	649.17253194417	-0.760059439945479	15.7495297102067	0.389638836932922	-0.448783047632559	-0.000527832738013934	-0.0121583711077771
0.66	1.01577809464405	2.58722085756319	644.684615109202	-0.970535157868543	15.6701445498221	0.28151319001998	-0.346609353453388	-0.000861132427066758	-0.0121095590895969
0.67	0.931827479235569	2.84929095954595	641.236771521372	-1.11596053130246	15.5654316453668	0.244735428788597	-0.316902160678157	-0.00109328537726283	-0.0121406375726836
0.68	1.2883686928456	3.1365216570391	639.228081054751	-1.17635703428301	15.4104447376984	0.284411801358692	-0.363552536348098	-0.00119296998732066	-0.0123030442703835
0.69	2.07104103486356	3.40667350798166	638.825949367592	-1.14163900578762	15.190023671223	0.394813870564506	-0.479593746748868	-0.00114434349748815	-0.0126244833356668
0.7	3.19564940025196	3.61502600679768	639.947552487452	-1.01293632741002	14.9027511042155	0.56041886298754	-0.64837942506784	-0.000949191282014206	-0.0131025909821946
0.71	4.5188853748491	3.71922253216346	642.285037821181	-0.802720412456872	14.5618840102714	0.758261083672578	-0.846068472092647	-0.000627134242174976	-0.0137048080943367
0.72	5.86188338084272	3.68534270642886	645.367813502236	-0.533441937135862	14.1930339933464	0.961228786230054	-1.04504809063482	-0.000213425817591983	-0.0143744839787142
0.73	7.0421820494216	3.4946547700181	648.647718187541	-0.234613558625016	13.829233661207	1.14184329051741	-1.21781876185111	0.000245734994665736	-0.0150416409550621
0.74	7.90723461172594	3.14974084703712	651.589192734963	0.0613774729912953	13.5046989729661	1.27601796682397	-1.34081634177015	0.000699869634245287	-0.0156356910527711
0.75	8.36203485255885	2.67815940249333	653.747396383198	0.324085936007491	13.248876371291	1.34631301508098	-1.39766082077536	0.0011018022535767	-0.0160970495039833
0.76	8.38484332353588	2.13180611665765	654.821855824127	0.529583214119611	13.0821766693086	1.34427205084256	-1.38139642126979	0.00141476163449361	-0.0163851107071312
0.77	8.02790584511482	1.58083203148496	654.680105963512	0.663898047263287	13.0142277363619	1.27153591139643	-1.29541244161624	0.00161761568231578	-0.0164812358261701
0.78	7.40353583189053	1.10232502316556	653.35291912731	0.724635496694263	13.044726273277	1.13956428448126	-1.15289319508782	0.0017072088113107	-0.016386844845744
0.79	6.65903827568951	0.765623361406339	651.008360960881	0.720463986312519	13.1662756693646	0.967951548189212	-0.974827623026955	0.00169738307893297	-0.0161179613614484
0.8	5.94603066334053	0.61755047021897	647.914857241005	0.668618311432848	13.3681551377944	0.78150328375815	-0.786809489699103	0.00161497397982147	-0.015698284078983
0.81	5.3905057110682	0.671447401040377	644.403253021184	0.590992573376115	13.6398648928283	0.606441861786304	-0.615065843224662	0.00149371006252463	-0.0151529142111155
0.82	5.0695282507055	0.903266076784237	640.834839396473	0.509685993478795	13.9735109370536	0.466304795918184	-0.482330659471848	0.00136735997520265	-0.0145043240578547
0.83	4.99895899246669	1.25622565338871	637.577605833506	0.442944521360014	14.364527436863	0.378229024736426	-0.404274744651629	0.00126356328041677	-0.013771235727476
0.84	5.13431519457999	1.65313566586021	634.988174685825	0.402295432274344	14.8107460641265	0.3503104063381	-0.387154025664904	0.00119953716450827	-0.0129700845182053
0.85	5.38416997558	2.01325153491132	633.393727319232	0.391347436482159	15.3102774763053	0.380554121010296	-0.427124431498848	0.00118034651296395	-0.0121179463804997
0.86	5.63285172605697	2.26923281977286	633.068012142984	0.40632128016801	15.8589697499983	0.457613401668252	-0.511331790282684	0.00119980615083592	-0.0112354106626246
0.87	5.76721593455462	2.37987437034734	634.198516791891	0.437997378355369	16.4482960716831	0.563135779775389	-0.620512237929575	0.0012435182653725	-0.0103479589584861
0.88	5.701438508364	2.33571494311094	636.847159646409	0.474507710128312	17.064391784484	0.675207775972818	-0.732540862835629	0.00129316708425553	-0.00948492288477654
0.89	5.39437684837255	2.15685628643254	640.912513112478	0.504302597085213	17.6886477938935	0.772198961374803	-0.826221213780765	0.00133105821326895	-0.00867588395249064
0.9	4.85594159793233	1.88455322371117	646.105409931234	0.518683486697731	18.299849946179	0.836289075553274	-0.884634673914225	0.00134398938187752	-0.00794522734445374
0.91	4.14164515429401	1.56962764707908	651.950110837248	0.513470049040538	18.8774312899106	0.856095735094737	-0.89753036349697	0.00132580892232659	-0.00730624004471603
0.92	3.33735633567354	1.26111183906439	657.819470391409	0.489607525499627	19.405077418942	0.8280487724016	-0.862468942819603	0.00127837204031378	-0.00675647166750371
0.93	2.53857999177558	0.997782676277322	663.005493617356	0.452760662036842	19.8737771947065	0.75641651949074	-0.784675129443171	0.00121095684419137	-0.00627595896216626
0.94	1.82972714990235	0.803835717834833	666.818121226831	0.412133286852478	20.283488272152	0.652126001208692	-0.675760293010927	0.00113847999066652	-0.0058293590242236
0.95	1.26855309666342	0.688471538619458	668.697220152866	0.378861151467459	20.642885548406	0.530695397863445	-0.551623943276023	0.00107900709743214	-0.00537214494410032
0.96	0.879279258767114	0.648151631838824	668.317555394981	0.364334337222067	20.9671223887371	0.409690856633864	-0.429920031086974	0.00105106935952526	-0.00485997394649917
0.97	0.655305863932509	0.669979451003249	665.6652643562	0.378724712492502	21.2740522892076	0.306124666997605	-0.327478910636552	0.0010711955090621	-0.00425937834845097
0.98	0.569580531788383	0.73499484725611	661.067496254997	0.429859860390252	21.5797988910561	0.234141510761028	-0.258018284950911	0.00115190067561932	-0.00355730395857268
0.99	0.58844754403039	0.820822280269069	655.164083408461	0.522450913794208	21.8947987423998	0.203227146083538	-0.230380467962583	0.00130021182788331	-0.00276693836121078
1	0.683884076095933	0.903717862854586	648.820362357846	0.657600826980484	22.2213911022406	0.217063514823386	-0.247433402097531	0.00151671729164338	-0.00192784132976304
1.01	0.839800634931254	0.960374098177639	642.991929608671	0.832522512378011	22.5536795721915	0.273083075397536	-0.305701277316861	0.00179513469106285	-0.00109956860742466
1.02	1.05039045825935	0.969825862292761	638.563038387002	1.04047404533314	22.8798093237802	0.362754036248581	-0.395759594794269	0.00212247362058915	-0.000349552092969385
1.03	1.31165895331029	0.915584846334215	636.188071759966	1.27102041802906	23.1861323209594	0.472631392444673	-0.503419507376566	0.00247995313212301	0.000262404860870813
1.04	1.61016652658436	0.787889053941806	636.16782016794	1.51078622279041	23.4621580895013	0.586182982045136	-0.611690709793776	0.00284482931187857	0.00069948616477522
1.05	1.91454408011793	0.58579847313684	638.387783088518	1.7448134440474	23.7048938094125	0.686294559289506	-0.70340387151884	0.00319313693268408	0.000959199327371929
1.06	2.17473668078488	0.318795690407405	642.334545177114	1.95847296417565	23.9212861275793	0.75816420738765	-0.764182462048307	0.00350306634884134	0.00107751084744806
1.07	2.33118565858321	0.00749512950273242	647.190372919022	2.13964638701392	24.1279920770897	0.792071097883898	-0.785232639060038	0.00375837579646054	0.00112426390450548
1.08	2.33211716333437	-0.317007335274858	651.988996118287	2.28068812010897	24.3484934404917	0.785356367898611	-0.765275424005694	0.00395101758374528	0.00119058919311343
1.09	2.15323231100967	-0.615637496898037	655.801278881452	2.37959508157375	24.6083854090046	0.742995946695274	-0.710989915363437	0.00408215967644054	0.00137118933393021
1.1	1.81196164081462	-0.846028640496217	657.911968392988	2.43991962203254	24.9302434983021	0.676425167686183	-0.635623160412994	0.00416107297704849	0.00174582753190849
1.11	1.36913399765687	-0.969255488296939	657.95024867338	2.46926591688606	25.3295961130537	0.600740241022135	-0.555903540029148	0.00420189570395535	0.00236460334251976
1.12	0.914555443869994	-0.957748250802284	655.947417663478	2.47664344681485	25.813143585559	0.530908390389631	-0.487926364183971	0.00421894837262649	0.00324052933015373
1.13	0.538646250435443	-0.802741845661638	652.312134750711	2.46938127800517	26.3795836847677	0.477986770808334	-0.443075757870357	0.00422185152070786	0.00435082597520492
1.14	0.298105981728479	-0.519145869121888	647.732884133934	2.45057210499771	27.022489129402	0.446435401410358	-0.425148610816324	0.0042119705933279	0.00564586411302054
1.15	0.187376515088406	-0.145880214682547	643.033396560768	2.41798122676979	27.7339554254466	0.433357513714465	-0.429588419836844	0.00418151584234938	0.00706258547658639
1.16	0.127663177061735	0.259365437482168	639.015496642692	2.36497788059605	28.5074661026928	0.429970436957174	-0.445172220607379	0.00411593719985126	0.00853818874541001
1.17	-0.0191621604231426	0.630490042976209	636.32321884963	2.28340721014204	29.3387217010821	0.424954423495484	-0.457780675444868	0.00399923437444083	0.0100201963934245
1.18	-0.412310833043926	0.906352904010638	635.352999491428	2.16761948714233	30.2239583074027	0.40874406982163	-0.455234019393016	0.00382076413766153	0.0114705635724214
