Time [s]	GRFml [N]	GRFap [N]	GRFv [N]	Mml [N.m]	Map [N.m]	Mv [N.m]	Mfree [N.m]	COPml [m]	COPap [m]
0.01	13.1685606121331	-18.5939551664936	614.354740968995	-65.8333993791452	8.94817483858024	1.14284484079714	2.82427808307507	0.00278756401944032	0.0109089153644763
0.02	13.0844039127977	-17.7830727827927	615.221605837791	-65.560489077329	8.76671626365449	1.01701644066373	2.66451935654512	0.00247755188538704	0.0103286608753836
0.03	13.0026713404413	-16.9894523133462	616.070439366811	-65.2920826870731	8.58819395259444	0.893734149049968	2.50860161339397	0.00217186951147474	0.00975802786678048
0.04	12.9252179547188	-16.2287830722128	616.885300370793	-65.0323003568346	8.41560143368418	0.775346674759822	2.35945557902647	0.00187572472866953	0.00920634195028384
0.05	12.8537119430378	-15.5156059981878	617.651426145829	-64.784900284387	8.25174605658063	0.664025663539679	2.21974658010692	0.00159404811181587	0.00868218897755001
0.06	12.7895570991965	-14.8627247561807	618.355821701991	-64.5531384462472	8.09914859173389	0.561678825784892	2.09177287415288	0.00133130704364849	0.00819308132187509
0.07	12.7338316970684	-14.2807093559069	618.98776176737	-64.339653059113	7.95995527692886	0.469877311045494	1.97738488064466	0.00109133889757045	0.00774517621956448
0.08	12.6872475746165	-13.7775177391484	619.539180183837	-64.1463793203791	7.83586619005094	0.389801019449334	1.877928563209	0.000877212035237643	0.00734306099262697
0.09	12.6501317662441	-13.358252819443	620.00492822035	-63.9744981427544	7.72808295305643	0.322204308543145	1.79421456167637	0.00069112171125707	0.00698961580718235
0.1	12.6224313936113	-13.0250636847172	620.382891161608	-63.8244205760023	7.63727774609653	0.267403215157918	1.7265131161219	0.000534325839265814	0.00668595975437758
0.11	12.6037408780402	-12.777190753705	620.673960755992	-63.6958075433897	7.56358449852374	0.225283969030051	1.67457345415114	0.000407123096293959	0.00643148087365164
0.12	12.5933490014273	-12.6111462307692	620.881869199737	-63.5876225566112	7.50661199730849	0.195331322981648	1.63766517704364	0.000308873256912427	0.00622394569182082
0.13	12.5903020348927	-12.5210137711	621.0128978039	-63.49821334179	7.46547758464228	0.176674143787861	1.61463829507427	0.000238057188578247	0.0060596793175068
0.14	12.5934781709794	-12.4988452782528	621.075479910803	-63.4254169172403	7.43885916935557	0.168144859531029	1.60399792084102	0.000192371808815379	0.00593380343195263
0.15	12.601667902126	-12.5351285053945	621.079722656681	-63.3666816855646	7.42506250297006	0.168348782473348	1.60398921624275	0.000168853654219115	0.00584051687951082
0.16	12.6136548165908	-12.6192967749236	621.036875576948	-63.3191995768272	7.42210010659693	0.175739037879171	1.61268798903154	0.000164023625015285	0.00577340209700611
0.17	12.6282915276884	-12.7402516814284	620.958775688609	-63.2800412077946	7.42777789785182	0.188692823856687	1.62809233896521	0.000174044962822596	0.00572574033200197
0.18	12.6445660728543	-12.8868709829738	620.857298541165	-63.2462873724688	7.43978545852087	0.205584981279037	1.64821095637032	0.000194886548978292	0.00569081938894084
0.19	12.66165504549	-13.0484767872351	620.743842891242	-63.215150891014	7.45578598930011	0.224855327039445	1.6711440722668	0.000222484087704523	0.00566221933756646
0.2	12.6789608623215	-13.2152432885121	620.628873314057	-63.1840838365999	7.473502290247	0.245066848283055	1.69515363789304	0.000252892549547456	0.00563406400164047
0.21	12.6961318170379	-13.3785283399479	620.521540487942	-63.1508663396175	7.49079554829791	0.264952613626562	1.71872004987499	0.000282424278403011	0.00560122888090478
0.22	12.7130648200034	-13.5311186582602	620.429393412426	-63.1136744400131	7.50573426493755	0.283450071839318	1.74058359853815	0.000307768304322602	0.00555949921460167
0.23	12.729891874535	-13.6673840668469	620.358191824124	-63.071125730106	7.51665127530914	0.299722223535915	1.75976975042602	0.000326087570739151	0.005505674963559
0.24	12.746952310131	-13.7833415297111	620.31182095296	-63.0223027230471	7.52218745441541	0.313165917436613	1.77559832154297	0.000335091921429375	0.0054376223971571
0.25	12.7647535230276	-13.8766345090738	620.292304900559	-62.9667549336715	7.52132134120549	0.323408198364233	1.78767749104619	0.000333085765940717	0.00535427458683037
0.26	12.7839234327729	-13.9464371587676	620.299909675135	-62.9044815259332	7.51338450864096	0.330292188071415	1.79588438539185	0.000318990336248146	0.00525558533145842
0.27	12.8051580464813	-13.9932958866678	620.333322578657	-62.8358970413593	7.49806304631558	0.333854391766422	1.80033457990787	0.000292341355150764	0.00514244280749647
0.28	12.8291674523214	-14.0189228062792	620.389891432697	-62.7617831714315	7.4753859885938	0.33429558319239	1.8013432836487	0.000253263753179829	0.00501655051206612
0.29	12.8566232839006	-14.0259565505196	620.465905181199	-62.6832297843391	7.44570190926398	0.331947529833401	1.79938117811479	0.000202425787152382	0.0048802838397127
0.3	12.8881102649366	-14.0177059075065	620.556896758668	-62.6015684854925	7.40964521284758	0.327237786755496	1.79502787418962	0.000140975516764343	0.00473653091533749
0.31	12.924083922314	-13.9978908805236	620.657949704639	-62.5183019110108	7.36809388658913	0.32065462964279	1.78892575515396	7.04630693327355e-05	0.00458852613090079
0.32	12.9648360064894	-13.9703942321861	620.763991698649	-62.4350317566405	7.32212064180867	0.312713937312665	1.78173662144173	-7.24754902866297e-06	0.0044396842564098
0.33	13.0104686330315	-13.9390345272033	620.870060773884	-62.3533882632574	7.27293947552935	0.303929497748589	1.77410308854669	-9.00731661442021e-05	0.00429344208934797
0.34	13.0608776949907	-13.9073693250181	620.97153318383	-62.2749635432507	7.22184972926066	0.294787827797824	1.7666161607149	-0.000175808739196454	0.00415311345833924
0.35	13.1157457125049	-13.8785346695928	621.064305462344	-62.2012507640266	7.17017971605538	0.285728193675294	1.75978985629781	-0.00026222343281198	0.0040217621021791
0.36	13.1745439857715	-13.8551245346903	621.144926852189	-62.1335908246688	7.11923193188267	0.27712812440286	1.7540432373406	-0.00034715195711117	0.0039020956011504
0.37	13.236543687577	-13.8391115369961	621.210681722531	-62.0731277833842	7.07023176333162	0.269294347513173	1.74968972954608	-0.000428578032410535	0.00379638223355827
0.38	13.3008353490282	-13.831808122435	621.259624636268	-62.020773926197	7.02428144958015	0.262458765815058	1.74693323287067	-0.000504707320773307	0.00370639144203494
0.39	13.3663560297909	-13.8338656273848	621.290573201679	-61.9771850173703	6.98232085091382	0.256778850626497	1.74587023115676	-0.000574027694105084	0.00363335757657197
0.4	13.4319232969317	-13.8453071518319	621.303065648756	-61.9427459426235	6.94509631822806	0.252341659618608	1.74649691521331	-0.000635355268845639	0.00357796576611637
0.41	13.4962749470564	-13.8655890678385	621.297291168003	-61.9175666491973	6.91313864954502	0.249170599058219	1.74872023313908	-0.000687865208335756	0.00354035816569644
0.42	13.5581131893798	-13.8936852183586	621.274001454117	-61.901488003174	6.88675076576142	0.247234037469823	1.75237176348942	-0.000731106860929261	0.00352015841778824
0.43	13.6161517709332	-13.9281874210602	621.234411671644	-61.894096924949	6.86600534805499	0.246454931711264	1.75722335581552	-0.000765003354782759	0.00351651192484113
0.44	13.6691642907101	-13.967415755214	621.180098304509	-61.8947499293686	6.85075226759653	0.246720733792785	1.76300358163724	-0.000789836301674457	0.00352813941451929
0.45	13.716031748603	-14.0095322494102	621.112900191698	-61.9026039893353	6.84063522255959	0.247892990931193	1.76941416929793	-0.000806216765348103	0.00355340124764349
0.46	13.7557872439906	-14.0526519750494	621.034827626482	-61.9166534629691	6.83511659908676	0.249816214264734	1.77614574208661	-0.000815044116236388	0.00359036993268434
0.47	13.7876557131331	-14.0949461554626	620.947982848154	-61.935771677835	6.83350921455461	0.25232575553514	1.78289232688087	-0.000817454812318345	0.00363690834137188
0.48	13.8110867019555	-14.1347326919782	620.854493718179	-61.9587556551795	6.83501330541132	0.255254579962892	1.78936424018179	-0.000814763500004567	0.00369075115189724
0.49	13.8257784261369	-14.1705504524648	620.756460965577	-61.9843723867551	6.83875690772421	0.258438944949182	1.79529908325715	-0.000808399101138044	0.00374958707714007
0.5	13.8316917716094	-14.2012147272051	620.655918205707	-62.0114050506949	6.84383766149794	0.261723079975671	1.80047068505013	-0.000799838723223341	0.00381113947464115
0.51	13.8290534152748	-14.2258523889681	620.554803050359	-62.0386975741876	6.84936405872458	0.264963009895857	1.80469592016689	-0.000790542282254555	0.00387324299931953
0.52	13.8183478605073	-14.2439164513787	620.454937071816	-62.0651960210613	6.85449425157609	0.268029673342341	1.80783940111918	-0.00078189064803384	0.00393391406817578
0.53	13.8002988339592	-14.2551808502445	620.35801216263	-62.0899854014658	6.85847073493716	0.270811466116765	1.80981610152012	-0.000775129905144663	0.00399141307469843
0.54	13.7758411207283	-14.2597173217874	620.265580917785	-62.1123206660127	6.86064950292224	0.273216295328017	1.81059201274006	-0.00077132397285367	0.00404429652906491
0.55	13.7460844647928	-14.2578571651064	620.179049000151	-62.1316508530828	6.86052263201824	0.275173174727338	1.81018297289336	-0.000771317358932001	0.0040914576093848
0.56	13.7122715782162	-14.2501414026887	620.099667956162	-62.1476355986243	6.85773363918478	0.276633336564833	1.80865183562983	-0.000775709260987372	0.00413215398110493
0.57	13.675732546921	-14.2372633491863	620.028527537999	-62.1601534841257	6.8520853741202	0.277570790685091	1.80610416818071	-0.0007848396087106	0.0041660221608612
0.58	13.6378379725832	-14.2200078338891	619.966547172735	-62.1693019810997	6.84354060315809	0.277982235477312	1.80268268426396	-0.000798787002227372	0.00419307814761231
0.59	13.599953050819	-14.1991912811621	619.914466721414	-62.1753890395233	6.83221580213213	0.277886222453047	1.79856062852526	-0.000817377889189834	0.00421370449678274
0.6	13.5633944785382	-14.175606538976	619.872837037241	-62.1789166537425	6.81836897543618	0.277321497736115	1.79393433605499	-0.000840205778889018	0.00422862445324215
0.61	13.5293916502945	-14.149975781766	619.842011035657	-62.180557013612	6.80238254267599	0.27634448712127	1.78901519426035	-0.000866658852757432	0.00423886417113524
0.62	13.4990531004388	-14.1229140425418	619.822136034575	-62.1811221035112	6.78474247400132	0.275025951064902	1.78402123619841	-0.00089595402527177	0.00424570442250083
0.63	13.4733386371281	-14.0949050093472	619.813148042104	-62.1815278409196	6.76601490907102	0.273446904384051	1.77916859554665	-0.000927175353445756	0.0042506235261399
0.64	13.4530371565179	-14.0662897240554	619.814768513216	-62.1827540441249	6.74682146839597	0.271693963976432	1.7746630545683	-0.000959314688946084	0.0042552335098037
0.65	13.4387497725432	-14.0372678249108	619.826503925715	-62.1858016807806	6.72781437139658	0.269854348173266	1.77069191808021	-0.000991312602425982	0.00426121174955303
0.66	13.4308776859863	-14.007910056155	619.847648395535	-62.1916489712062	6.70965232931944	0.268010796289102	1.76741644825282	-0.00102209786043104	0.00427023050588059
0.67	13.4296141629027	-13.9781799996632	619.877289502344	-62.2012079982347	6.6929780021889	0.266236701431012	1.7649650960578	-0.00105062406709828	0.00428388689014751
0.68	13.4349400922992	-13.9479624227488	619.914317545892	-62.215283504409	6.67839761670858	0.26459175097473	1.76342776364859	-0.00107590245637936	0.00430363583759369
0.69	13.4466228207518	-13.9170953223796	619.95743859144	-62.234535532308	6.66646315443816	0.26311834708608	1.76285132570147	-0.00109703019559673	0.00433072862329038
0.7	13.4642182740511	-13.8854026956958	620.00519185335	-62.2594474794062	6.65765735141271	0.261839036305699	1.76323662422211	-0.00111321390178628	0.00436615932351012
0.71	13.4870767167158	-13.852725272316	620.055972154292	-62.2903009902029	6.65238161202381	0.260755116422769	1.76453712795634	-0.001123788350526	0.00441062138803314
0.72	13.5143528068188	-13.8189468743146	620.108058318663	-62.3271588917854	6.65094683683845	0.259846515877042	1.76665941203383	-0.00112823055557289	0.00446447614470537
0.73	13.5450208147929	-13.7840146734167	620.159648349856	-62.3698570935166	6.65356709649063	0.259072961762342	1.76946556414995	-0.0011261695113569	0.0045277346089747
0.74	13.5778959386421	-13.7479523253823	620.208902053015	-62.4180060201094	6.66035604776843	0.258376373392463	1.77277755975861	-0.00111739192547764	0.00460005342947828
0.75	13.6116625285068	-13.7108657043637	620.253991372426	-62.4710017381326	6.67132597596258	0.257684345257196	1.77638357099586	-0.00110184424080302	0.00468074518623883
0.76	13.6449097171006	-13.6729416609056	620.293158120532	-62.5280464832295	6.68638934965982	0.256914521186319	1.78004608448879	-0.00107963117933084	0.00476880259910237
0.77	13.676174450851	-13.6344408198787	620.324778020087	-62.5881778196721	6.7053627799498	0.255979614618616	1.78351160558031	-0.00105101095853057	0.00486293553586202
0.78	13.7039912671996	-13.5956858675043	620.347429127473	-62.6503051918425	6.72797327573585	0.254792800531274	1.78652162618475	-0.00101638726064533	0.00496161907160728
0.79	13.7269474271042	-13.5570470180835	620.359961840379	-62.713252189911	6.75386667289372	0.253273193663874	1.78882443723962	-0.000976297997451725	0.00506315028439816
0.8	13.7437412662735	-13.5189263917658	620.361566914862	-62.7758024827552	6.78261808295383	0.251351134338964	1.79018728224387	-0.000931400921423813	0.00516571101715432
0.81	13.7532409609744	-13.4817428874318	620.351837322924	-62.8367471028626	6.81374415605606	0.248973025073929	1.7904082836856	-0.000882456194815324	0.00526743352692481
0.82	13.7545404003962	-13.4459188315088	620.330819457898	-62.8949306294539	6.84671688615948	0.24610549471614	1.78932753678152	-0.00083030613767931	0.00536646580818044
0.83	13.7470085923189	-13.4118692706343	620.299049205461	-62.9492938289049	6.88097861017896	0.242738707701712	1.78683676102473	-0.000775852523059426	0.00546103343390851
0.84	13.7303290561876	-13.3799943080717	620.2575687784	-62.9989104868621	6.91595777553945	0.238888679796727	1.78288693353936	-0.000720031955048009	0.00554949501205809
0.85	13.7045260032805	-13.3506744169359	620.207920966136	-63.0430165026931	6.95108498245465	0.234598504412924	1.77749340031699	-0.000663790031900095	0.00563038879628248
0.86	13.6699747602597	-13.3242682494659	620.15211854438	-63.0810297987151	6.98580875782748	0.229938432494473	1.77073807003987	-0.000608055139779712	0.00570246859542578
0.87	13.6273948191956	-13.3011121432276	620.092587964019	-63.112560194989	7.01961049548299	0.225004782769525	1.76276843518268	-0.000553712822703617	0.00576472785833849
0.88	13.5778250229886	-13.2815203316163	620.032088002579	-63.137409074331	7.05201800855724	0.21991768823941	1.75379332843403	-0.000501581714855754	0.00581641161976658
0.89	13.5225816253503	-13.2657848116195	619.973605708237	-63.1555593614889	7.08261718720642	0.214817711028465	1.74407549909635	-0.000452391992912488	0.00585701682044586
0.9	13.4632011908391	-13.2541739052412	619.920233576497	-63.1671570100172	7.11106133770314	0.20986138405552	1.73392127272659	-0.000406767206003167	0.00588628229627501
0.91	13.4013714122433	-13.2469287565777	619.875033352509	-63.1724857748254	7.13707789309198	0.205215767653558	1.72366772640628	-0.000365210174922501	0.00590417040352671
0.92	13.3388538185919	-13.2442573065484	619.840893035171	-63.1719374969927	7.16047232310345	0.201052144996917	1.71366796095347	-0.000328093433058087	0.00591084275088864
0.93	13.2774029458019	-13.2463256454314	619.820384476189	-63.1659803991627	7.18112922139935	0.197539023441923	1.70427517088586	-0.000295654428116212	0.00590663279717503
0.94	13.2186867900765	-13.2532470189665	619.815629345911	-63.1551279573967	7.19901069904509	0.194834659182763	1.6958262957903	-0.000267995439040646	0.00589201811462592
0.95	13.1642132414367	-13.2650691162422	619.828181135	-63.1399107684458	7.21415235139058	0.193079377278911	1.68862607799956	-0.000245087910854655	0.00586759490119157
0.96	13.1152667156086	-13.2817605604553	619.858930266819	-63.1208534782433	7.22665717910989	0.192388013264535	1.68293234851167	-0.000226780694402993	0.00583405686364899
0.97	13.0728584137352	-13.3031977282835	619.908038333761	-63.0984583048548	7.23668792302684	0.192842849622771	1.67894331558986	-0.000212811516841313	0.00579217992302634
0.98	13.0376926148185	-13.3291531216194	619.974905999224	-63.073196020823	7.24445830999907	0.194487452868369	1.67678754031452	-0.00020282091450723	0.00574281337256148
0.99	13.0101502381176	-13.359286499964	620.058177312518	-63.0455045129453	7.25022370133733	0.197321827352344	1.67651715447719	-0.000196367836930663	0.00568687722159174
1	12.9902897040027	-13.3931398577072	620.155781178413	-63.0157942778153	7.25427158854449	0.201299283837538	1.67810471457483	-0.000192946175290018	0.00562536457258135
1.01	12.9778639733822	-13.4301371131601	620.265008634212	-62.984459507682	7.25691230073267	0.206325370207584	1.68144389917273	-0.000192001568964401	0.00555934709208761
1.02	12.9723516490582	-13.4695890891571	620.382622550405	-62.9518928386756	7.25847018498074	0.212259127154232	1.68635405520945	-0.000192947982205972	0.00548998103321909
1.03	12.9729992503693	-13.5107040370913	620.504994518206	-62.9185014280778	7.25927540884032	0.218916815612443	1.69258839300994	-0.000195183697836157	0.00541851091613679
1.04	12.9788712743763	-13.5526036177688	620.628262137442	-62.8847218399617	7.25965642790354	0.226078120943437	1.69984543184588	-0.000198106523806274	0.0053462679217777
1.05	12.9889044543677	-13.5943439318786	620.748498768109	-62.8510312709382	7.25993307467224	0.233494680542493	1.70778311996428	-0.000201128131021813	0.00527466032245433
1.06	13.0019627134328	-13.6349409135252	620.861887125676	-62.8179529400934	7.26041016910447	0.240900618362526	1.71603490642606	-0.000203687521224766	0.0052051538514407
1.07	13.0168896552754	-13.6733991782122	620.964887918011	-62.7860539776781	7.26137153312947	0.248024614988422	1.72422693640398	-0.000205263652827794	0.00513924076214438
1.08	13.0325559831116	-13.708743259663	621.054395039616	-62.7559348336298	7.2630743128313	0.25460290879723	1.73199548365528	-0.000205387229034367	0.00507839737892907
1.09	13.0478999223397	-13.7400500775385	621.127869623111	-62.7282100309207	7.26574356899125	0.260392524727325	1.73900372724694	-0.000203651582857874	0.00502403110756484
1.1	13.0619594683845	-13.7664814433648	621.18344643642	-62.7034809400655	7.26956718006467	0.265183972258174	1.74495702417653	-0.00019972249122197	0.00497741905143284
1.11	13.0738960130462	-13.7873154231208	621.220007623116	-62.6823020750238	7.27469119808495	0.268812650048445	1.74961592165374	-0.000193346633820392	0.00493964146323128
1.12	13.0830095543945	-13.8019754183787	621.237220514923	-62.6651431341768	7.28121589155174	0.271168243990733	1.75280628576898	-0.000184358303270824	0.00491151414931501
1.13	13.0887462149249	-13.8100558908348	621.235538095771	-62.6523495684427	7.28919278373282	0.272201506662213	1.75442608801539	-0.000172683892869986	0.00489352454746725
1.14	13.0906991477597	-13.8113437278404	621.216162563675	-62.6441048014208	7.29862303535621	0.271927953581583	1.754448577134	-0.000158343655968953	0.00488577645353015
1.15	13.0886040902671	-13.8058343243278	621.180974225575	-62.6403973216397	7.30945751646302	0.270428195899357	1.75292175990742	-0.000141450260811889	0.00488794824068596
1.16	13.082330839317	-13.793741540183	621.132429588933	-62.6409957034029	7.32159885758064	0.267844837682207	1.74996430987203	-0.000122203764153683	0.00489926889163707
1.17	13.0718718022579	-13.7755007881214	621.073433915073	-62.6454342008396	7.33490566593043	0.264376084162542	1.74575820718631	-0.0001008827958508	0.0049185152750989
1.18	13.0573285664545	-13.7517646264673	621.007194622062	-62.6530109302806	7.34919894510653	0.260266419423908	1.74053857688987	-7.78319764699557e-05	0.00494403290067794
