Time [s]	GRFml [N]	GRFap [N]	GRFv [N]	Mml [N.m]	Map [N.m]	Mv [N.m]	Mfree [N.m]	COPml [m]	COPap [m]
0.01	-0.66375684024285	1.4280209074377	610.7585804152	10.6667865711433	-3.57951397016053	0.825429855615457	-0.828661612152708	0.00030608849144198	0.00909567640668235
0.02	-0.800818478764201	1.37544428768891	611.128242304553	10.6104213304529	-3.55357219966603	0.855381634795117	-0.861260955985288	0.000202779912273354	0.00913878817121738
0.03	-0.92711099732151	1.32897907360705	611.455922406115	10.5607216025387	-3.52510539578222	0.881471286741076	-0.889790426181251	0.000111533103935524	0.00918547387400637
0.04	-1.03402051584583	1.29358108201233	611.706900824689	10.5231248158496	-3.4924855737734	0.901051960705998	-0.911436429304778	4.22101275019404e-05	0.00923794508017411
0.05	-1.11637728404436	1.27259224998808	611.861745259731	10.5009787785978	-3.45536906225562	0.913229260091876	-0.925202529910076	8.37662055164223e-07	0.00929651288378863
0.06	-1.17323069893142	1.26766306792437	611.919226395397	10.4950808642414	-3.41476546262787	0.918883607943887	-0.931944910423305	-1.12341080308331e-05	0.00935951288118203
0.07	-1.20766416580546	1.27898449412472	611.894942386853	10.5037519335685	-3.37270698141138	0.920098731342603	-0.933796496265879	2.81755607633993e-06	0.0094238267811414
0.08	-1.22567534712319	1.30555575859842	611.816427769153	10.5233969461133	-3.33167409242427	0.919256001411489	-0.933241292136955	3.63324713400504e-05	0.00948575473075303
0.09	-1.23439480722405	1.34526881983568	611.716396113724	10.5493938879567	-3.2939798804467	0.918169955847578	-0.932219945969595	8.08080008886103e-05	0.00954192902450446
0.1	-1.2401215613216	1.39477622883501	611.62600528745	10.577093425485	-3.26128076183542	0.917596525563243	-0.931606270206795	0.000127729371842356	0.0095900212277969
0.11	-1.24675814407287	1.44930962210911	611.56967156627	10.6027096145182	-3.23430626044822	0.91726867432561	-0.931218352711737	0.000170185891331553	0.00962911391937582
0.12	-1.25517195394557	1.50272013146617	611.562259058964	10.6239257839204	-3.21282966793162	0.916384358030612	-0.930296546403634	0.000203956384947301	0.00965971503012003
0.13	-1.26375904039585	1.54796826909539	611.608749236572	10.6401126218528	-3.19585974679304	0.914286679298299	-0.928191479260496	0.00022788531227047	0.00968344997271997
0.14	-1.27007099673223	1.57812107881962	611.705959451599	10.6521427168174	-3.18201865410839	0.911010738443323	-0.92493360841788	0.000243530667091374	0.00970248160335385
0.15	-1.27290649336075	1.58769274627451	611.845577758602	10.6618741292398	-3.17006146713075	0.907448128904303	-0.921425676858189	0.000254222111101265	0.00971871741879676
0.16	-1.27395787538564	1.57398078569116	612.017656948606	10.6714494755534	-3.15946646175468	0.90506028604352	-0.919175560873049	0.000263797077140415	0.0097329031532315
0.17	-1.27812422660693	1.53797374698589	612.213693889358	10.6825985282056	-3.15097931814841	0.905275517720035	-0.919691710012413	0.000275354250107607	0.00974377745419974
0.18	-1.29202887527884	1.48447007182182	612.428492167636	10.6961272191534	-3.14695056283854	0.908843676552122	-0.923809801816789	0.000290353766947304	0.00974753757297503
0.19	-1.32100411042523	1.4212405196267	612.660201912919	10.7117217300384	-3.1513008524429	0.915439277347379	-0.931247615944849	0.000308296614762615	0.00973787994364089
0.2	-1.36555332250731	1.357340207303	612.908300033715	10.7281060389195	-3.16901299018986	0.923694549649899	-0.940587011410374	0.000327053008913225	0.00970678254515472
0.21	-1.41873327954881	1.30095530297749	613.169827613978	10.7434901619049	-3.20518293161368	0.931658641400048	-0.949702058977192	0.000343723810997232	0.00964598664465632
0.22	-1.46577369035752	1.2573666499641	613.434862379238	10.7561644655945	-3.2638259291358	0.937499006607052	-0.95646831943441	0.000355763339161652	0.00954887526296544
0.23	-1.48654925058604	1.22765131170462	613.682782494543	10.7650586104588	-3.34676298812691	0.940161938035245	-0.959476342409488	0.000362014815673883	0.00941223933116137
0.24	-1.46048047815513	1.20858349123699	613.881097296827	10.7701042568958	-3.45294284538543	0.939730004124733	-0.958476054005438	0.000363339337259627	0.00923737263357577
0.25	-1.37247048806774	1.19385921490804	613.988228159626	10.7723111214192	-3.57845426531307	0.937341748726948	-0.954391776513783	0.000362649800660253	0.00903009317589515
0.26	-1.21798381317878	1.17634377853091	613.960551301565	10.7735599288369	-3.71727325950406	0.934716689441868	-0.948919770230228	0.000364350058514318	0.00879961813781188
0.27	-1.00555434130643	1.15066700942122	613.762505516866	10.7761985507316	-3.86254019120102	0.933481999462671	-0.943879644115856	0.000373361479470757	0.00855661027634907
0.28	-0.755810494330248	1.11531443287122	613.377153836633	10.7825714863141	-4.00796749911697	0.934565851434148	-0.940575068481181	0.000394032348275064	0.00831101607085877
0.29	-0.49722405205172	1.07347450365523	612.813898094767	10.7946084745172	-4.14892105102381	0.937883597188378	-0.939399240529099	0.00042923642788506	0.00807040367273065
0.3	-0.259816218797423	1.03229260188759	612.11051021255	10.8135555634292	-4.282828693609	0.942418553202961	-0.939811206096918	0.000479880324039672	0.00783933386084723
0.31	-0.0686425257485217	1.00072621577226	611.328249069757	10.8398733152777	-4.40881405591465	0.946643361582796	-0.940659487952044	0.000544892716545675	0.00761991533898099
0.32	0.0611390486710912	0.986692131880773	610.541057829616	10.873275066871	-4.52674185600786	0.949103205765341	-0.940700653250009	0.000621616430580563	0.00741324890477102
0.33	0.126381850851223	0.994450750679309	609.821844191924	10.9128493037556	-4.63608134894295	0.948934113182854	-0.93910044144822	0.000706418366762662	0.00722112702458155
0.34	0.134906962319454	1.0230822401695	609.229831833522	10.9572092457591	-4.73505990380789	0.946130414403415	-0.935730882215004	0.000795304184713297	0.00704726060320021
0.35	0.101881892337291	1.06651196667602	608.802529426587	11.0046338690564	-4.82046328337179	0.941482308993731	-0.931170656805256	0.000884375777527757	0.006897490965873
0.36	0.044869176873765	1.11500108287118	608.554173872217	11.0531946880752	-4.88819046562037	0.936231578583772	-0.926435522112859	0.000970071760269309	0.00677883604228946
0.37	-0.0209571180301337	1.15754658470887	608.480248169372	11.1008868785842	-4.93438872941991	0.931591920538501	-0.922563315987058	0.00104923877634511	0.00669765832718244
0.38	-0.0861226591480042	1.18440535052363	608.565723755439	11.1457910220445	-4.95678786340514	0.928317190794502	-0.920220054457697	0.00111915051724154	0.00665755907969034
0.39	-0.147925334935267	1.18902792827319	608.793716469662	11.1862800257984	-4.95579214822777	0.926469267123859	-0.919470926145069	0.00117759745516144	0.0066576885387099
0.4	-0.209204004301727	1.1689921969298	609.151510127605	11.2212599272484	-4.93498315714713	0.925455504399545	-0.919788197909825	0.00122311639823913	0.00669200571454304
0.41	-0.275401048690082	1.1259126241523	609.632145258696	11.2504039351176	-4.90088428127381	0.924306956573568	-0.920277923726757	0.00125534138930494	0.0067497060422782
0.42	-0.350966842803787	1.06460700084207	610.231437679144	11.274317902495	-4.86205819254221	0.92208730598945	-0.920031745243178	0.00127537302341429	0.00681668938968477
0.43	-0.436287085388944	0.991928608450402	610.941786620065	11.2945715397287	-4.82777746994975	0.918283746302391	-0.918472862880449	0.00128601473047507	0.00687768046650022
0.44	-0.526108909342774	0.915610359288399	611.745043799994	11.3135470037869	-4.80658679561825	0.913044136431991	-0.915575296744077	0.00129172971723324	0.00691849933027006
0.45	-0.60996472785506	0.843292910137691	612.60690781069	11.3340926931904	-4.80506316485444	0.907182240032162	-0.911885990776352	0.00129822953773251	0.00692800780440272
0.46	-0.674478718401279	0.781732314629916	613.474875290041	11.3590171238981	-4.82700588250635	0.901954225596462	-0.908351018111259	0.00131169700871137	0.00689938204183954
0.47	-0.706861310855845	0.736096984011049	614.280919601894	11.3905046533548	-4.87318325610466	0.898687324021596	-0.906014934161068	0.00133774750904569	0.00683052842191506
0.48	-0.698518701175865	0.709300917436136	614.9489761367	11.4295707453255	-4.94165000850983	0.898389388421598	-0.905702767984042	0.00138032039385849	0.00672363329550379
0.49	-0.64764544011654	0.701442410181119	615.406157653081	11.4756902044414	-5.02853924296821	0.901469777390055	-0.907793520618558	0.00144074786817461	0.00658400052804503
0.5	-0.559961069959706	0.709540442442908	615.595579303066	11.5267191944798	-5.12913448011129	0.907657602925685	-0.912153889480883	0.00151725576397355	0.00641847248967858
0.51	-0.447322533702374	0.727798815267439	615.487970313554	11.5791843955099	-5.23895838108539	0.916130462621417	-0.918238226550684	0.00160509349333926	0.00623382658407495
0.52	-0.324619618116759	0.748536404050857	615.089147676125	11.6289302578255	-5.35460114318084	0.925793843684215	-0.925301206898341	0.00169736152294275	0.00603555423153379
0.53	-0.205914902732749	0.763718938347803	614.441108276164	11.6720114284477	-5.4740750616952	0.935605978077582	-0.932636488061829	0.00178641952286485	0.00582733108804595
0.54	-0.101022592292482	0.766787198000329	613.615923657146	11.7056218704656	-5.59662192131333	0.944839633381188	-0.939757943543559	0.00186556456039955	0.00561127738104067
0.55	-0.0135431067860819	0.754297960067849	612.703470225856	11.7288035984742	-5.7220814406919	0.953207303682801	-0.946473405669353	0.00193053696340373	0.00538883854492272
0.56	0.0591492098106831	0.726863506598708	611.79574615314	11.7427070436988	-5.85008673330876	0.960831005901903	-0.952846193704314	0.00198040708233482	0.00516188672665135
0.57	0.124127516103477	0.689029600915799	610.971532355162	11.7502872092438	-5.97941721377785	0.968089553984666	-0.959077609480708	0.00201754542603272	0.00493355706532844
0.58	0.19005764751199	0.648037200896391	610.285072257542	11.7554869360349	-6.10777295007475	0.975408135788101	-0.965362335641186	0.00204664851575209	0.00470844361090028
0.59	0.264241166658705	0.611772301530322	609.761268527594	11.7621261855806	-6.23205694963491	0.983061808277934	-0.971767197880072	0.00207309655704702	0.00449205480620857
0.6	0.350443583603969	0.586493768111631	609.398006219446	11.7728229463584	-6.34903732532917	0.991050228862027	-0.978168325153457	0.00210114716901921	0.00428975164882245
0.61	0.448042275970031	0.575033579507626	609.174233042355	11.7882739438657	-6.45610409084152	0.999074015544368	-0.98426035625932	0.00213253370224253	0.00410561803171522
0.62	0.552568238174062	0.57604308248118	609.060980190527	11.8071154780838	-6.55180383101083	1.00661218372859	-0.989630122494336	0.00216590784137172	0.003941740527177
0.63	0.657308077292116	0.584546940109632	609.031984791087	11.8264011294726	-6.63593931227776	1.01307244247462	-0.993870227356009	0.00219728755128279	0.00379819513012336
0.64	0.755383613213138	0.593662111240324	609.071030145199	11.8425367976471	-6.70920903063379	1.01796772336671	-0.996698235045926	0.00222134223953885	0.00367373665454868
0.65	0.841669826555254	0.596970396509475	609.174303990476	11.8523721530123	-6.77254917137679	1.02106716552374	-0.998046884451294	0.00223308325501892	0.00356689769302354
0.66	0.914023921475494	0.590815686772144	609.347583119472	11.8541083374339	-6.82645004410842	1.02247848052683	-0.998099679022639	0.00222941790651443	0.00347704887512423
0.67	0.97352477691994	0.575799794764415	609.599480430887	11.8477549355169	-6.87051313541086	1.02263773494075	-0.9972611404487	0.00221009831541519	0.003405005538682
0.68	1.02370087883084	0.556975574583361	609.933027966979	11.8350254352898	-6.90340673551594	1.02220616819267	-0.996067052201579	0.00217781525966187	0.00335296063877955
0.69	1.06899641784617	0.542618253565008	610.338320236639	11.8187423624031	-6.92321951994715	1.02189611018924	-0.995053298819802	0.00213746606912246	0.0033237909471916
0.7	1.11293512294443	0.541883563580029	610.788710455186	11.8019679970336	-6.92806693492163	1.02226592138651	-0.994611193742992	0.00209486633587053	0.00332001574698487
0.71	1.15654175552608	0.562008040086389	611.242149083049	11.7871389774277	-6.91672549300065	1.02353510471716	-0.994862748064827	0.00205530469878323	0.00334280130868947
0.72	1.197537137792	0.605869106590504	611.647831736913	11.775451398598	-6.88907612727133	1.02547268236127	-0.995590352822331	0.00202233426234211	0.00339136905451592
0.73	1.23062467649516	0.670649615046824	611.956705297457	11.7666395109591	-6.84621828427173	1.02740079438832	-0.99624879587871	0.00199707872563237	0.00346300514659081
0.74	1.24886566396381	0.748060062566458	612.133028988738	11.7591592282841	-6.79023622458143	1.02832886828041	-0.996070242273691	0.00197816119856864	0.00355365042656131
0.75	1.24577736370153	0.826140235292097	612.163581125058	11.7506729867278	-6.7237132601637	1.02719494198966	-0.994245676103086	0.00196219732871239	0.00365885384242881
0.76	1.21750049474802	0.89220878090043	612.061555377565	11.7386670951303	-6.64915981701525	1.02315114695988	-0.990137101914691	0.00194467369885387	0.00377476778677405
0.77	1.16429083842436	0.936181359598204	611.863680303407	11.721027673138	-6.5685277192271	1.01580649385688	-0.983456377600954	0.00192097639455202	0.00389888088921858
0.78	1.09076000661517	0.953339276579358	611.621202402838	11.6964474949416	-6.48293113632442	1.00534587531687	-0.97435043866253	0.00188734207213581	0.00403030613627575
0.79	1.00469228437416	0.945752166357879	611.387383212344	11.6646102039971	-6.39261037977934	0.992482346302747	-0.963361687483949	0.0018415597610717	0.00416961415876532
0.8	0.914764738386371	0.921919236998424	611.205325357384	11.6261714698334	-6.29709348405209	0.97825797136627	-0.951276995708789	0.00178333285096	0.0043183526689346
0.81	0.827907038779747	0.894697062364522	611.099787431296	11.58260381968	-6.19546202746899	0.963763652431848	-0.938920624745243	0.00171429183688387	0.00447846741147051
0.82	0.747189947498411	0.878077206815246	611.075199450391	11.5359808594093	-6.08662507996761	0.949876817458183	-0.92696666336797	0.0016377087662357	0.00465181780238644
0.83	0.670960336198704	0.883705776453511	611.119889338895	11.4887520482973	-5.96954177712231	0.937105145111157	-0.915835758761925	0.00155799452301997	0.00483988287143622
0.84	0.593509776938558	0.918090737302286	611.214411885243	11.443519829693	-5.84338684918447	0.925579304430067	-0.905703557453102	0.00148006418443203	0.00504363050619377
0.85	0.507039347572461	0.981206545717011	611.340617119415	11.4028003843944	-5.70769689580995	0.915177652228129	-0.89660095710811	0.00140864729582746	0.00526343287294995
0.86	0.404260615841204	1.06676600100361	611.488122892674	11.3687451091685	-5.56254608820156	0.905716419053424	-0.888549761668892	0.0013476139990134	0.00549889515761304
0.87	0.280795539844195	1.16394031068177	611.6560815979	11.3428258100002	-5.4087708612366	0.897119914534789	-0.881667005007508	0.00129939263246881	0.00574853279033533
0.88	0.136647574932323	1.25993062737446	611.850034161492	11.3255306534143	-5.24820622764594	0.889502364363125	-0.876190225892251	0.0012645662295464	0.00600935493301363
0.89	-0.0236502541300523	1.34263586959646	612.075494590921	11.3161574202372	-5.083840709285	0.88313614410644	-0.872414383462481	0.00124174011427669	0.00627653014193741
0.9	-0.192174674588721	1.40274644582151	612.331043102733	11.3128017119143	-4.91977674866935	0.878330387862253	-0.870571077102122	0.00122775279152698	0.00654335848355392
0.91	-0.359614764574355	1.4348649439107	612.603767380709	11.3126067538539	-4.76092053161382	0.875278835739456	-0.870705142955245	0.00121824708822038	0.00680171342118913
0.92	-0.517473643838888	1.43760502318695	612.868933715647	11.3122723965029	-4.61241385652199	0.873944073082905	-0.87260348185453	0.00120853377869978	0.00704295762378432
0.93	-0.659772642186045	1.41292848094031	613.094201559869	11.3087355563272	-4.47892606088119	0.874026501363881	-0.875808046690587	0.00119458897659519	0.00725914325863092
0.94	-0.783744986701121	1.36515189480622	613.247097553437	11.2998638314652	-4.36399607130205	0.875030130947117	-0.879710129682351	0.00117396228448285	0.00744416923334518
0.95	-0.889359915509368	1.30004431509992	613.303371647679	11.2849765421644	-4.26961366581946	0.876398625950536	-0.883691071604994	0.0011463641218219	0.0075945568343494
0.96	-0.977939362252427	1.2242671703169	613.253586360602	11.2650370900071	-4.19614833044889	0.877668753023632	-0.887257920495429	0.00111376032892285	0.00770963539388042
0.97	-1.05047345417831	1.1451564063091	613.10587461493	11.2424420212409	-4.14260656957771	0.878584147452299	-0.890127551268047	0.00107991970576093	0.00779114654667468
0.98	-1.10636783702493	1.0706252069476	612.88401781687	11.2204427199313	-4.10708204648101	0.879131199430674	-0.892236680380897	0.0010495047449588	0.00784248115507502
0.99	-1.14319420219722	1.00887177263808	612.621446964226	11.2023425379899	-4.08721121489938	0.879492462303068	-0.893687317493947	0.00102692594514231	0.0078678642056384
1	-1.15761057046696	0.967655068585307	612.353002302633	11.1906827325256	-4.08048207461872	0.879946232373701	-0.894662749166809	0.00101525626667187	0.00787175900885623
1.01	-1.14712586204104	0.953121074743226	612.106919966335	11.1866413459967	-4.08434443189692	0.880758789589388	-0.895356164326266	0.00101549810297608	0.00785860320194237
1.02	-1.11200712305838	0.96842696626284	611.89935600139	11.1898127544957	-4.09618398054127	0.882110829552488	-0.895939674821172	0.00102640495676598	0.00783279968966721
1.03	-1.05652594215751	1.01260109519186	611.732877647116	11.1984248699502	-4.11329219547427	0.884076332506539	-0.896574228996617	0.00104490348810027	0.00779876077685004
1.04	-0.988955783584198	1.08010145302604	611.59905748378	11.2099183970635	-4.13295543013202	0.88664440635436	-0.897436341551424	0.00106698307780606	0.00776080258823297
1.05	-0.920176723413353	1.16137130445949	611.48403479303	11.2217021714108	-4.15270527250361	0.889757677855837	-0.898729572940103	0.00108877852908118	0.00772280540357517
1.06	-0.861244864984124	1.24439229660502	611.375067018328	11.2318504165864	-4.17066054068041	0.893342167402144	-0.900661350555738	0.00110751979700718	0.00768772917023552
1.07	-0.820656163977825	1.31691140608755	611.265923069646	11.2395398631079	-4.18580860000844	0.897319318228944	-0.903390858258999	0.00112208242310441	0.00765720803106212
1.08	-0.80215335441229	1.36878778475998	611.159477262513	11.2451231600127	-4.19806748139032	0.901608696568541	-0.906975769781132	0.00113302001801863	0.00763146547650922
1.09	-0.803762654245693	1.39385258979729	611.066841318276	11.2498591393477	-4.20805137593567	0.906137316188596	-0.911350779498307	0.00114213486488579	0.00760967221636921
1.1	-0.818372636587027	1.39081721057382	611.003487609861	11.255421993393	-4.21659607302946	0.910863565323331	-0.916355211338319	0.0011517756015561	0.0075906638121242
1.11	-0.835711495119874	1.36305027306528	610.983726033108	11.2633573507762	-4.22422278133741	0.915805765447759	-0.921798659092768	0.00116409868228096	0.00757374627159052
1.12	-0.845183229268112	1.31736913319159	611.015351589492	11.2746388699493	-4.23076516437682	0.921050077724367	-0.927528646341218	0.00118049289977518	0.00755924570815347
1.13	-0.838797068500445	1.26224537987404	611.09618353101	11.2894239921902	-4.23532708784303	0.926712131965126	-0.933457917798865	0.00120127878469678	0.00754854819808159
1.14	-0.813416951773248	1.20592869528488	611.213624162259	11.3070404581636	-4.23660013856803	0.932845908652723	-0.939527216931729	0.00122570203584194	0.00754359255757908
1.15	-0.771754217736665	1.15493471412636	611.347445032476	11.326177895178	-4.23341282242283	0.93932513343591	-0.945615164805785	0.00125217265420829	0.00754602284539546
1.16	-0.721861272078282	1.11316761318952	611.475001593283	11.3452198542123	-4.22527872929177	0.945750769578	-0.951442566498663	0.00127866613950123	0.00755636610397026
1.17	-0.675263927270069	1.08173745890192	611.577262734084	11.3626304189685	-4.21270558634338	0.951445737129191	-0.956534431303168	0.00130319102748766	0.00757360134624069
