Time [s]	GRFml [N]	GRFap [N]	GRFv [N]	Mml [N.m]	Map [N.m]	Mv [N.m]	Mfree [N.m]	COPml [m]	COPap [m]
0.01	15.2726544857147	2.50659863165127	624.651971427119	-61.2742419181008	3.89107597362739	-1.65658991245692	-0.17410549676925	-0.00439292432552746	0.00375465757545816
0.02	15.3148865902667	2.21775181275012	625.088170067447	-61.3259125838208	3.73545509069768	-1.66305901342613	-0.173764909282621	-0.00464943329048954	0.00377681891581805
0.03	15.3583438750198	1.93085203723355	625.518521347412	-61.3725273576205	3.58132330262512	-1.66955041283598	-0.173613682185638	-0.00490278051288845	0.00379087828391395
0.04	15.4030318925964	1.6489359269639	625.935921022981	-61.4114306195994	3.43117094948054	-1.67595300218233	-0.173608709757291	-0.00514892903898542	0.00379369150337026
0.05	15.4488687692413	1.37482542887403	626.333659025003	-61.4403089957636	3.28744794563905	-1.68215957723943	-0.173703098980499	-0.00538395130915375	0.00378264916700408
0.06	15.4956571571691	1.11106933245393	626.705637567936	-61.4573461017436	3.15249702168769	-1.68806965494335	-0.173848927919471	-0.00560413363353097	0.00375588445076465
0.07	15.5430633434171	0.859897702783456	627.046555690729	-61.4613492376819	3.02848965472073	-1.69359133094549	-0.173999369038082	-0.00580607312986247	0.00371243801566379
0.08	15.5906058040233	0.623189996234427	627.352052346696	-61.4518395432844	2.91736660338453	-1.69864215610266	-0.174109994168461	-0.00598676456314802	0.00365236839572378
0.09	15.6376547777332	0.402457049028028	627.618802907022	-61.4290998562765	2.82078490411392	-1.70314914709018	-0.174139223428203	-0.00614367490640009	0.00357680049759769
0.1	15.6834436060883	0.198836543065048	627.844566922995	-61.3941775140528	2.74007305079938	-1.70704816474478	-0.17404802883901	-0.00627480387284879	0.00348790936643448
0.11	15.7270917099648	0.013100984358962	628.028187981607	-61.3488423559591	2.67619586262797	-1.71028297824637	-0.173799132954997	-0.00637872912854472	0.00338884080924667
0.12	15.767638208088	-0.154323290679027	628.169549271647	-61.2955030119121	2.62973024556936	-1.71280437297342	-0.173356034193776	-0.00645463535220555	0.00328357447927313
0.13	15.8040843886221	-0.303328003542449	628.269490863581	-61.2370870301264	2.60085268231277	-1.71456964944043	-0.172682229600598	-0.00650232674355004	0.00317673836056159
0.14	15.8354425725524	-0.434087964675238	628.329696549169	-61.1768923742761	2.5893388607713	-1.71554280070184	-0.171740985511393	-0.00652222298139904	0.00307338608961406
0.15	15.8607884010694	-0.547021687033473	628.352559289486	-61.1184192255208	2.59457539490123	-1.7156955523719	-0.170495928471305	-0.00651533900108581	0.00297875013958701
0.16	15.8793132722208	-0.642750067081574	628.341034840614	-61.0651918187365	2.61558312877765	-1.71500931450417	-0.168912602634897	-0.0064832493101087	0.00289798458291028
0.17	15.8903735663753	-0.722055515183124	628.298492974346	-61.0205802269428	2.65105107168116	-1.71347794347909	-0.166960982589787	-0.00642803790818113	0.00283591101577368
0.18	15.8935334435227	-0.78584367522685	628.228574941935	-60.9876316204609	2.6993796132843	-1.71111106252405	-0.16461876361442	-0.00635223523562917	0.00279678039194639
0.19	15.8885983612059	-0.835109510473851	628.13506453398	-60.9689196335195	2.75873133584249	-1.70793755963499	-0.161875097867878	-0.00625874394445427	0.00278406211501753
0.2	15.8756370276332	-0.87090907516948	628.021778387299	-60.9664191579163	2.82708749214816	-1.70400878791598	-0.15873432628823	-0.00615075565672731	0.00280026992145131
0.21	15.8549902329519	-0.894337771105663	627.892479215065	-60.9814122521247	2.90230806594758	-1.69940094862534	-0.1552191888315	-0.00603166121824767	0.00284683198488489
0.22	15.8272658421857	-0.906515339857887	627.750813532617	-61.0144290133157	2.98219328142378	-1.69421614946802	-0.151372990197767	-0.00590495723421462	0.00292401039930477
0.23	15.7933201251985	-0.908577300444396	627.600273362051	-61.0652253186448	3.06454447966338	-1.68858170196044	-0.147260256668189	-0.00577415184753159	0.00303087284950314
0.24	15.7542264758447	-0.901672042887744	627.444179462072	-61.1327974061981	3.14722242592331	-1.68264734788403	-0.142965536681222	-0.00564267275432334	0.00316531692926154
0.25	15.7112333678897	-0.886962361655669	627.285681973101	-61.2154314320825	3.22820133938062	-1.67658027596359	-0.138590161178028	-0.00551378032385502	0.00332414528821909
0.26	15.6657140492057	-0.865629885650868	627.127773102159	-61.3107844933535	3.30561722932577	-1.67055799108843	-0.134246972527847	-0.00539048839911193	0.00350318764053184
0.27	15.6191109401362	-0.838880653941023	626.973305686301	-61.4159922173442	3.37780945707583	-1.66475931130409	-0.130053233337958	-0.00527549491897597	0.00369746371626387
0.28	15.5728779455647	-0.807950012617621	626.825011227854	-61.5277969406063	3.44335479751667	-1.65935397240195	-0.126122118665522	-0.00517112396179216	0.00390137954666367
0.29	15.5284239016314	-0.774105074263865	626.68551131559	-61.6426897713058	3.50109362377937	-1.65449149639761	-0.122553358832897	-0.00507928021562693	0.00410894811465658
0.3	15.4870601662071	-0.738643185443742	626.557317220339	-61.7570594650604	3.55014816005431	-1.65029011076683	-0.119423720301441	-0.00500141629104004	0.00431402443562538
0.31	15.4499549549916	-0.702885178709075	626.442813826102	-61.8673410445286	3.58993302113815	-1.64682657597213	-0.116778078325202	-0.00493851276306992	0.00451054461363552
0.32	15.418096465431	-0.668162624578488	626.344225831635	-61.9701574380701	3.62015846824968	-1.64412778051946	-0.11462184159968	-0.00489107040451028	0.00469275837937211
0.33	15.392266171447	-0.635798818427616	626.263566197664	-62.0624480663723	3.64082695070644	-1.6421648922703	-0.112915434779844	-0.00485911377933256	0.00485544506859892
0.34	15.3730229700573	-0.607083802933198	626.20256895721	-62.1415792178304	3.65222357136116	-1.64085071480346	-0.111571432875957	-0.00484220520991957	0.00499410392612619
0.35	15.3606981713138	-0.583244299060193	626.162610568777	-62.2054321625835	3.65490111691016	-1.64004069693518	-0.110454779321812	-0.00483946810129625	0.005105110973166
0.36	15.3554006937227	-0.56540995502443	626.144625789477	-62.2524661934126	3.64966024580865	-1.63953779593165	-0.109386317443281	-0.0048496186698451	0.00518583638167078
0.37	15.357031296325	-0.554577780481139	626.149025405129	-62.2817550784074	3.63752534546986	-1.63910111852955	-0.108149636392868	-0.00487100524217192	0.0052347182618981
0.38	15.3653042715636	-0.551576972630761	626.175623933254	-62.2929966961346	3.61971647887516	-1.63845797951548	-0.106500992779707	-0.00490165441688235	0.00525129087809945
0.39	15.3797747531043	-0.557036528516417	626.223585511168	-62.2864968350553	3.59761776156526	-1.63731874751137	-0.104181835080576	-0.0049393234760511	0.0052361674442017
0.4	15.3998696614289	-0.571358049508135	626.291395547046	-62.2631292199701	3.57274246403903	-1.63539361359	-0.100933246858462	-0.00498155846120784	0.00519097970075795
0.41	15.4249203090357	-0.594695968125575	626.37686435917	-62.2242747354969	3.54669513800059	-1.63241024010338	-0.0965114536076229	-0.00502575727122636	0.00511827833044906
0.42	15.454194800817	-0.626947066650234	626.477167032185	-62.1717435192898	3.52113112700658	-1.62813114056025	-0.0907034214899701	-0.00506923699253656	0.00502139984329426
0.43	15.4869285731891	-0.667750629580445	626.588921213139	-62.1076840791634	3.49771394404055	-1.62236961722558	-0.0833415257660246	-0.00510930444658626	0.00490430678834747
0.44	15.5223516950167	-0.716499911215915	626.70830173898	-62.034483845618	3.47807117295176	-1.61500314571603	-0.0743162891517948	-0.00514332865900528	0.00477140898581549
0.45	15.5597118811591	-0.772364852245897	626.831188053361	-61.9546656144212	3.46374976210843	-1.60598324271124	-0.0635862868425028	-0.00516881365146082	0.00462737390899398
0.46	15.5982925235696	-0.83432520203032	626.953337576117	-61.8707841838074	3.45617180511582	-1.59534107455505	-0.0511844806401149	-0.00518346966641396	0.00447693439142231
0.47	15.6374254052855	-0.901212458797425	627.070575775395	-61.7853271767388	3.45659211889769	-1.58318834522572	-0.037220468636888	-0.00518528069162706	0.00432470152525741
0.48	15.676498111688	-0.971758390884751	627.178991880242	-61.7006235949868	3.46605910618717	-1.56971332103668	-0.0218784031427241	-0.00517256598542388	0.00417499000233282
0.49	15.714956475759	-1.04464740537752	627.275128138002	-61.6187631148919	3.48538050122506	-1.55517218221879	-0.00541061797879774	-0.00514403323847006	0.00403166228963141
0.5	15.7523026766934	-1.11856973167694	627.356150383479	-61.5415285396401	3.51509562198022	-1.53987621263993	0.0118727053091569	-0.00509882105845069	0.00389799698877681
0.51	15.7880898431886	-1.1922723161819	627.419988488875	-61.4703432009564	3.55545567359051	-1.52417562364965	0.0296172367458392	-0.00503652863815078	0.00377658556448304
0.52	15.8219141851632	-1.26460449043636	627.465436967722	-61.4062344797455	3.60641345808785	-1.50844103473167	0.0474407441707287	-0.0049572307662543	0.00366926039225081
0.53	15.8534057836678	-1.33455586780859	627.492208494811	-61.3498140093496	3.66762354587681	-1.49304378547557	0.0649509049434935	-0.00486147675951029	0.00357705581405345
0.54	15.8822192035927	-1.4012845115872	627.500936188377	-61.3012745493227	3.73845356501875	-1.4783363196645	0.0817636107362658	-0.00475027242610069	0.00350020263593877
0.55	15.9080250551283	-1.4641341510587	627.493123936487	-61.260402979282	3.81800678372169	-1.46463385923907	0.0975206801716441	-0.00462504480002872	0.00343815527944949
0.56	15.930503518337	-1.52264003921636	627.471047560353	-61.2266083653669	3.90515562526372	-1.45219847678736	0.111905958755344	-0.00448759009708051	0.00338964963127028
0.57	15.9493406647478	-1.57652387661942	627.437612910886	-61.1989635985816	3.99858519389313	-1.44122648985955	0.124658921040641	-0.00434000611022908	0.00335278854365566
0.58	15.9642281687547	-1.62567900063192	627.396179829844	-61.1762586978632	4.09684533914936	-1.43183985426323	0.135585083887254	-0.00418461105478274	0.00332515094573844
0.59	15.9748667124984	-1.6701476943913	627.350363057791	-61.1570635161947	4.1984092793999	-1.42408194624849	0.144562775268041	-0.0040238516517305	0.00330391966117168
0.6	15.9809730680004	-1.71009295446698	627.303822486201	-61.1397972933852	4.30173637651958	-1.4179178173955	0.151546060723964	-0.00386020395471957	0.00328602232392225
0.61	15.9822905106668	-1.74576733626786	627.260055555592	-61.1228022748581	4.40533633223905	-1.41323870409258	0.156563888620227	-0.00369607102957719	0.00326827927754104
0.62	15.9786019026165	-1.77748155712131	627.222204100153	-61.1044184743204	4.5078318869712	-1.40987029775817	0.159715755941507	-0.00353368203117204	0.00324755206922875
0.63	15.9697445072785	-1.80557538324956	627.192886611732	-61.0830566121703	4.60801706112679	-1.40758405182724	0.161164401044	-0.00337499744011616	0.00322088613823386
0.64	15.955625381753	-1.83039298082198	627.174064885062	-61.0572663219824	4.70490809615926	-1.40611063246206	0.161126184889333	-0.00322162518042749	0.00318564156752323
0.65	15.9362360604488	-1.85226440921426	627.166951500417	-61.0257968918849	4.79778452801843	-1.40515452248913	0.159859918838022	-0.00307475201381997	0.00313960632198618
0.66	15.9116652067851	-1.8714943227932	627.171961813602	-60.987648098382	4.88621825021382	-1.40440876716393	0.157654931222012	-0.00293509399294539	0.00308108722116415
0.67	15.8821079763838	-1.88835827759046	627.188711275021	-60.9421090929199	4.97008897889837	-1.40356890517428	0.154819137890469	-0.002802868875248	0.00300897495597204
0.68	15.8478710041514	-1.9031063639025	627.216056193564	-60.8887838047909	5.04958519121942	-1.40234525231945	0.151667799626955	-0.00267779229649148	0.00292278070560387
0.69	15.8093721896617	-1.91597325541597	627.252173670806	-60.8276019091526	5.12519033606465	-1.40047288697389	0.148513521541704	-0.00255909824597658	0.00282264327695632
0.7	15.7671347932915	-1.92719322463679	627.29467448843	-60.7588150508483	5.19765487293499	-1.39771891000728	0.14565788890454	-0.00244558305796213	0.00270930709943203
0.71	15.7217757460115	-1.93701825999693	627.340741321402	-60.682978683025	5.2679554362475	-1.39388679854661	0.14338495484393	-0.00233567082845322	0.00258407278477749
0.72	15.6739884900441	-1.94573715903988	627.387283807374	-60.6009205406749	5.33724310447497	-1.38881792251575	0.141956613025446	-0.00222749697563049	0.00244872322970549
0.73	15.6245210742459	-1.95369338042676	627.431101720539	-60.5136973885045	5.40678333403129	-1.38239052492973	0.141609717616692	-0.00211900566892411	0.00230542933226105
0.74	15.5741505949279	-1.96129951914094	627.46904772988	-60.4225422266278	5.47789055986993	-1.37451666266548	0.142554667024794	-0.00200805612258927	0.00215664025815923
0.75	15.5236553695608	-1.96904651616504	627.498181893305	-60.3288045766397	5.55186073957048	-1.36513774815581	0.144975058399273	-0.00189253232912263	0.0020049637934846
0.76	15.4737864314734	-1.97750610666896	627.515911058341	-60.2338867803729	5.62990520674078	-1.35421941279737	0.149027955213109	-0.00177045071578789	0.00185304263494623
0.77	15.4252400190138	-1.9873255200835	627.520107606277	-60.1391794067396	5.71308909626723	-1.34174642381269	0.154844295409614	-0.00164006043899123	0.00170343249449387
0.78	15.3786326922689	-1.99921403432115	627.509203388729	-60.0459988691877	5.80227731438405	-1.32771832773648	0.162529003797515	-0.0014999315589156	0.0015584876424081
0.79	15.3344805441894	-2.0139216128318	627.482256168912	-59.9555302065238	5.89809056931059	-1.31214637144767	0.172160456637761	-0.00134902711492156	0.00142025900519892
0.8	15.2931836916139	-2.03221047319837	627.438987310445	-59.8687776805898	6.00087338332139	-1.29505207711332	0.183789071610074	-0.00118675609160348	0.00129040920468955
0.81	15.2550168565784	-2.0548210067871	627.3797907845	-59.7865254108681	6.1106753139001	-1.27646763655588	0.197434951639017	-0.00101300535892623	0.00117014801268696
0.82	15.2201264097974	-2.08243395181549	627.305714737689	-59.7093097209967	6.22724586590693	-1.25643806274659	0.213084682215049	-0.000828149817611694	0.00106019064698962
0.83	15.1885337831901	-2.11563108482356	627.218417841609	-59.6374042440351	6.35004282734309	-1.23502481244921	0.2306875524001	-0.000633041114678235	0.000960740198145987
0.84	15.1601447067935	-2.15485691398414	627.120103411058	-59.5708181556249	6.47825305655629	-1.21231039554295	0.250151622213491	-0.000428976350984645	0.000871494303756964
0.85	15.1347633267869	-2.20038391740426	627.013434829265	-59.5093072138594	6.61082413249559	-1.18840333245322	0.271340176692949	-0.000217649128382125	0.000791675030998959
0.86	15.1121099507292	-2.25228376569135	626.901436168115	-59.4523966202245	6.74650478812791	-1.16344272708743	0.294069175037955	-1.08603474657104e-06	0.000720079841337401
0.87	15.0918409709442	-2.31040670508877	626.787382064938	-59.3994141154977	6.88389170629659	-1.13760169939657	0.318106311209587	0.000218427790997284	0.000655150545516708
0.88	15.0735694544344	-2.37437086856371	626.674680949304	-59.3495312232731	7.02148008100405	-1.11108897378516	0.343172244815145	0.0004384300532667	0.000595056359568552
0.89	15.056884962889	-2.44356274822593	626.566755640905	-59.3018101819267	7.15771533649018	-1.08414804504466	0.368944438877824	0.000656365604621449	0.000537786585105948
0.9	15.0413713715825	-2.51714943107619	626.466925198539	-59.2552538858493	7.29104354046743	-1.05705353357101	0.395063861497066	0.000869669744544995	0.000481248091539294
0.91	15.0266217709408	-2.59410250500495	626.37829171792	-59.2088561015731	7.41995832466136	-1.03010458147294	0.421144584842775	0.00107584692723931	0.000423362693780627
0.92	15.0122499277325	-2.67323282190487	626.30363556863	-59.1616493359219	7.54304250532486	-1.00361541084709	0.446786065813739	0.00127254179036825	0.000362159701564557
0.93	14.9978982137475	-2.7532346023038	626.245322329843	-59.1127480018148	7.65900304338119	-0.977903441548569	0.471587639845893	0.0014576000368517	0.000295859354636621
0.94	14.9832423325582	-2.83273672588633	626.205224418531	-59.0613849318624	7.76669846125165	-0.953275623217834	0.495164526004831	0.00162911739780686	0.000222943524214467
0.95	14.9679935424992	-2.91035851943672	626.184660079641	-59.0069397994595	7.86515830574844	-0.930013850733633	0.517164450098727	0.00178547562782299	0.000142210912417576
0.96	14.9518993432342	-2.98476696991105	626.184351996147	-58.9489585830214	7.95359468271204	-0.908360482090401	0.53728386265401	0.00192536518799495	5.28149619539592e-05
0.97	14.9347437300789	-3.05473209082845	626.204407249086	-58.8871638079793	8.03140626521996	-0.888505046350502	0.555282674935439	0.00204779491798575	-4.57162667464595e-05
0.98	14.9163481040849	-3.11917717999237	626.244319693357	-58.8214558786885	8.09817547727547	-0.870573206948544	0.57099646715995	0.00215208955540597	-0.000153477953987957
0.99	14.896573753238	-3.17722093700236	626.302995008584	-58.7519063267959	8.15365977160064	-0.854618930364921	0.584345239751293	0.00223787640915194	-0.000270202851774842
1	14.8753265059932	-3.22820885505578	626.378797750937	-58.6787442184932	8.19777805425336	-0.840620608688227	0.595337974407824	0.00230506282390781	-0.000395289993932166
1.01	14.8525637356981	-3.27173194062012	626.469618710104	-58.6023372545634	8.23059336769276	-0.828481611709053	0.60407253319132	0.0023538062863014	-0.000527845048476569
1.02	14.8283034110891	-3.30763160724493	626.57295982702	-58.5231692499317	8.25229293980552	-0.818035421844129	0.610730730940593	0.00238447912735285	-0.000666729154043991
1.03	14.8026344017196	-3.3359904822481	626.686032932121	-58.4418156918713	8.26316665399546	-0.809055160411806	0.615568744798219	0.00239762978417866	-0.000810612900706012
1.04	14.7757268189456	-3.35710979323952	626.805867710768	-58.3589189587054	8.26358490983072	-0.801266976167897	0.618903348020523	0.00239394251236919	-0.000958032172353893
1.05	14.7478408599985	-3.37147489668869	626.929423681535	-58.2751645551054	8.25397673857604	-0.794366465832297	0.621094747294853	0.00237419730546405	-0.00110744284311867
1.06	14.7193324707328	-3.37971130557064	627.053700661744	-58.1912594153953	8.23480892404931	-0.788037057611603	0.622527040049129	0.00233923159475606	-0.00125727177802233
1.07	14.6906541809836	-3.3825342073417	627.175842246978	-58.1079129769246	8.20656676395346	-0.781969132653962	0.623587472210273	0.00228990508434946	-0.00140596217970845
1.08	14.6623497035516	-3.38069488923812	627.293227269018	-58.0258213670889	8.1697369938316	-0.775878598436736	0.624645755672188	0.00222706883352129	-0.001552011992276
1.09	14.6350413100929	-3.37492767342718	627.403545003904	-57.9456547131726	8.12479328557041	-0.769523666008356	0.62603469401179	0.00215153943908672	-0.00169400476077215
1.1	14.6094095703097	-3.36590089652117	627.504851024125	-57.8680473017235	8.07218462308984	-0.762718714687641	0.628033267980913	0.00206407890081323	-0.00183063299399445
1.11	14.5861657133505	-3.35417515209186	627.595601937632	-57.7935901039519	8.01232674647789	-0.755344340205513	0.630853159133692	0.00196538047794942	-0.00196071463915348
1.12	14.5660175790015	-3.34017147508683	627.674668717023	-57.7228250571353	7.94559673939515	-0.747352955935904	0.63462945631284	0.00185606056936355	-0.00208320371068101
1.13	14.5496308026344	-3.32415142369528	627.741329766575	-57.6562404516557	7.87233071140571	-0.738769628163471	0.63941601510179	0.00173665637904168	-0.00219719639641916
1.14	14.5375874551709	-3.30621016065637	627.795246175311	-57.5942668132663	7.79282439757224	-0.72968814981482	0.645185646082554	0.00160762886968031	-0.00230193408153571
1.15	14.530344779078	-3.28628271484564	627.836422647991	-57.537272777968	7.70733636565574	-0.720262667869304	0.651835015055085	0.00146937026873713	-0.00239680468715202
1.16	14.528196879106	-3.26416268235553	627.865158307353	-57.4855606152997	7.61609339308171	-0.710695455667091	0.659193866678703	0.00132221518454596	-0.00248134353327473
1.17	14.5312422159304	-3.23953177085689	627.881991871066	-57.4393612453626	7.51929746064025	-0.701221644962421	0.667037948479362	0.00116645422752965	-0.00255523463139105
