Time [s]	GRFml [N]	GRFap [N]	GRFv [N]	Mml [N.m]	Map [N.m]	Mv [N.m]	Mfree [N.m]	COPml [m]	COPap [m]
0.01	0.152574525824888	0.936246101736746	568.483937759367	-15.4639104640122	13.3743423578818	0.448644555356983	-0.474798727450119	-0.000501212766222281	-0.00326915382460696
0.02	-0.221257061497241	0.974634115204781	569.25640764106	-15.4661424701351	13.513479716027	0.440512145017396	-0.457666003381531	-0.000467444662817229	-0.00305457624804489
0.03	-0.583452424604043	1.00781117630156	569.914267081173	-15.4661119907354	13.6452532439903	0.436834840301644	-0.44517426798239	-0.00043518544052823	-0.00284806799310355
0.04	-0.915640886544441	1.03299447089941	570.365916674588	-15.4625923706324	13.7621118111217	0.440692068562054	-0.440826509977665	-0.000406660714336704	-0.00265899489237692
0.05	-1.19380028859156	1.05036977099704	570.566282471949	-15.4557421452699	13.8578177317961	0.452848714494985	-0.446033798778828	-0.000384304010437431	-0.00249638389139367
0.06	-1.39242843627257	1.06275158482856	570.525232532026	-15.446926674634	13.9285275058282	0.471495857697227	-0.459736645077588	-0.000370042112344038	-0.00236738674350351
0.07	-1.49241846528923	1.07408344545506	570.302039066768	-15.438024655443	13.9737624576023	0.492782383995306	-0.478690202552432	-0.000364343467599171	-0.00227534791475437
0.08	-1.48932730948071	1.08744751184707	569.988011374451	-15.4305640407936	13.996850533806	0.511970748323245	-0.498351047615553	-0.000365532436879423	-0.00221829817110492
0.09	-1.39819541042114	1.10347746799566	569.682649719077	-15.4250929976763	14.0045249889962	0.524852865306865	-0.514125680015595	-0.000369824927868523	-0.00218864939761804
0.1	-1.25228992507229	1.11988228402499	569.470131423779	-15.4210567920852	14.00564072762	0.528977927503035	-0.522619914333926	-0.000372234775914637	-0.00217444768251285
0.11	-1.09551837097055	1.13228354098875	569.402262955575	-15.4171971318257	14.0092866903451	0.524302646650514	-0.522511510539339	-0.000368086850851546	-0.00216195780186468
0.12	-0.970772832926688	1.13598652136208	569.491578800503	-15.4122432404537	14.0228002352595	0.513061956721224	-0.51477476312316	-0.000354556905307946	-0.0021388498614125
0.13	-0.908100967618988	1.12791238587728	569.714954044033	-15.4055381148966	14.0502421658755	0.498917164602922	-0.502191462157881	-0.000331596022696168	-0.00209702524091226
0.14	-0.916746665715257	1.10788245571921	570.025045164144	-15.3972897563344	14.0917556695029	0.485683318820992	-0.488322505691767	-0.000301824307220366	-0.00203422555012195
0.15	-0.983755696112931	1.07876077924453	570.365029990117	-15.3883254805568	14.1439621043756	0.476082415750767	-0.476302745667474	-0.000269396209927275	-0.00195396302473078
0.16	-1.07955527496849	1.0454641178295	570.681951901975	-15.3794672803954	14.2012354829185	0.470959159791456	-0.46788482134223	-0.000238268080331006	-0.00186384921372812
0.17	-1.16855091531803	1.01330475687032	570.93534626362	-15.3708312055515	14.2574467705952	0.469229706555722	-0.4630655538669	-0.000210557523002031	-0.00177289786712626
0.18	-1.22116401214527	0.986349903483721	571.100078523651	-15.3614064123578	14.3076544397968	0.468566517319674	-0.460409706828789	-0.000185669624276685	-0.00168867633278363
0.19	-1.22336554795661	0.966396380809845	571.164541778792	-15.3491690537023	14.3492672046261	0.466549009190101	-0.457920373064051	-0.000160583608677323	-0.00161518851945136
0.2	-1.18069615129174	0.952845763126901	571.126736066699	-15.3317719605818	14.3823933512152	0.461831011173013	-0.454094297611007	-0.000131252322625675	-0.00155210034423231
0.21	-1.11562986239722	0.943386289646451	570.990872607111	-15.3076055777836	14.4093521219143	0.454861440800174	-0.44872719227574	-9.46300344827344e-05	-0.00149546429359404
0.22	-1.05930631051119	0.935110535082743	570.76613690648	-15.2768438039828	14.4335729352458	0.447854317391917	-0.443129542853589	-5.05722049783941e-05	-0.00143961497849271
0.23	-1.04044383411556	0.925617652751993	570.467672054497	-15.2420436650536	14.4582749938708	0.443983481731781	-0.439643120346115	-2.84637091108042e-06	-0.00137954527386935
0.24	-1.07512289031642	0.913758999508909	570.11845117578	-15.2079853246212	14.4853608815264	0.44607538750558	-0.440625470294473	4.12345524912761e-05	-0.00131293967040241
0.25	-1.16084414370299	0.899896054851277	569.750091354937	-15.1806857405429	14.5148692612551	0.455280059928699	-0.447288562028213	7.25824573677425e-05	-0.00124117080639391
0.26	-1.27690250134106	0.885732961557862	569.401031696604	-15.1658141210449	14.5451444724275	0.470237028202997	-0.458854847792851	8.30327793701624e-05	-0.00116891211756415
0.27	-1.39107227241717	0.873881221317935	569.11163266188	-15.1669774599095	14.5736493274622	0.487100956860902	-0.472398163908405	6.8128060445094e-05	-0.00110247815971903
0.28	-1.47048403785829	0.867300766782746	568.917131675185	-15.1844394437627	14.598137102401	0.500499220858299	-0.483500236519351	2.90402923915911e-05	-0.00104743626004705
0.29	-1.49306888621149	0.868693584882962	568.840430311519	-15.2147396139887	14.6177713181139	0.505160182016395	-0.487558834440156	-2.70957745219791e-05	-0.00100630412837471
0.3	-1.45559200472424	0.879878694617163	568.886977647763	-15.2514103321452	14.6337802729129	0.497693240019388	-0.481335031452654	-8.8679381329837e-05	-0.000977163770247313
0.31	-1.37530187116001	0.901196782464506	569.043445201978	-15.2866310087185	14.6493673672115	0.477914081061098	-0.464214197640889	-0.00014260924319387	-0.000953759896497042
0.32	-1.28433397854732	0.93106726370814	569.280683424678	-15.3133370847242	14.6688368866293	0.449229174467003	-0.43872242897147	-0.000177847513389562	-0.000927175784234291
0.33	-1.21855294524499	0.96588886105762	569.560071281624	-15.3271346713118	14.6961688284017	0.417889353601025	-0.410070161748456	-0.000188484154632573	-0.000888634201149097
0.34	-1.2045956956741	1.00046582448501	569.841346132591	-15.327425190901	14.7334954516645	0.391297488971222	-0.384813927689762	-0.000175345566784557	-0.000832538416738082
0.35	-1.24969697534081	1.02901977081246	570.089709282435	-15.3173999206084	14.7800143663191	0.375882494082468	-0.369028631556022	-0.00014565365104402	-0.000758710597942525
0.36	-1.33806794630881	1.04663689423339	570.280513548498	-15.3029290024329	14.8317752347074	0.375215828460495	-0.366561791118398	-0.000110857581169577	-0.000672980843240079
0.37	-1.43538762575332	1.05078118371691	570.400888248263	-15.2907142973618	14.8825167301963	0.388984858553429	-0.37793175689505	-8.33165202487329e-05	-0.000585787177224517
0.38	-1.5001197665041	1.04237583495613	570.448769647921	-15.2862868181385	14.9253846049836	0.413164311389555	-0.400230908235658	-7.28303730771485e-05	-0.000509106769544299
0.39	-1.49790615733904	1.02599404329592	570.430517717396	-15.2924489001386	14.9550446509395	0.441331441668995	-0.428065900695653	-8.40165925003467e-05	-0.0004526290795418
0.4	-1.41410995194214	1.00892595113047	570.358369506992	-15.3085985845955	14.9695279218846	0.466687047683777	-0.455221310911291	-0.000115242643284996	-0.000420394357147469
0.41	-1.2601322359704	0.999247198686176	570.248476959143	-15.3310931258746	14.9711797615406	0.484107504711203	-0.476491500616529	-0.000159355115841864	-0.000409036495581716
0.42	-1.07122385269624	1.0033903851616	570.119530115152	-15.3544998755819	14.9663306900274	0.49154868800463	-0.489075845712093	-0.000205939657013987	-0.000408300240319237
0.43	-0.896424787687021	1.02397126211272	569.991386653244	-15.3733325176106	14.9636960680643	0.490355956329388	-0.493095327897003	-0.000244433336364369	-0.000403791860466463
0.44	-0.783950164845327	1.05863112317479	569.883016638318	-15.3837421664048	14.9719212558917	0.484423987554816	-0.491107040328476	-0.000267190295725417	-0.000381197372509856
0.45	-0.766847435504992	1.10038990955665	569.809491921772	-15.3846567549068	14.9969851067112	0.478555858975717	-0.486851620016372	-0.000271623537424603	-0.000330702804344496
0.46	-0.853546123956487	1.13953161752062	569.778510182856	-15.3780320857412	15.0402541423975	0.476643954960651	-0.48373451676076	-0.000260808595584416	-0.000250248212374904
0.47	-1.02611151627913	1.16652328250186	569.787671028913	-15.3681499616766	15.0978081212657	0.480336022697724	-0.483616795361903	-0.000242378804408361	-0.00014658371941384
0.48	-1.2462935541999	1.17508821763328	569.824007006224	-15.3601967158905	15.1612836091804	0.488645556572765	-0.486348858897485	-0.00022605183413571	-3.37664643382807e-05
0.49	-1.46685678753053	1.16445438801718	569.866845931031	-15.3585869461991	15.2200230973987	0.498597099958653	-0.490178038997896	-0.000220553389647549	7.0477112036893e-05
0.5	-1.6441397800123	1.1400205860128	569.893961894312	-15.3655817254257	15.2639200508817	0.506605828290394	-0.49281609105573	-0.000230904079315253	0.000149455446384728
0.51	-1.7478304802441	1.11215589389921	569.88952335951	-15.380650531581	15.2861412434753	0.510024642983968	-0.492697774248293	-0.00025692708345193	0.000191916259894176
0.52	-1.76542948688302	1.09342057530943	569.851175638436	-15.4007681632194	15.2849504968495	0.508247970658485	-0.48989344158988	-0.000293436064651709	0.000194915338569079
0.53	-1.70111760746234	1.09499019312074	569.793309757875	-15.4215100077264	15.2641345662603	0.502950490306965	-0.48628148420049	-0.000332001115312508	0.000164412442803241
0.54	-1.57080268687096	1.12332671780183	569.744484850211	-15.4385314050159	15.2319515057743	0.497384282596016	-0.484884727760885	-0.000363661500278778	0.000113549818149095
0.55	-1.39618706688754	1.17808599196276	569.738909841759	-15.4488951591807	15.1989515941775	0.495025627760477	-0.48861365300355	-0.000381650688159096	5.92312396945904e-05
0.56	-1.20042413910283	1.25188916175558	569.804195044544	-15.4517922103703	15.1753283428795	0.498112845286006	-0.498907765339697	-0.00038323376781757	1.80504974660045e-05
0.57	-1.00655261273788	1.33202367813706	569.949353500026	-15.4484504675636	15.1685511011474	0.506655042739101	-0.514826871041934	-0.000370112635792563	2.70029227267266e-06
0.58	-0.838104380019953	1.40355702000024	570.157485973567	-15.4413445703284	15.181890368243	0.518305341163754	-0.532989562814936	-0.000347389228144923	1.97254172495942e-05
0.59	-0.719929427950973	1.45293831548049	570.386405265312	-15.4330781864832	15.2141291448316	0.529154187158501	-0.548442558576718	-0.000321584614175863	6.89825849025105e-05
0.6	-0.677017164590516	1.47106591717385	570.577953722132	-15.4254106852115	15.2603750809744	0.535140507752533	-0.556190067205886	-0.000298503398399097	0.000144623127368626
0.61	-0.730080317411988	1.45503322404436	570.673784556253	-15.4188084480536	15.3135827401001	0.533540161713898	-0.552853081076349	-0.000281711603478563	0.000237019301294106
0.62	-0.888499457030544	1.40822573402869	570.632976803369	-15.4126615451369	15.3662623123231	0.523964700390967	-0.537865048791842	-0.000272089462512448	0.000334934195768299
0.63	-1.14308320964244	1.33894698492231	570.445922097477	-15.4060192852051	15.4119155365504	0.508497443816665	-0.513768477547838	-0.000268462497321709	0.000427391362115559
0.64	-1.46208291802823	1.25812213794584	570.139840879208	-15.3984786962894	15.4459446506296	0.490929863762839	-0.485497370463368	-0.00026888877642739	0.000505015822031774
0.65	-1.79342283396092	1.17676750866215	569.773796405115	-15.3907942288002	15.466018068697	0.475405607115772	-0.458892200844158	-0.000271949178838549	0.000560916466120498
0.66	-2.0741736321165	1.10383274527428	569.424363890372	-15.3848897553451	15.4720419663275	0.464997186751695	-0.438962140267554	-0.000277431647800586	0.000591315096994505
0.67	-2.24555765770993	1.04480983106039	569.166087116454	-15.3832012236234	15.4659260542905	0.460748917854692	-0.428485769927127	-0.000286093385029607	0.000596056440118897
0.68	-2.26929839189526	1.00126695600669	569.05251194906	-15.3875643101518	15.45126081247	0.461521135057874	-0.427402731205951	-0.000298606160687664	0.000578932037160529
0.69	-2.13997836316246	0.971273573198823	569.103355790953	-15.3980741500391	15.4329108155896	0.464649062699983	-0.433152135752723	-0.000314170730210117	0.000547565553465967
0.7	-1.88885211948091	0.950545958400022	569.301331363632	-15.4123972817712	15.4164534901461	0.467115418062709	-0.441773941559135	-0.000329472835682965	0.000512572000817446
0.71	-1.5771288179111	0.934036604507102	569.599009536	-15.4258819234254	15.4074028840261	0.466752618861996	-0.44933416708373	-0.000338564670941066	0.000485869022040952
0.72	-1.28021752827587	0.917600233421989	569.932985894797	-15.4325354555269	15.4102505826508	0.463005942407849	-0.453154589968826	-0.000333917324647159	0.000478326845264998
0.73	-1.0675426242032	0.899315098316913	570.240586833326	-15.4266180869781	15.4274828857104	0.456989040430692	-0.452443112717954	-0.00030842683774468	0.000497260368843289
0.74	-0.984117097076825	0.8800720590137	570.474046665565	-15.404359602561	15.4588284411595	0.450859946043905	-0.44817693442008	-0.000257749442043487	0.000544446492501682
0.75	-1.03951005753401	0.863208997823552	570.608473940624	-15.3652365370078	15.5009998429191	0.446815330241434	-0.442380156519655	-0.000182156549736856	0.000615299969639549
0.76	-1.20736606045587	0.853253503011674	570.642362059518	-15.3123813221064	15.5480973687136	0.446135625255863	-0.437146715473036	-8.72210741306167e-05	0.000699559174987596
0.77	-1.43514251080799	0.854157014036855	570.591935472247	-15.2519858523927	15.5926664900357	0.44866636229378	-0.433814215434387	1.6964156207111e-05	0.000783405109022028
0.78	-1.66048383349748	0.867626139909166	570.482378291124	-15.1918998774782	15.627200270477	0.452921801685949	-0.43258725657049	0.000117827757782241	0.000852504124370435
0.79	-1.82876550269043	0.892167132699168	570.339462572613	-15.1398802624404	15.6457240717636	0.456736331930298	-0.432698120925052	0.000202989077902282	0.000895174571796054
0.8	-1.90639637211647	0.92322743975455	570.184277576224	-15.1020249857847	15.6450520520489	0.458176340484164	-0.432971432213977	0.000262749784575633	0.000904832706844272
0.81	-1.88632726729611	0.954423328949365	570.032097979197	-15.0818050703178	15.6253872896698	0.456341143818824	-0.432514627770013	0.000291734929948606	0.000881095814604216
0.82	-1.78511607740745	0.979440870733222	569.894599145246	-15.0798505986683	15.590128161158	0.451748104500039	-0.431234481281254	0.000289373562313178	0.000829340296470249
0.83	-1.63376284594339	0.993949192900795	569.783306310789	-15.0943687969571	15.544979120262	0.446174831197754	-0.429975174476376	0.000259332590631267	0.000758986220390057
0.84	-1.4663478199812	0.996862954653571	569.711803558373	-15.1218882807267	15.4966603600383	0.442042139738672	-0.430236348371407	0.00020832172676688	0.000681139666431352
0.85	-1.31070539855913	0.990527637481823	569.694920535089	-15.1579987970023	15.451596679788	0.441583136997642	-0.433592855775617	0.000144763060482167	0.000606341173215508
0.86	-1.1839913878341	0.979780892319772	569.744571229385	-15.1978790459811	15.4149133161768	0.446101766771716	-0.441042996065114	7.76719921330438e-05	0.000543007703030007
0.87	-1.09367817014328	0.970226926436851	569.863568985753	-15.2365995210352	15.3899050285391	0.455567920028978	-0.452527825694495	1.58343673931638e-05	0.000496795439196229
0.88	-1.04220502700679	0.966318282070636	570.039934956654	-15.2693493748898	15.3779495497424	0.468657745364672	-0.466793696940937	-3.28621966791953e-05	0.000470713621761598
0.89	-1.03213939949811	0.969888789657308	570.24446561353	-15.291785523336	15.378694341076	0.483185207343423	-0.481645128449716	-6.21587606201013e-05	0.000465560042271551
0.9	-1.06878662391893	0.979612601446135	570.43349071622	-15.3006170347244	15.3903139841685	0.496744916436777	-0.494502270441607	-6.83232569811398e-05	0.000480233681651676
0.91	-1.15863312420331	0.991539921663296	570.557100274469	-15.2943631717879	15.4097161807507	0.507337987915094	-0.503081837422947	-5.10944942698766e-05	0.000511699514822661
0.92	-1.30416982224368	1.00049640546602	570.571212598086	-15.2740475180741	15.4327135369577	0.513790680254607	-0.505991274133083	-1.43320209357034e-05	0.000554714061136607
0.93	-1.49757459953482	1.00185861802232	570.450352307795	-15.2435042212789	15.4542942162012	0.515875467082266	-0.503067124460596	3.40483213925324e-05	0.000601693670969849
0.94	-1.71658979435154	0.993124102061886	570.197422441337	-15.2090285653887	15.469147113907	0.514161040810286	-0.495379920054892	8.31472056546101e-05	0.000643174057754436
0.95	-1.92531831503744	0.974800931249736	569.847292958527	-15.1782948519351	15.4725026225428	0.509705211165146	-0.484934081515485	0.000121148166029372	0.000669117951781539
0.96	-2.08080220161685	0.95039216861008	569.462534604012	-15.1587229298159	15.4611746901856	0.503733208146001	-0.47417552220229	0.000137980991654296	0.000670948921541681
0.97	-2.14388820842752	0.925544310360059	569.121668016402	-15.1557009112987	15.4345170196909	0.497410556645875	-0.465456537541452	0.000127885367022573	0.000643789713495935
0.98	-2.09098866469493	0.906664164335474	568.902315814256	-15.1711732891395	15.3949292641268	0.491746608080728	-0.460591217800261	9.10945505553373e-05	0.000588152818146226
0.99	-1.92268985676486	0.899420076901236	568.863120920281	-15.2030336717502	15.3476256850631	0.487588447247596	-0.460579156532452	3.40507038345539e-05	0.000510395239015193
1	-1.66602000104781	0.907516437582385	569.028857760009	-15.2455372925933	15.2995986277348	0.485620743965577	-0.465508311899365	-3.20174681063268e-05	0.000421608209731139
1.01	-1.36923905197769	0.931996695536091	569.382645071881	-15.2906457356713	15.2579929923519	0.486295439195029	-0.474598978747048	-9.38177471110357e-05	0.000335134965499251
1.02	-1.09047778478474	0.971149911148631	569.86762224353	-15.329938480861	15.2283403587915	0.489672126618077	-0.486338015825351	-0.00013926646077167	0.000263391116093581
1.03	-0.883533952173778	1.02093408992694	570.398165617604	-15.3565653377554	15.2131830620502	0.495227866320672	-0.498673428197176	-0.000160383686118593	0.000214914446596381
1.04	-0.784956460750225	1.07573298706451	570.878222555081	-15.3667192193639	15.21151053073	0.501752881445092	-0.509272165733478	-0.000155012666589571	0.000192500955739749
1.05	-0.806002387913039	1.12924540940035	571.222316312386	-15.360270511225	15.2191710111731	0.507450384862619	-0.515858994155035	-0.000126943737188245	0.000192926054320475
1.06	-0.931418288150961	1.17534734033584	571.373890771575	-15.3404622660522	15.2301089795186	0.510293194071428	-0.516632331172854	-8.45172715174813e-05	0.000208243171850642
1.07	-1.12489770429782	1.20882899438446	571.316310203182	-15.3128326452522	15.2380265830212	0.508578883234189	-0.510698842470158	-3.82182112588225e-05	0.000228178653539746
1.08	-1.33920507119464	1.22595722617238	571.073902796113	-15.2837244181041	15.2379617833521	0.501517405592454	-0.498411348139891	1.98425608144426e-06	0.000242856641930078
1.09	-1.52787423607901	1.22483673826462	570.703307628533	-15.2588084360136	15.2273427837708	0.489633288898026	-0.481472406238456	2.88164390204182e-05	0.000245067176814717
1.1	-1.65531799015623	1.205552450181	570.27810019746	-15.241981674896	15.2062808353757	0.47480016111381	-0.462704376918555	3.89082964640242e-05	0.00023151610291583
1.11	-1.70301781745214	1.17008896006513	569.871328921288	-15.234838104902	15.1771214213114	0.459842223009579	-0.445482628451573	3.29011986386352e-05	0.000202869226341662
1.12	-1.67084052693601	1.12204900854832	569.540705533462	-15.23671842321	15.1434965151588	0.447792646011156	-0.432948635604726	1.46675652530348e-05	0.000162789851737566
1.13	-1.57397810576035	1.06622175317095	569.31985633712	-15.2451911678601	15.1092389806411	0.441031773602545	-0.42721516271016	-9.94041381385813e-06	0.000116441888924512
1.14	-1.43709635391833	1.00806659465026	569.216859776383	-15.2567471219353	15.0775071041715	0.440585053225443	-0.428804082890257	-3.43754192015933e-05	6.90132494788331e-05
1.15	-1.28773382397825	0.953170814395382	569.219080359376	-15.2675057412035	15.0503420516856	0.445817759130169	-0.436501693407466	-5.24087985467325e-05	2.47008476637611e-05
1.16	-1.15076410440503	0.906716960843558	569.301749976091	-15.2738059271993	15.0286982670034	0.454635002677055	-0.447692637778139	-5.87700265431979e-05	-1.3648341829986e-05
