Time [s]	GRFml [N]	GRFap [N]	GRFv [N]	Mml [N.m]	Map [N.m]	Mv [N.m]	Mfree [N.m]	COPml [m]	COPap [m]
0.01	-13.7993063632899	-28.3542600284774	892.262153138888	1.39674528654638	21.5113409889781	-2.12342362807828	2.78526991987574	0.000785192394206824	0.00990230756560195
0.02	-13.4966406000195	-28.2833666089745	892.169403202225	1.43862366426025	21.3129866391515	-2.13574031631734	2.78963219779952	0.000830919003588781	0.00967601979196853
0.03	-13.2109295537155	-28.2015086719725	892.113842702087	1.49019957817352	21.1159818442162	-2.14047021357299	2.78602120716821	0.000887625215287846	0.00945044981107179
0.04	-12.9602790561574	-28.1013589897373	892.126704185496	1.55814608511712	20.9236748057614	-2.13191047634103	2.7685349658203	0.000962867235171472	0.00922868895686607
0.05	-12.763869324627	-27.9845783504696	892.215313115385	1.64502339843183	20.7399198325323	-2.10719102242731	2.73438818177993	0.00105957461928985	0.00901494421110749
0.06	-12.6403462586045	-27.862496077545	892.359298919348	1.74902516825445	20.5686469198866	-2.06657813100167	2.68422475134448	0.00117576788642482	0.00881414072850611
0.07	-12.6043987831596	-27.7534642525697	892.515042755946	1.86492869968043	20.4131260074784	-2.01300447872854	2.62155543121178	0.00130562763943864	0.00863098945149215
0.08	-12.6624611364572	-27.6778960251963	892.626523963852	1.9857842008868	20.2750779929991	-1.95108103988517	2.55161008023358	0.00144139080672911	0.0084687328132419
0.09	-12.8088864054396	-27.6527073804654	892.63911870837	2.10468528805567	20.1538764853498	-1.8859945608026	2.48006320091881	0.00157533363452678	0.00832792325370724
0.1	-13.0238765128834	-27.6869616041953	892.512644496858	2.2160422563436	20.0461258398004	-1.82268303193566	2.4120815619474	0.00170119166594263	0.00820564322881023
0.11	-13.2740326927368	-27.779999456222	892.230869456659	2.31606632218452	19.9458624012357	-1.76552259974079	2.35196633933587	0.00181469073731588	0.00809551100767897
0.12	-13.5157678828038	-27.9224540005232	891.806209534947	2.40252766752908	19.8454861375984	-1.71852276702956	2.30339646199353	0.00191326266965808	0.00798862392939043
0.13	-13.7011526961178	-28.0996221939874	891.279687573298	2.47412226138186	19.7373080096826	-1.68580939893279	2.27003193724112	0.00199532560765059	0.00787530858739943
0.14	-13.7851848831468	-28.2959944949368	890.716919090874	2.5298729437087	19.6153636341334	-1.67205919672806	2.25609829647155	0.00205961054246429	0.00774726579176954
0.15	-13.7330948420003	-28.4995037528811	890.200864790341	2.56888663133304	19.4769918572388	-1.68257052395805	2.26658805121276	0.00210489849631934	0.00759952678097392
0.16	-13.5262167449927	-28.7042598557931	889.821730044252	2.59056162603539	19.3236847505937	-1.72279471788314	2.30686392029068	0.00213027553663903	0.00743165402762885
0.17	-13.1652070570603	-28.9110688248295	889.664266183806	2.5951004246808	19.1609003508752	-1.79735201832078	2.38166966091815	0.00213574255963034	0.00724783103782423
0.18	-12.6699440205636	-29.1257079624868	889.793241213757	2.58403823201958	18.996835224147	-1.9087491069683	2.49377190839021	0.00212285056430994	0.00705581826389801
0.19	-12.0761692539188	-29.3555531868391	890.238964045683	2.56049664954946	18.8404733550255	-2.05614522852273	2.64260683087397	0.00209502789601579	0.00686508665614549
0.2	-11.4296448412938	-29.6055829152908	890.98595246648	2.5289978745919	18.6994468992094	-2.23454776284752	2.82334996805424	0.00205740474918503	0.00668466010816876
0.21	-10.7790945847695	-29.8749287399835	891.968368957077	2.49485702426766	18.5782881093293	-2.43474645586629	3.02675509811469	0.00201614460578803	0.00652123647907582
0.22	-10.1693385921065	-30.1549887779764	893.075102250847	2.46332534267501	18.4775123434251	-2.6441318196439	3.23993366082572	0.00197746923960973	0.00637801892964385
0.23	-9.63579917544071	-30.4297132551402	894.16526288546	2.43872812476021	18.3937079559212	-2.84832423038164	3.44801102229357	0.00194664928027	0.00625444218257021
0.24	-9.20106566856761	-30.678116228896	895.091962635855	2.42381837467901	18.3205178403091	-3.0333226195973	3.63636117316821	0.00192721369832238	0.00614671814948026
0.25	-8.87364951986661	-30.8784959133607	895.72959083087	2.41948080561501	18.2501759006572	-3.18772907300828	3.79295512592893	0.00192054089218174	0.0060489364866152
0.26	-8.64863019533162	-31.0133931910099	895.998416027026	2.42481624262933	18.1751691358603	-3.30456757188927	3.91031231635281	0.00192588041026354	0.00595438105341861
0.27	-8.50969919099465	-31.0740907045715	895.880782033561	2.43754975226955	18.0896384390054	-3.38230628408089	3.98663434790308	0.00194075697726537	0.00585675756285114
0.28	-8.4321487831296	-31.0635129507448	895.425257603276	2.45465233358653	17.9902684915432	-3.42488564086739	4.02589841689247	0.00196164485631078	0.00575113060451571
0.29	-8.38651573004013	-30.9967305811324	894.738047707646	2.47304459715027	17.8765859300974	-3.44078955916044	4.03693303740005	0.00198477051145596	0.00563448758169488
0.3	-8.34272238861883	-30.8988332647776	893.963773494485	2.49025392839995	17.750726032877	-3.4414066242952	4.03172130510634	0.00200689814189958	0.00550594027711848
0.31	-8.2745307404171	-30.8005860271945	893.259616112464	2.50491735839477	17.61680711873	-3.43905902508636	4.02332152574362	0.00202596975110159	0.00536662110723396
0.32	-8.16390481650775	-30.7328533448586	892.767556523745	2.51705574609389	17.4800669657639	-3.44510589009312	4.02383501243154	0.00204150423951366	0.0052193343483411
0.33	-8.00455497584041	-30.7210953122297	892.589270717545	2.52808525033377	17.3458913939286	-3.46846097206157	4.04279004030957	0.00205470246688277	0.00506800437108895
0.34	-7.80370449118096	-30.7812039409069	892.767589322704	2.54057188871296	17.2188358722057	-3.51473098666219	4.08617625777364	0.00206824884831458	0.00491695070108794
0.35	-7.58118420676904	-30.9175579078356	893.277587766983	2.55776740392972	17.1017314084494	-3.58601992512555	4.15619500283788	0.00208583732767575	0.00477003341469545
0.36	-7.36544099105152	-31.1235539176093	894.029313109983	2.58298801175727	16.9949791505312	-3.68129703791802	4.25163081471663	0.0021114791150465	0.00462975441385405
0.37	-7.18687573110116	-31.3842252138222	894.882650519373	2.61891692288327	16.8961552779622	-3.79712594020858	4.36863554952176	0.00214867746947878	0.00449645328092996
0.38	-7.06985009509692	-31.6800882210502	895.672752773279	2.6669338504464	16.8000397276097	-3.92852006723961	4.50167333832771	0.00219958871417691	0.00436777053029797
0.39	-7.02535695502212	-31.9911947445295	896.242030724823	2.72660006030473	16.6991269233696	-4.06972732808283	4.64440666608029	0.00226432721869363	0.00423853669921248
0.4	-7.04642523379341	-32.3005135786044	896.472580577546	2.79544269478595	16.5845738385499	-4.21483525810034	4.79039283464188	0.00234059796393937	0.00410116971094937
0.41	-7.10771271951798	-32.5961114912614	896.311949427105	2.86916398553061	16.447417564899	-4.35819185937208	4.93356942993695	0.00242382467861824	0.00394653902937309
0.42	-7.16958652473777	-32.8719852274525	895.785959535152	2.94232964126667	16.2797974868101	-4.49471648622111	5.06859465945421	0.0025078598167062	0.00376512308771143
0.43	-7.18568067342604	-33.1276761029637	894.995012959063	3.00946570540909	16.0758926398559	-4.62020009791537	5.19114170052583	0.0025862137871594	0.00354819794320588
0.44	-7.11191256597634	-33.3669255780145	894.094275126289	3.06634350281799	15.8323571552317	-4.73165863338499	5.29821755332572	0.00265355899693687	0.00328879109618613
0.45	-6.91458944077336	-33.5956460204089	893.262245894247	3.11111250352766	15.5481928733949	-4.82772696037914	5.38850543807724	0.00270711422778913	0.00298222474004056
0.46	-6.57565130482444	-33.8194769440013	892.665184903459	3.14491188371856	15.2241877897463	-4.9090010721401	5.46265262171582	0.00274746943621684	0.00262622738976542
0.47	-6.09410023392376	-34.0412458871655	892.425713432192	3.17169151091794	14.8622004387082	-4.97819110827728	5.523380700606	0.00277851711485322	0.00222075069015087
0.48	-5.48386750406613	-34.2587580122523	892.602416974273	3.19719219854414	14.4646188362865	-5.03995992887728	5.57530498973562	0.00280640478096827	0.00176772070437176
0.49	-4.76932739742908	-34.4634288847484	893.183975245445	3.22730836923996	14.0342389453985	-5.10038961710919	5.62441178347574	0.00283774012869709	0.00127093470469175
0.5	-3.98006459222574	-34.6402482877968	894.097394840786	3.26628303811352	13.5746155983153	-5.16611774492923	5.67723373537217	0.00287754946072294	0.000736187252886655
0.51	-3.1462773969547	-34.7693485107202	895.226602884317	3.31527011238996	13.0907116373436	-5.2432822733088	5.73985197422795	0.00292759973565015	0.000171527476297728
0.52	-2.29555239623606	-34.8290600945767	896.435917372785	3.3716977208881	12.5895045454093	-5.33647782203886	5.81691075657691	0.00298559060342385	-0.000412600238654193
0.53	-1.45103077814317	-34.7998782954895	897.5930093075	3.42961015214128	12.0801808135963	-5.44793934218139	5.91084168114829	0.00304543828367776	-0.00100361787073466
0.54	-0.63052713614474	-34.6684019385446	898.587484820703	3.48085350765672	11.5736765931338	-5.57713015431624	6.02145929358802	0.00309851895113533	-0.00158765898131502
0.55	0.153902313272932	-34.4302017018724	899.343285366153	3.51672383455952	11.0815585195173	-5.72082987003874	6.14601750682796	0.00313545533859927	-0.00215096985115087
0.56	0.896201848540229	-34.0908030688775	899.824862974842	3.5296062074467	10.6144824307188	-5.87371092170054	6.27972088456584	0.00314792085641857	-0.00268161572192094
0.57	1.59630811873451	-33.664479663772	900.038024148623	3.51421563443327	10.1806210080358	-6.02928225865206	6.41658468168079	0.00313002218556457	-0.00317110092737505
0.58	2.25965303925587	-33.1711798230537	900.02644672009	3.46824568888219	9.78446156146994	-6.18099138808731	6.55045551404053	0.00307903782761154	-0.0036155091057245
0.59	2.89599057118911	-32.6324365230983	899.864551969618	3.39243677647688	9.4262554432056	-6.32323784564597	6.6759656044508	0.00299552181967133	-0.00401589549923415
0.6	3.51757481301389	-32.0673585356248	899.647164963841	3.2902035953583	9.10221357853217	-6.4520799979427	6.78921592247727	0.00288292669416257	-0.00437785726167872
0.61	4.1369463591869	-31.4896976706902	899.476548493164	3.16697725516281	8.80536245465876	-6.56551043350797	6.88806710534269	0.00274691841355357	-0.00471039559905251
0.62	4.76470652893665	-30.9065945116949	899.447955942354	3.02935545148878	8.52685180667524	-6.66330557429232	6.97203736257767	0.00259448522541739	-0.00502431350416771
0.63	5.40764670810049	-30.3190842535161	899.635543753824	2.88408885924641	8.25745136503371	-6.74657703445274	7.04192097200919	0.00243286624095185	-0.0053304504286863
0.64	6.06750963977647	-29.7239826313098	900.080939517508	2.73693161176715	7.98897312440987	-6.81722070701731	7.09930632194366	0.00226832166855973	-0.0056380550838902
0.65	6.7405673164246	-29.1165041446891	900.786689025908	2.59146738902287	7.71538516104302	-6.87745137273851	7.14616589404553	0.0021048581344032	-0.00595356137795566
0.66	7.41813466359066	-28.492925585966	901.71611935755	2.44814684686789	7.43343284965416	-6.92953621098124	7.18462147210085	0.0019431623097439	-0.00627997036852784
0.67	8.0880616117504	-27.852738587277	902.799983383365	2.30385401242113	7.14265871020016	-6.97573851808212	7.21689282432061	0.00178009197834972	-0.00661694826680931
0.68	8.73709442710956	-27.1999343746032	903.948870481956	2.15228244954309	6.84482108525686	-7.01839926678486	7.24536109138934	0.00160903961380532	-0.00696162065998962
0.69	9.35374888948931	-26.5432501432794	905.069111319826	1.98522045639277	6.54284623575453	-7.06004802951563	7.27264664121034	0.00142128870835101	-0.00730988806959243
0.7	9.93106160398496	-25.8953512909298	906.079078968481	1.79456210618673	6.23957356864046	-7.10344498379745	7.3016131480525	0.00120817420439878	-0.00765794808245229
0.71	10.4684265589336	-25.271044690201	906.922617309576	1.57457712984635	5.93661768432002	-7.15148645315665	7.33523938079617	0.000963544521346726	-0.00800364262785919
0.72	10.9718263886035	-24.684742244338	907.576900967093	1.32380298577481	5.63363223084302	-7.20692882986648	7.37631951970048	0.000685831545300108	-0.00834730073621043
0.73	11.4521738391034	-24.1475238877533	908.053266453629	1.04595119630783	5.32811877001298	-7.27189062380289	7.42695390798274	0.000379060541831011	-0.00869191592993868
0.74	11.9220692633671	-23.6642554790476	908.391181915034	0.74946423970722	5.01573202451387	-7.34709898286329	7.4877956830969	5.23946660342389e-05	-0.00904272212799218
0.75	12.3918076218754	-23.231257899831	908.647127368287	0.445757171323399	4.69087799550482	-7.43089004677324	7.55706059093578	-0.000281757910908786	-0.00940641370550199
0.76	12.8656824751162	-22.8349749639832	908.88128875712	0.146605248936386	4.34736001404549	-7.518074382284	7.6294101154511	-0.000610578122203553	-0.00979030726888486
0.77	13.3394287049931	-22.451959101695	909.145294300198	-0.138551742519885	3.97892031727244	-7.59892376484207	7.69496504078192	-0.000923773572071851	-0.0102016407369123
0.78	13.7991400713722	-22.0503192776794	909.47365098308	-0.404543189307752	3.57969722301123	-7.65866363085455	7.73883560029995	-0.00121569584302095	-0.0106470090527613
0.79	14.2214874603737	-21.5925877653048	909.8802683314	-0.650996396165547	3.14476549050053	-7.67788439431063	7.74158130231749	-0.00148593108736661	-0.0111317625329637
0.8	14.5748506381625	-21.0397732629249	910.359902215734	-0.881244140660687	2.67095071953413	-7.63415295908191	7.68087627723387	-0.00173812166821463	-0.0116591555743395
0.81	14.8211734979876	-20.3561744929075	910.893007875494	-1.099914720286	2.15797329506201	-7.50481407964399	7.53435716516633	-0.0019773448717334	-0.0122291710399798
0.82	14.9187866581698	-19.5143379959089	911.451768738265	-1.30995483681282	1.60974001168667	-7.27059872381988	7.28325275250522	-0.00220686477226684	-0.0128371992890329
0.83	14.8267311577538	-18.4993952133574	912.005165301502	-1.51006107592308	1.03538377082669	-6.91933599760055	6.91607444459815	-0.00242532254997441	-0.0134729879314711
0.84	14.5109048454232	-17.3119751825359	912.521795832157	-1.69341686384361	0.449576358129383	-6.44892678188447	6.43151662898107	-0.00262534704485629	-0.014120364007231
0.85	13.9515566240314	-15.9690273820449	912.970435079645	-1.84825824944107	-0.128235059067116	-5.86884796386315	5.83984167378079	-0.00279416072349559	-0.0147580989084346
0.86	13.1505818896977	-14.5022294100942	913.319534247092	-1.96022885048592	-0.675725939966522	-5.19978644981085	5.16237131636515	-0.00291614116710526	-0.0153619754266384
0.87	12.1363072863091	-12.9541494094746	913.537531073505	-2.01590686692486	-1.17043948796822	-4.47143925440249	4.42915517862414	-0.0029766662646733	-0.0159077460013884
0.88	10.9635421330397	-11.3728631069458	913.595630729054	-2.00648740925959	-1.59282470499481	-3.71891635528572	3.67528908715325	-0.0029661332422668	-0.0163743863040249
0.89	9.70780111680758	-9.80612700890337	913.473637704935	-1.93052357684115	-1.92892219386114	-2.97843499472053	2.9365972995587	-0.00288295338446043	-0.0167469536638755
0.9	8.45443083223143	-8.29633299122579	913.1678373543	-1.79490485197568	-2.17216021746972	-2.28305727445154	2.24543620467716	-0.00273462446623451	-0.017018479699635
0.91	7.2851675807469	-6.87724127471456	912.698474342378	-1.61379055052969	-2.32397647644797	-1.65912691699839	1.62725899804639	-0.00253657202181667	-0.0171906018000923
0.92	6.26563266555827	-5.57295338496038	912.113700787549	-1.40583377943157	-2.39327913742323	-1.1238724218442	1.09837543292357	-0.00230912548548368	-0.0172729593350909
0.93	5.43698951971437	-4.39890780312926	911.487353189667	-1.19051831884476	-2.39500243144674	-0.684425189353514	0.665116233310917	-0.00207352690099105	-0.0172816376108808
0.94	4.81355704706381	-3.36409039091502	910.909503965725	-0.984633275497536	-2.34813386047851	-0.338287700304651	0.324404570437034	-0.0018480902452056	-0.0172370673782661
0.95	4.38620274422029	-2.47336238833375	910.470923284229	-0.799783452369285	-2.27358180225875	-0.0750884435160475	0.0655538611449945	-0.00164548991421765	-0.0171617711808351
0.96	4.1296276115105	-1.72892712660048	910.244638680943	-0.641448806836821	-2.19215019833505	0.120719357710041	-0.127050271139122	-0.00147173651330534	-0.0170782311767093
0.97	4.01082051221539	-1.1304328025432	910.2689966199	-0.509614333096695	-2.12275116185303	0.266703334412034	-0.270856160145298	-0.00132686139897187	-0.0170070031432424
0.98	3.99618374942404	-0.67385210814762	910.536612273174	-0.400558060701283	-2.08087695176043	0.37940868997238	-0.382183586917529	-0.00120685965612655	-0.0169650843242021
0.99	4.05584085930771	-0.349835633478987	910.992354398511	-0.309131679342118	-2.07731117797798	0.471969497780722	-0.473912809864849	-0.00110616708040101	-0.0169645033094188
1	4.1649007340965	-0.142491223934026	911.54142594332	-0.230840900913972	-2.11709555294793	0.552775248785491	-0.554209190500557	-0.00101991870386731	-0.0170111482609677
1.01	4.30246137361139	-0.0294091269876763	912.066238245228	-0.163200845670996	-2.19885779845119	0.625350181095438	-0.626433761458876	-0.000945420439927291	-0.0171039563936592
1.02	4.44961782553248	0.016697733634912	912.448717476496	-0.106125877188017	-2.31469474237739	0.689317848257648	-0.690113801332179	-0.000882574183321938	-0.0172346921976136
1.03	4.58769945665368	0.0249494214184279	912.593385191895	-0.0614181063731677	-2.45082959581054	0.742077420862609	-0.742607356797269	-0.00083332661514679	-0.0173885742848535
1.04	4.69759014306712	0.0225487303793854	912.446295889155	-0.0316606048716605	-2.5891798094778	0.780684807429808	-0.780964344624028	-0.00080047293105745	-0.0175459213201311
1.05	4.76049646351232	0.0312497030078626	912.005758860212	-0.0189448106832408	-2.70978008268749	0.803446919189588	-0.803501001410714	-0.000786279593251948	-0.0176847736354566
1.06	4.76005813890819	0.0648834427080019	911.322556147301	-0.0238477684811986	-2.79375269277809	0.810885306253186	-0.810749318447313	-0.000791375184987175	-0.0177841623496444
1.07	4.68528600350989	0.128448700442302	910.489702615348	-0.0449433829554339	-2.82628950078111	0.805945406824571	-0.805659563759812	-0.000814216908217924	-0.0178274369489877
1.08	4.53348359677105	0.218842306914141	909.624121118671	-0.0789349291713811	-2.79899785004633	0.793540574642046	-0.793143976260287	-0.000851228258359371	-0.0178049278433997
1.09	4.31212046089374	0.326921171369849	908.844341094201	-0.121301877697408	-2.71102835125636	0.779660384785571	-0.779188358715174	-0.00089749415217899	-0.0177152838628181
1.1	4.03869464124984	0.440351185851182	908.249038478311	-0.167223368774242	-2.56865409009737	0.770312954699969	-0.769798227758091	-0.000947758494836859	-0.0175650973796902
1.11	3.73805169035782	0.546629777294981	907.900775530546	-0.212504929206076	-2.38335369579607	0.770527363508483	-0.770003347415584	-0.000997429808631822	-0.0173668533581322
1.12	3.4373999561146	0.635727616972628	907.817859498232	-0.254287049215939	-2.16886000710399	0.783560240391101	-0.783063893263705	-0.00104335549743761	-0.0171356972328247
1.13	3.16016974464192	0.701920483349852	907.975261286741	-0.291415802143957	-1.937944821974	0.810378393700043	-0.809950731906897	-0.0010842336519169	-0.016885868124015
1.14	2.92054628255974	0.744532725765899	908.313555145468	-0.324458637047602	-1.69980876824527	0.849452708817384	-0.849136567952022	-0.00112064138619616	-0.0166277643418457
1.15	2.72059788315572	0.767480916142734	908.75331597435	-0.355418080274984	-1.45878121395656	0.89689041659046	-0.896726670038712	-0.00115473339866756	-0.0163664361147912
1.16	2.55124547609608	0.777700582286603	909.211612132058	-0.387224548838998	-1.21463970824632	0.946923129589649	-0.946947465276342	-0.00118969562906646	-0.0161018680205461
1.17	2.39702473141686	0.782759654618771	909.617218800062	-0.423093114406387	-0.964346939916042	0.992727571296715	-0.99296963674184	-0.0012290442554892	-0.0158308468893832
1.18	2.24313629679547	0.788174957095929	909.921839368303	-0.465832185995423	-0.704542808871708	1.02747965024352	-1.02796497187891	-0.00127586588239659	-0.015549695375179
