Time [s]	GRFml [N]	GRFap [N]	GRFv [N]	Mml [N.m]	Map [N.m]	Mv [N.m]	Mfree [N.m]	COPml [m]	COPap [m]
0.01	5.5373669497753	8.64762655851806	734.176289368318	-55.6517174758025	-3.3724729706919	-1.4858443099257	-1.02638174009156	0.00312074929304647	0.00819561868570032
0.02	5.80073184022336	8.34137258827148	733.70695686771	-55.6435550334493	-3.50125298626338	-1.48345041312226	-1.00371106954515	0.00294125439448187	0.00823257224470689
0.03	6.06076979630124	8.04181268257298	733.241794397746	-55.6344146529631	-3.62826462610654	-1.48138818409846	-0.981711401387484	0.00276421006992711	0.00826772931474466
0.04	6.31352524207431	7.75449324123455	732.785082527213	-55.6228888934487	-3.75165121861733	-1.47972375910572	-0.960751742594301	0.00259217447723028	0.00829869606550297
0.05	6.55525387165113	7.48447236872743	732.340484292655	-55.6074845963429	-3.86969781400731	-1.4784849539428	-0.941144408002883	0.00242749773632572	0.00832302995943472
0.06	6.78254042387267	7.23610824076208	731.910955311418	-55.5866869820501	-3.98088898944383	-1.47765452115055	-0.923130243177686	0.00227224542795389	0.00833833628364525
0.07	6.99240251607982	7.01288398906495	731.498696461034	-55.5590264639529	-4.08395685072894	-1.47716632476253	-0.906867836450891	0.00212813700961934	0.00834236339823201
0.08	7.18237654496654	6.81727846224088	731.105151007433	-55.5231451760907	-4.17791716645182	-1.47690488751175	-0.892427329888229	0.00199650123264086	0.00833309272840992
0.09	7.3505825424047	6.65068924094154	730.73104514444	-55.4778602612151	-4.26209228252763	-1.47670850242828	-0.87978914083963	0.00187824959471365	0.00830881992931858
0.1	7.49576588943169	6.51341097645491	730.376468093195	-55.422221127147	-4.336120236243	-1.47637582604768	-0.868847603189862	0.00177386787965591	0.00826822412018612
0.11	7.6173148844259	6.40466872717791	730.040985428965	-55.3555581441604	-4.3999502641148	-1.47567560717933	-0.859419248361382	0.00168342497092232	0.00821042259863901
0.12	7.71525426842918	6.32270272277311	729.723777335323	-55.2775206151751	-4.45382562380715	-1.47435897320787	-0.851255184684083	0.00160659740449004	0.00813500899986429
0.13	7.79021586936069	6.26489810200133	729.42379215445	-55.1881022917979	-4.49825528044911	-1.47217351092087	-0.844056811054756	0.00154270755690648	0.00804207346009367
0.14	7.8433884818494	6.22795081999396	729.139904965626	-55.0876532175628	-4.53397650550642	-1.46887825194348	-0.837493925749012	0.0014907729407992	0.00793220398144348
0.15	7.8764499053848	6.20805922900232	728.871070978022	-54.9768772368602	-4.56191077781227	-1.46425861028897	-0.831224170992654	0.00144956379373486	0.00780646887244807
0.16	7.891484687969	6.20112987510457	728.616464210685	-54.8568150930714	-4.58311555064006	-1.4581403228956	-0.824912693997824	0.00141766598880153	0.00766638084373729
0.17	7.89089154653224	6.20298583927043	728.375593152465	-54.7288136294541	-4.598734457882	-1.45040151057262	-0.818250909192981	0.00139354626206114	0.00751384404931243
0.18	7.8772846533091	6.20956645045317	728.148386720868	-54.5944821775626	-4.60994839003169	-1.44098209996912	-0.810973315237035	0.00137561684149006	0.00735108605042306
0.19	7.8533929952652	6.21710833185239	727.935245732489	-54.455637746974	-4.61792959957899	-1.42989001729665	-0.802871451572289	0.00136229677289384	0.00718057730594811
0.2	7.82196184743665	6.22229939414766	727.737057121552	-54.3142410950052	-4.62380062500387	-1.41720376943554	-0.793804266122448	0.00135206756579562	0.00700494132496715
0.21	7.78566007406201	6.22239942139817	727.555170172444	-54.1723261369029	-4.62859938590442	-1.40307125394564	-0.78370439733909	0.00134352121485804	0.00682685902263303
0.22	7.74699651198551	6.21532315336978	727.391335963297	-54.0319254404227	-4.63325133295781	-1.38770487174541	-0.772580135186213	0.00133539916948681	0.0066489710760769
0.23	7.70824813000039	6.19968409775772	727.247612972367	-53.8949947229883	-4.63854906795611	-1.37137324014788	-0.760513098776084	0.00132662139628545	0.00647378216932926
0.24	7.67140202727853	6.17479956172613	727.126243326304	-53.7633393287847	-4.64513941020047	-1.35439000563539	-0.747651933546649	0.00131630526913232	0.00630357094195322
0.25	7.63811266459167	6.14065944695202	727.029505444133	-53.6385456061462	-4.65351750030043	-1.33710042283932	-0.734202568609922	0.00130377458917861	0.00614030922162188
0.26	7.60967504237515	6.09786310303539	726.959549849607	-53.5219199360711	-4.66402721926674	-1.31986648852675	-0.720415767836986	0.00128855954199809	0.00598559374034151
0.27	7.58701387561524	6.04752990643407	726.918225699469	-53.4144378884595	-4.67686697167013	-1.30305148971704	-0.706572842903066	0.00127038880671082	0.00584059302711769
0.28	7.57068818947999	5.99119018201389	726.906906125443	-53.3167056150967	-4.69209974198003	-1.28700483946391	-0.692970464652423	0.00124917531672187	0.00570601155980489
0.29	7.56091019040332	5.93066359760908	726.926320831105	-53.2289351416484	-4.70966628207244	-1.27204803216226	-0.679905508488301	0.00122499732046479	0.00558207257079367
0.3	7.55757677025388	5.86793225164963	726.97640452843	-53.1509347111794	-4.72940031856294	-1.25846245612343	-0.667660803806096	0.00119807640322856	0.0054685201611461
0.31	7.5603115881477	5.8050153761472	727.056169733068	-53.0821147765229	-4.75104476935592	-1.24647966193159	-0.65649253593545	0.00116875402053945	0.00536464061237629
0.32	7.56851535411057	5.74385194649317	727.163612132463	-53.0215096566252	-4.77426811399791	-1.23627451129432	-0.646619885030939	0.00113746788304509	0.00526930202136118
0.33	7.58142171701992	5.68619659240287	727.295656148083	-52.9678142816639	-4.79868025390438	-1.22796143574352	-0.638217295899976	0.00110472925309538	0.00518101064941744
0.34	7.59815603937672	5.63353311437919	727.448147371857	-52.9194348723797	-4.82384740699175	-1.22159383210083	-0.631409572846406	0.00107110189828628	0.00509798169920454
0.35	7.61779432455809	5.58700870193829	727.615897205939	-52.8745518497696	-4.84930578773384	-1.21716642684186	-0.6262698004321	0.00103718313056664	0.00501822164023247
0.36	7.63941964733154	5.5473906948441	727.792783226516	-52.8311927708725	-4.87457401095663	-1.21462026815708	-0.622819918579907	0.00100358707044054	0.0049396187212858
0.37	7.66217362261937	5.5150464911883	727.971906508242	-52.7873126531309	-4.89916431150852	-1.21384986425031	-0.621033639312493	0.000970930037003145	0.0048600379589933
0.38	7.68530072565542	5.4899460416843	728.145804410864	-52.7408787010317	-4.92259278188391	-1.21471188775275	-0.620841289357662	0.000939817790611764	0.00477741669451823
0.39	7.70818364108574	5.47168532320831	728.306714222455	-52.6899562002872	-4.9443888899955	-1.21703481377935	-0.62213610047629	0.000910834252143875	0.00468985677738278
0.4	7.73036825849986	5.45952829129406	728.446879711023	-52.632792210458	-4.96410454835658	-1.22062885376049	-0.624781446502531	0.000884531289628965	0.00459570957208852
0.41	7.75157743311957	5.45246409597759	728.558889250627	-52.5678936776108	-4.98132296731444	-1.22529558545857	-0.62861853838761	0.000861419191988053	0.00449365028689933
0.42	7.77171317495009	5.44927582395693	728.636030997583	-52.4940967116228	-4.99566744614218	-1.23083675486495	-0.633474129409369	0.000841957528778184	0.00438273858420382
0.43	7.79084749597422	5.44861670994938	728.672647864363	-52.4106240309273	-5.00681014751854	-1.23706182882843	-0.639167844325913	0.000826546209922088	0.00426246302957926
0.44	7.80920270817349	5.44908964115283	728.664473047391	-52.3171279683709	-5.01448077620712	-1.24379399780428	-0.64551882059676	0.000815516695426273	0.00413276764598917
0.45	7.82712249839638	5.44932585345612	728.608925865483	-52.2137169470717	-5.01847495561576	-1.25087445540019	-0.652351429564845	0.000809123447685692	0.00399405962811333
0.46	7.84503558179298	5.44805897247514	728.50534786741	-52.1009639601265	-5.01866198019767	-1.25816490575129	-0.659499924752906	0.000807535855212476	0.00384719810240811
0.47	7.86341412717532	5.44419096650909	728.355160708558	-51.9798963018302	-5.01499152983265	-1.26554836329239	-0.666811938947048	0.000810830975365196	0.00369346465086287
0.48	7.8827294316204	5.43684712658081	728.161930224354	-51.851966573938	-5.00749887459754	-1.27292840656759	-0.674150818975284	0.000818987535596051	0.00353451710929313
0.49	7.90340747897052	5.4254178407582	727.931325383007	-51.7190057964492	-4.99630808189632	-1.28022712498861	-0.681396845872498	0.000831881690316661	0.00337232886445409
0.5	7.92578703492165	5.40958565244756	727.670966211393	-51.5831602524617	-4.98163276651709	-1.28738205359344	-0.688447438162512	0.000849285047874901	0.00320911647201294
0.51	7.95008280492241	5.38933684983636	727.390161077488	-51.4468144524511	-4.96377399790139	-1.29434242602907	-0.695216477320037	0.000870865455367193	0.00304725886926478
0.52	7.97635591316755	5.36495759041092	727.099540508738	-51.3125032759694	-4.94311509420348	-1.30106509125711	-0.701632927024036	0.000896190956364944	0.00288921174034408
0.53	8.00449356306207	5.33701528631134	726.810601585226	-51.1828169010096	-4.92011318264244	-1.30751043633609	-0.707638941153275	0.000924737219209213	0.00273742069536617
0.54	8.0341992312473	5.30632663236399	726.535183386585	-51.0603025299475	-4.89528758031825	-1.31363863763758	-0.713187668841445	0.000955898575782889	0.00259423684714814
0.55	8.0649941553347	5.27391422292586	726.284899505339	-50.9473671391396	-4.86920523688789	-1.31940652757261	-0.718240967434903	0.000989002620821679	0.00246183811979049
0.56	8.09623023221046	5.24095415607476	726.07055781498	-50.8461854984876	-4.84246366666856	-1.32476531500441	-0.722767225265038	0.00102332811178222	0.00234215922278401
0.57	8.12711378516164	5.2087173505757	725.90160012053	-50.7586175192046	-4.81567196885641	-1.32965933696942	-0.726739475759517	0.0010581256940569	0.00223683270153703
0.58	8.15673902167957	5.17850749538799	725.785594752197	-50.6861385955499	-4.78943067741091	-1.33402594960539	-0.730133953438418	0.00109264077281942	0.00214714286566184
0.59	8.18412942652486	5.15159861228823	725.727813453814	-50.6297860239935	-4.76431128549355	-1.33779659042009	-0.732929202573701	0.00112613767812484	0.00207399373861927
0.6	8.2082848506882	5.1291751437511	725.730920083092	-50.5901238371002	-4.74083634488207	-1.34089896599534	-0.735105803335841	0.00115792413949971	0.00201789150506775
0.61	8.22823169582866	5.11227728901093	725.794792852963	-50.5672275156314	-4.71946104394423	-1.34326024314589	-0.736646731218398	0.00118737501202657	0.00197894129132348
0.62	8.24307337884887	5.10175401279029	725.916494423379	-50.5606890857713	-4.70055711806974	-1.34481105185598	-0.737538316655369	0.00121395418478062	0.00195685753039251
0.63	8.25203820782184	5.09822575734723	726.090395549821	-50.5696421198781	-4.68439984743079	-1.34549004921893	-0.737771726022698	0.00123723365563857	0.0019509866600986
0.64	8.25452191469937	5.10205841480576	726.308448754959	-50.592805192732	-4.67115875555546	-1.34524874876619	-0.737344845127392	0.00125690886953889	0.00196034049762263
0.65	8.250122368241	5.11334958032313	726.560599217795	-50.6285414546564	-4.66089244806881	-1.34405629178874	-0.73626441368613	0.00127280958103313	0.00198363833578653
0.66	8.23866441818081	5.13192752641782	726.835311389432	-50.6749312181134	-4.65354783531063	-1.341903828282	-0.734548235431279	0.00128490570386871	0.00201935561864887
0.67	8.22021337466479	5.15736273581197	727.120182334913	-50.7298538583863	-4.64896377718584	-1.33880818564272	-0.732227274157312	0.00129330783618016	0.00206577697391826
0.68	8.19507627266973	5.18899122805397	727.402606981988	-50.7910749347937	-4.64687898504028	-1.33481453282445	-0.72934744177883	0.0012982623854322	0.00212105140051072
0.69	8.1637907700891	5.22594834020047	727.670456736491	-50.8563342674984	-4.64694382409327	-1.3299977950005	-0.725970890758267	0.00130014144969236	0.00218324752116338
0.7	8.1271022371242	5.26721110223859	727.912731569262	-50.9234307639473	-4.64873549008135	-1.32446263677162	-0.722176640481037	0.00129942783043247	0.00225040699978811
0.71	8.08593026931587	5.31164691276032	728.120146805887	-50.9903000720576	-4.65177589268248	-1.31834190777762	-0.718060395590481	0.00129669574870706	0.00232059447662143
0.72	8.04132645498521	5.3580658974051	728.285619412122	-51.0550816248975	-4.65555147160647	-1.31179352977661	-0.713733453887281	0.00129258800545459	0.00239194267483671
0.73	7.99442571328052	5.40527414561558	728.404624363157	-51.1161723022798	-4.65953410272719	-1.30499589478334	-0.709320651448183	0.00128779046397033	0.00246269166218839
0.74	7.94639386263017	5.45212498755746	728.475399370815	-51.1722647270533	-4.66320222323048	-1.29814193507909	-0.704957351478852	0.00128300483573863	0.00253122159126096
0.75	7.89837426231929	5.49756560090818	728.49898535683	-51.2223690895505	-4.66606131659471	-1.29143211271097	-0.700785548279221	0.00127892081784307	0.00259607857231661
0.76	7.85143638446402	5.5406765243013	728.479100048932	-51.2658183003947	-4.66766294873374	-1.28506665308872	-0.696949224567525	0.00127618865921719	0.00265599363457894
0.77	7.80652902359912	5.58070208704121	728.42185232704	-51.3022571570249	-4.66762163264248	-1.27923740906157	-0.69358916427355	0.00127539322199241	0.00270989498828796
0.78	7.76444055087024	5.61707031920203	728.335314823967	-51.3316170231442	-4.66562891576906	-1.27411978339657	-0.690837478157845	0.00127703055099233	0.00275691399820692
0.79	7.72576819297642	5.64940154934404	728.228981166583	-51.3540782190834	-4.66146422617248	-1.26986515469125	-0.688812140598573	0.00128148786733806	0.00279638541219641
0.8	7.690897792924	5.67750558922899	728.113141558322	-51.3700228695645	-4.65500217323868	-1.26659424154122	-0.687611857617949	0.00128902776090061	0.0028278424554839
0.81	7.65999492488854	5.70136810290285	727.998215667221	-51.3799813285943	-4.64621616827689	-1.2643918010687	-0.687311585029296	0.00129977717326523	0.00285100740905359
0.82	7.63300762496985	5.72112741769022	727.894084629913	-51.3845754856207	-4.63517840089644	-1.26330299155755	-0.687958989703331	0.00131372154397327	0.00286577825266199
0.83	7.60968039801668	5.73704361589595	727.809464191534	-51.3844622505809	-4.62205636941302	-1.26333163797622	-0.689572096875003	0.00133070424855091	0.00287221188826002
0.84	7.58957859908897	5.74946221238046	727.75135852155	-51.3802803271001	-4.60710630837598	-1.26444052878149	-0.692138295020005	0.00135043120222592	0.00287050439013813
0.85	7.57212179239794	5.75877504590347	727.724629199102	-51.3726030318348	-4.59066397493045	-1.26655374963801	-0.69561478223319	0.00137248025692649	0.0028609686762104
0.86	7.55662428045655	5.76538117103178	727.731706546498	-51.3618994311851	-4.57313334068236	-1.26956093303811	-0.699930441171508	0.00139631480160652	0.00284400997981711
0.87	7.54234068508436	5.76965052163039	727.772461363556	-51.3485054781158	-4.55497378160894	-1.27332318152014	-0.704989031610011	0.00142130080674658	0.00282009953638594
0.88	7.52851425734192	5.77189292523525	727.844244769389	-51.332606179625	-4.53668636271576	-1.27768031552532	-0.710673499037809	0.00144672644873692	0.00278974698864665
0.89	7.51442549787277	5.77233468816467	727.942092976272	-51.3142291493697	-4.5187997773015	-1.28245901332171	-0.716851122563277	0.00147182341771175	0.00275347215194764
0.9	7.49943868093999	5.77110446147262	728.059083133747	-51.2932492394373	-4.50185642723398	-1.28748135659431	-0.723379172446666	0.00149578905344151	0.00271177695126511
0.91	7.48304399002154	5.7682294639227	728.186816614427	-51.2694033367842	-4.48639902852833	-1.29257327558982	-0.730110721496664	0.00151780855879282	0.00266511851843344
0.92	7.46489318317213	5.76364241428002	728.315997930041	-51.2423138850217	-4.47295800677362	-1.29757240355543	-0.736900257399645	0.00153707669114548	0.00261388459063092
0.93	7.44482700346686	5.75719875267048	728.43707141996	-51.2115192758484	-4.46203982269505	-1.30233489997602	-0.743608773966527	0.0015528185049911	0.00255837244597225
0.94	7.42289292281381	5.74870295641429	728.540874344147	-51.1765089632734	-4.45411625326154	-1.30674088119539	-0.750108074646181	0.00156430888716927	0.00249877261874963
0.95	7.39935224339793	5.73794202996269	728.619264254293	-51.1367609958821	-4.44961456140085	-1.31069819832879	-0.75628409542271	0.00157089076483269	0.00243515853251863
0.96	7.37467606509683	5.72472362249046	728.665680528095	-51.0917796370994	-4.44890842842284	-1.31414441714864	-0.762039138635167	0.00157199195571751	0.00236748296250013
0.97	7.34953014242961	5.70891574901342	728.67560455233	-51.0411308422656	-4.4523095048853	-1.31704697330933	-0.767292995799865	0.00156714065947983	0.00229558189268209
0.98	7.32474918197818	5.69048480429091	728.646889870867	-50.9844735696411	-4.46005946042534	-1.31940158960718	-0.771983017904801	0.00155597955657783	0.00221918588607205
0.99	7.30130164984094	5.6695284962668	728.579942166229	-50.9215852013416	-4.472322478448	-1.32122914190672	-0.776063258870933	0.0015382783962294	0.00213793857204221
1	7.28024664587713	5.64630050735166	728.477738604908	-50.8523797187997	-4.48917823987168	-1.3225712408164	-0.77950286698693	0.0015139448345847	0.00205142131797051
1.01	7.26268483325723	5.62122412145179	728.345686178853	-50.7769176948147	-4.51061555935191	-1.32348485343539	-0.782283927707963	0.00148303315134752	0.00195918264635074
1.02	7.24970576351792	5.59489271836078	728.191328546398	-50.6954076111116	-4.53652696230434	-1.32403632220911	-0.784398969459361	0.00144575035284026	0.00186077053792072
1.03	7.24233418492305	5.56805590226331	728.023919889342	-50.6081984691244	-4.56670460477776	-1.3242951469881	-0.785848334495136	0.00140245908580041	0.00175576547593445
1.04	7.24147804384508	5.54159104692003	727.853891922105	-50.5157641168651	-4.60083802413191	-1.32432788435858	-0.786637593604948	0.00135367675838047	0.00164381197485701
1.05	7.24788086813549	5.51646114014364	727.692245999683	-50.4186801517506	-4.63851425194327	-1.32419248891174	-0.786775151612391	0.00130007030537939	0.001524646419871
1.06	7.26208104822983	5.49366091625612	727.549906003232	-50.3175946638068	-4.67922081070602	-1.32393337860882	-0.786270155310799	0.00124244614795794	0.00139811932245842
1.07	7.28438020577263	5.47415429295219	727.437069217657	-50.2131944407059	-4.72235204688116	-1.32357745508833	-0.785130781253038	0.00118173507991809	0.00126421055113039
1.08	7.31482237199507	5.45880699444335	727.362591784183	-50.1061685494513	-4.76721912471594	-1.32313125360428	-0.783362951008678	0.00111897205146758	0.00112303668447927
1.09	7.35318511225201	5.44831886959915	727.333442673971	-49.9971714222413	-4.81306382415686	-1.32257933959649	-0.780969498063183	0.00105527109974318	0.000974850300113711
1.1	7.39898306383557	5.4431607403434	727.354255754563	-49.8867876893089	-4.85907606393733	-1.32188401219353	-0.777949793945132	0.000991795971871328	0.000820031692783885
1.11	7.45148364544091	5.44352060082825	727.427003754472	-49.7755010044036	-4.90441482402642	-1.32098632089252	-0.77429983063891	0.000929727277998785	0.00065907414180745
1.12	7.50973399797697	5.44926361615719	727.550811162223	-49.6636689879314	-4.94823188970368	-1.31980835108366	-0.770012750116789	0.000870227275919329	0.000492564361614808
1.13	7.5725975781572	5.45990965256367	727.721915728691	-49.5515061635053	-4.98969760351536	-1.31825668715028	-0.76507980757221	0.000814403605192963	0.000321160122383146
1.14	7.63879829480381	5.4746310485502	727.933780667505	-49.4390763884501	-5.02802761157403	-1.31622691830386	-0.759491750146074	0.000763273439978319	0.000145567190291879
1.15	7.7069696909179	5.49227207338246	728.177352227385	-49.3262957893713	-5.06250944494246	-1.31360901173403	-0.753240585309779	0.000717729603503282	-3.34823012218544e-05
1.16	7.77570645833613	5.51139010097738	728.441450357058	-49.2129466313268	-5.09252769906575	-1.31029333996502	-0.746321700851962	0.000678510175396313	-0.000215248166849341
1.17	7.84361553845155	5.5303170532906	728.713273961177	-49.0987019032791	-5.11758657315167	-1.30617711502469	-0.738736280685363	0.000646173023395471	-0.000398995681255412
1.18	7.90936420999807	5.54723824402428	728.978996966417	-48.98315973037	-5.13732861003837	-1.30117095249578	-0.730493937543784	0.000621076505981507	-0.000584003310783621
