Time [s]	GRFml [N]	GRFap [N]	GRFv [N]	Mml [N.m]	Map [N.m]	Mv [N.m]	Mfree [N.m]	COPml [m]	COPap [m]
0.01	-3.67683127732347	1.55785643207311	930.26306280548	-12.3686894384508	-12.6377378363923	1.53771650757205	-1.46779409264337	-0.00229597936145576	0.00333672189843504
0.02	-4.77832046399721	1.47456907326721	931.303898653181	-12.2186218924141	-12.3434721169463	1.56199515469556	-1.48060436776888	-0.00211761316517967	0.00367363544119481
0.03	-5.75566636862738	1.34579843841041	932.362466054521	-12.0676193636356	-12.0780240394458	1.5864705548727	-1.49564488150378	-0.00193842132746813	0.00397899069085728
0.04	-6.5318945019969	1.13852026731593	933.450983157018	-11.9125316232302	-11.8553639858607	1.61419842083467	-1.51722141712125	-0.00175517938179415	0.00423700963752732
0.05	-7.06630851358382	0.844700933565824	934.592050130293	-11.7577582114793	-11.691360644397	1.64727636524261	-1.54793476536938	-0.00157231684439907	0.00443070036579291
0.06	-7.35146486389441	0.483185102132811	935.828783005792	-11.6177713507059	-11.6069172859941	1.6851909010708	-1.5870768865581	-0.00140440359545446	0.00453890232058118
0.07	-7.39899937838738	0.0934003501070177	937.226487833057	-11.5166286861448	-11.6294759946997	1.72330978678101	-1.62941412965624	-0.00127563573881762	0.00453473145206279
0.08	-7.22057475762372	-0.276183067145268	938.859341101388	-11.4842349830028	-11.7919414690506	1.75227350784517	-1.66497983325586	-0.00121616164142679	0.00438630149099728
0.09	-6.81284659879645	-0.580450383845741	940.780656322975	-11.5498829688863	-12.1285070853309	1.75895737786856	-1.68036529586131	-0.0012558115386947	0.00406026533110221
0.1	-6.15410200784055	-0.786848859272588	942.983102337962	-11.7343930859782	-12.6677644757845	1.72921781202973	-1.66156802334996	-0.00141649897509888	0.00352793920756561
0.11	-5.21539643626851	-0.879126273729916	945.362149091146	-12.042756317024	-13.4245776235522	1.65195550489924	-1.59787252220901	-0.00170507057557501	0.00277275992280068
0.12	-3.9825793094845	-0.855672019343221	947.69843312904	-12.4593231799706	-14.393016365435	1.52340023799336	-1.48573704027351	-0.00210849599667107	0.00179702863932552
0.13	-2.4803461905185	-0.724474518932755	949.670793044349	-12.9471414427848	-15.5427237772223	1.35022322847345	-1.3314622036207	-0.00259289989622369	0.000625746484342826
0.14	-0.787727683249577	-0.497557858289374	950.902351032743	-13.4520847938927	-16.8202799963689	1.15026884327106	-1.1516362151838	-0.0031070890374294	-0.000693979499676534
0.15	0.962937149303676	-0.187359793273786	951.030656027367	-13.9111892085504	-18.1556630756804	0.950334663023527	-0.970937862719349	-0.00359013078534787	-0.00209818525887151
0.16	2.60552510646557	0.193769260786616	949.78404945195	-14.2634860825552	-19.4723399415009	0.781307661914959	-0.817643589400647	-0.00398150065661762	-0.00351474906955185
0.17	3.97325245109423	0.63128023211947	947.043624923321	-14.4609312966687	-20.6984467314495	0.671784185880211	-0.717873458317717	-0.00423163251554415	-0.00487332647565886
0.18	4.93543789801545	1.10482502141081	942.87449981605	-14.4769774552188	-21.7763225655258	0.641788031571486	-0.689999499899408	-0.00431056602819768	-0.00611407863783975
0.19	5.42658580119625	1.58525594693153	937.519783454649	-14.3109257578156	-22.6683595970686	0.69820377866882	-0.740613445106502	-0.0042128257734152	-0.0071933358197882
0.2	5.45913721645988	2.03389493435811	931.361795709811	-13.9872430632162	-23.3583945690783	0.833077924301188	-0.863032593091849	-0.00395756226631783	-0.00808544349263235
0.21	5.11669951066528	2.40503842120653	924.86363944012	-13.550239368248	-23.849189065776	1.02517032110587	-1.03865384871739	-0.00358409895750333	-0.00878121473255072
0.22	4.5306773400665	2.65176755363133	918.507420983377	-13.0555447897024	-24.1574716342142	1.24430333416315	-1.24074993508451	-0.00314407191824051	-0.00928424720991422
0.23	3.84784834312413	2.73424087268207	912.74282126353	-12.5604383975022	-24.3083036455449	1.45739214116881	-1.43973626588119	-0.00269205344589174	-0.00960663378506521
0.24	3.19820833355328	2.62887889763403	907.953125692202	-12.1151276106563	-24.3302064166087	1.63471037448356	-1.60865905936503	-0.00227674153362567	-0.00976531683331572
0.25	2.67115578562242	2.33631517015694	904.438244514168	-11.7565818191121	-24.2517810474357	1.75500646366152	-1.72771162373027	-0.00193444082296135	-0.00977970801561473
0.26	2.30462387823389	1.88583356930738	902.408667410686	-11.5056672418837	-24.0997848860565	1.80848459000779	-1.78693077732294	-0.00168578397157138	-0.00967050025122212
0.27	2.08750868371452	1.33439941722962	901.982541829667	-11.3673951697311	-23.8980881737677	1.79726464646732	-1.78674211225142	-0.00153570205159081	-0.00945909842685172
0.28	1.97212806688033	0.759401870900427	903.180337827092	-11.3333821908498	-23.6667918720977	1.73356160793585	-1.73655808201833	-0.00147585670588191	-0.00916695334299472
0.29	1.8915038693463	0.245742169594649	905.916506460523	-11.3853408952046	-23.4210542329011	1.63630698077343	-1.65203979259769	-0.00148834527656183	-0.00881432494844742
0.3	1.77633012148071	-0.130429019600382	909.992834801957	-11.4986144180218	-23.1697037866439	1.52715797327022	-1.55181333483647	-0.0015495747274078	-0.00841850793661747
0.31	1.56817875367836	-0.317722641106732	915.101417701667	-11.6452861832607	-22.9142532016623	1.42677593268761	-1.45436468534072	-0.00163366154882838	-0.00799209590221078
0.32	1.22785978225065	-0.30124284602561	920.84463679407	-11.7969518751599	-22.6491917901746	1.35197172913762	-1.37558793541776	-0.00171528672409837	-0.00754217365152282
0.33	0.739791429998471	-0.106734761338399	926.775020878952	-11.927542173711	-22.3642362707384	1.31394653307168	-1.32715142572782	-0.00177231583442383	-0.00707121573611302
0.34	0.113949751198152	0.204382406831523	932.45077373824	-12.0164742112117	-22.048564532876	1.31754744088866	-1.31560260544277	-0.00178849342426979	-0.00657990926100382
0.35	-0.613674773630975	0.548276907118172	937.495786724108	-12.0519468667126	-21.696174547655	1.36130494071857	-1.34203419947911	-0.00175615441493693	-0.00607129930836364
0.36	-1.38258728805375	0.837211237418401	941.649101118472	-12.0336374957581	-21.3107806362756	1.43803381851904	-1.40218165514131	-0.00167838443771373	-0.00555492057658125
0.37	-2.11287181420222	0.998823575744552	944.790088121717	-11.9737391480798	-20.9084525699172	1.53589102447791	-1.48694355993258	-0.00156972262620902	-0.00504928542683497
0.38	-2.71540128274374	0.991538437487994	946.932139775408	-11.8954406416674	-20.5167007287274	1.63988631044728	-1.58341117324904	-0.0014545873678814	-0.00458144546787687
0.39	-3.10719545429215	0.812575671766847	948.187284474564	-11.8286190593095	-20.1697979825056	1.73384790662662	-1.6764817698504	-0.00136317147874532	-0.00418326286721055
0.4	-3.22948294648957	0.497067577893014	948.713300217254	-11.8034582803019	-19.9014203052112	1.80273424006927	-1.75099677267412	-0.00132541141134812	-0.00388519161460688
0.41	-3.06379772661877	0.109118256945466	948.660083685023	-11.8435428183117	-19.7366803878407	1.83500495024576	-1.79414269829479	-0.00136443218910332	-0.00370932159549742
0.42	-2.64069481525217	-0.272456097694226	948.131270646324	-11.9603296695292	-19.6859155019547	1.82461655915828	-1.79767659613645	-0.00149124301343639	-0.00366378799573419
0.43	-2.03709077788283	-0.570010435824466	947.170788391296	-12.1505811588131	-19.7420406798834	1.77218188108772	-1.75947995825062	-0.00170220408296173	-0.00374023964512821
0.44	-1.36156474204148	-0.721053012884245	945.774718786285	-12.3974353311848	-19.8820943108362	1.68496830692248	-1.68405010460984	-0.0019799599372079	-0.0039150438769624
0.45	-0.731035299610848	-0.687888375374052	943.920191351292	-12.6746325153725	-20.0722409142441	1.57567685304229	-1.58178098867682	-0.00229744112364361	-0.00415367889473267
0.46	-0.245451130769769	-0.461985467807052	941.59820986051	-12.9524510507929	-20.2744724063309	1.46025045076696	-1.46718348138278	-0.00262359542515289	-0.00441680171165032
0.47	0.0318790659453237	-0.0634817093944054	938.837863058754	-13.2034948433123	-20.4529299059157	1.35519632744507	-1.35644451560207	-0.00292908057314789	-0.00466613326339194
0.48	0.0824814427868107	0.462985520508767	935.714601581755	-13.4067508748209	-20.57822145998	1.27499190200999	-1.26484414622929	-0.00319037558903634	-0.00486866065912628
0.49	-0.0723979908424491	1.05481381510196	932.342692332326	-13.5491474062404	-20.629094000704	1.23005686748167	-1.20451370073397	-0.003391522328969	-0.00499851852115329
0.5	-0.387330896368566	1.63937166546115	928.858394003046	-13.624840154813	-20.5918933170995	1.22556437393329	-1.18286233067039	-0.003523662762972	-0.00503688577232364
0.51	-0.812170385550228	2.14278680094408	925.403271438863	-13.6332333853423	-20.4589767597204	1.26112371837434	-1.20180006150964	-0.00358330463439638	-0.00497091629202956
0.52	-1.3078782155393	2.49919099459239	922.115473583259	-13.5770237339413	-20.2273753797785	1.33118911388678	-1.25772307281254	-0.00357054707393245	-0.00479286529744632
0.53	-1.85305140554601	2.65978551904395	919.131768333164	-13.4612779277185	-19.8985552005348	1.42598590382146	-1.34214772793918	-0.00348825771977546	-0.00450018205283709
0.54	-2.43956984621481	2.60060039205264	916.597078941896	-13.2938891018855	-19.4793618914481	1.53278542089058	-1.44287698223857	-0.00334256353883211	-0.00409664355742068
0.55	-3.06038895582211	2.32740847009582	914.673903545161	-13.0870042643553	-18.9835144041755	1.63743802098923	-1.54560577303703	-0.00314428725194038	-0.00359393769192856
0.56	-3.69575225265741	1.87626768814631	913.543140497884	-12.8584828616608	-18.4326426344175	1.72611211199694	-1.6358607774862	-0.00291042852732792	-0.00301275136540174
0.57	-4.30470854881177	1.30878244800167	913.390722485944	-12.6323219317787	-17.8559594329794	1.78713991892215	-1.70109509475178	-0.00266464642020925	-0.00238249717138472
0.58	-4.82659871048569	0.702314643018212	914.379777557289	-12.437284914391	-17.2881293623537	1.8127549331191	-1.73264396264951	-0.00243597595477718	-0.00173924718028495
0.59	-5.19307897456506	0.136708649004276	916.613639985092	-12.3035668097651	-16.7655227193382	1.80039294870048	-1.72716141737824	-0.00225558720701735	-0.00112203301047969
0.6	-5.34692785736029	-0.319821990328647	920.098895398252	-12.2580063433948	-16.3215835751976	1.75320478126233	-1.6871739165907	-0.00215206523363765	-0.000568194004867628
0.61	-5.26100955431722	-0.622555548930141	924.718590897622	-12.3189043739067	-15.9823334862791	1.67954542885324	-1.62054079385939	-0.00214624224495041	-0.000108754823894441
0.62	-4.95037588489597	-0.757166945599292	930.223725852173	-12.4917725475353	-15.7630301139982	1.5914449336755	-1.53887331999828	-0.00224689020612001	0.000235163131850513
0.63	-4.47264805659623	-0.740110914212762	936.247020388176	-12.7672448708242	-15.6667441879826	1.50234908341992	-1.45524680742889	-0.00244850404617269	0.000454115618990336
0.64	-3.91567892791248	-0.612491779361112	942.338007300203	-13.1219490586657	-15.6851931942199	1.4246338179865	-1.38173664339417	-0.00273198037115918	0.000549912812176867
0.65	-3.37567131737222	-0.428991363497827	948.013920308807	-13.5224428309545	-15.8016671230096	1.36745945098393	-1.32734211089131	-0.00306831196108848	0.000533109032246959
0.66	-2.9320278516844	-0.244549303741162	952.817549948071	-13.9315283867134	-15.9953911676591	1.33541652106356	-1.29671995243486	-0.00342463144738536	0.000419008115394415
0.67	-2.62630225596359	-0.101891663908678	956.371760028181	-14.3155685010739	-16.2462907490091	1.32817381764547	-1.28989251839417	-0.00377125171079629	0.000223182851011083
0.68	-2.45148292327083	-0.0226286699813274	958.420984967809	-14.6510479761335	-16.5389616513817	1.34106803008553	-1.30282580749916	-0.00408797201193845	-4.23078781182085e-05
0.69	-2.3549136088872	-0.00365393033936228	958.852764022414	-14.9287051390852	-16.864789926852	1.36637186762159	-1.32858914527418	-0.00436799500061591	-0.000370938013202426
0.7	-2.25433705874598	-0.0192805042574121	957.696797113132	-15.1541281201016	-17.2216338778085	1.39489862497783	-1.35876083772972	-0.00461835739804328	-0.000761349577497683
0.71	-2.06288091916535	-0.0282819372942954	955.104160292263	-15.3446409813591	-17.6111860088703	1.41763828163835	-1.38481629274851	-0.00485669128349397	-0.00121467904253131
0.72	-1.71623438322267	0.0159531696647749	951.313763262057	-15.5233306776495	-18.0348750597827	1.42721614114264	-1.39935883600606	-0.00510514823944308	-0.00173039822569276
0.73	-1.19445478964393	0.15443196819811	946.615395208491	-15.7118674276838	-18.4896865128814	1.41905133106562	-1.39714992048796	-0.0053831257828364	-0.00230203964590753
0.74	-0.532067902701087	0.412989860525329	941.317920628599	-15.9240868591107	-18.9653550812484	1.39212971371373	-1.37591802834452	-0.00570077706030325	-0.00291429677621607
0.75	0.186822587089751	0.795941383527658	935.727616964814	-16.1620294819725	-19.4439420234771	1.3493021375502	-1.33688188300769	-0.00605504947263391	-0.00354259520114758
0.76	0.847535916467968	1.28400022927621	930.136747902543	-16.4153705250588	-19.9019841164609	1.29701804945879	-1.28486531014623	-0.00642926422645096	-0.00415542744712322
0.77	1.33289717407786	1.83666970984898	924.818344980598	-16.6641850621063	-20.3144930414086	1.24445086052084	-1.2278693942961	-0.00679625739575063	-0.00471881411659458
0.78	1.55252512040559	2.39851872886428	920.021624296911	-16.884106644189	-20.659454997156	1.20207743212742	-1.17603588083405	-0.00712416760274681	-0.00520155278129192
0.79	1.46492240225831	2.90814967772844	915.964089303984	-17.0524167007486	-20.9213938011313	1.17990900541342	-1.14007159441357	-0.00738334796194362	-0.00557972566784831
0.8	1.08611001111583	3.3082859434175	912.820200602436	-17.153554743715	-21.0930558003512	1.18567898124705	-1.12935794729363	-0.00755273851210458	-0.00583933568448836
0.81	0.482789660554295	3.55526666694905	910.710426824881	-17.1828961356877	-21.1751349256593	1.22332653046667	-1.15008473357347	-0.00762433219460246	-0.00597675539646142
0.82	-0.247034542702017	3.626331218911	909.696308213863	-17.1482130435628	-21.1747945254388	1.29206135974914	-1.20378464378793	-0.00760494621618546	-0.00599754774853273
0.83	-0.999137026931609	3.52340796114049	909.78565795389	-17.0688009043836	-21.1041739333147	1.38617948975064	-1.28659612728408	-0.00751516810795605	-0.00591476384928341
0.84	-1.68558023248606	3.27268973045386	910.947660486051	-16.9726702737487	-20.9798864186251	1.49566633261616	-1.38946321353736	-0.00738591260513388	-0.00574780100446659
0.85	-2.24793051715812	2.92004191638358	913.132384942758	-16.8924298253298	-20.8237948516329	1.60750656651639	-1.49931693978741	-0.00725340869510815	-0.00552232992898105
0.86	-2.65836331734273	2.52313429693001	916.285713250024	-16.860559587262	-20.6644182960905	1.70753109532798	-1.60109933327938	-0.00715361449304697	-0.00527094319379762
0.87	-2.91055649326612	2.14192303055228	920.350876996171	-16.9047581994557	-20.5376148556028	1.78256179686084	-1.68031361335182	-0.00711704853736228	-0.00503344199350847
0.88	-3.00597135078429	1.82950757059486	925.252137394935	-17.0439838182958	-20.4850635149828	1.82255635274602	-1.72564580022752	-0.00716485672245581	-0.00485542875628425
0.89	-2.94241979215776	1.62527230225282	930.863256606951	-17.2856979182904	-20.5496561304573	1.82241453895438	-1.73114091871274	-0.00730663552070454	-0.00478427446087082
0.9	-2.7102951752858	1.5515620383679	936.97065396105	-17.6246524078624	-20.7680405709167	1.78310606131783	-1.6974626825294	-0.00754015377109818	-0.00486247443191895
0.91	-2.29818619392792	1.61409849652349	943.24565452574	-18.0433384630956	-21.1618188803911	1.71184344748901	-1.63192671685895	-0.00785273627899685	-0.00511954964538192
0.92	-1.70529484623391	1.80525349942576	949.240050848596	-18.5139770851612	-21.7298040996869	1.6211627203494	-1.54724745631002	-0.00822378934930346	-0.0055645391999708
0.93	-0.95487190858393	2.10853866040088	954.413985391817	-19.001729908846	-22.4438832343867	1.52697579960847	-1.45922034731636	-0.00862783768445696	-0.00618137987024925
0.94	-0.102065649762342	2.50253212619506	958.196377910637	-19.4686845299074	-23.2502925972519	1.44588301782767	-1.38380237956229	-0.00903752055317231	-0.00692892323360256
0.95	0.768490604508993	2.96299305242112	960.068514812373	-19.8781295029026	-24.0766854123434	1.39222694590114	-1.33419215295552	-0.00942620686253015	-0.0077461426220336
0.96	1.55609628379169	3.46290433420324	959.654075675912	-20.1986595047752	-24.8437277844643	1.37547310639406	-1.31850934676314	-0.00977013067424426	-0.00856162986595449
0.97	2.16480040181242	3.97124083287345	956.796146270384	-20.4077114372428	-25.4786600467688	1.39847645523203	-1.33853193111603	-0.0100501198836915	-0.00930527895480493
0.98	2.52502082409609	4.45196365299217	951.604430923165	-20.4942065362503	-25.9277445422218	1.45702209786735	-1.38970201249198	-0.0102530360829609	-0.00991951012824877
0.99	2.60896769900517	4.86480826468733	944.462856765025	-20.4600529703391	-26.1649309254471	1.54074377959208	-1.46231929333668	-0.0103729692438738	-0.0103676580469597
1	2.43518875956011	5.16882712018112	935.996574864619	-20.3203441880407	-26.1952036006638	1.63519613705158	-1.54358014527481	-0.0104120903380188	-0.0106380767829704
1.01	2.06155107751185	5.32858208070049	927.005121738785	-20.1021665534483	-26.0524817436029	1.72458426641799	-1.61996081315344	-0.0103809301682136	-0.0107437162381659
1.02	1.5699206198946	5.32174509482541	918.373093223707	-19.8420054078629	-25.7931201035944	1.79452647101875	-1.67942868953329	-0.0102977867084054	-0.0107179550586154
1.03	1.04807755022439	5.14607066620497	910.970583696747	-19.5818244936475	-25.4866710736714	1.8342854011543	-1.71309333053618	-0.0101870058427885	-0.0106080221498804
1.04	0.574246241436517	4.82354200513835	905.554017662887	-19.3640185110006	-25.2055687775862	1.83812021968474	-1.71612588320898	-0.0100760437355104	-0.0104673434778268
1.05	0.207421422791939	4.40003366288026	902.675937108775	-19.2256328820001	-25.0150128092181	1.80569570780481	-1.68799577623093	-0.00999148710824038	-0.010347803667525
1.06	-0.0162768074320319	3.93990888387829	902.61158670664	-19.1925099732175	-24.9639181377738	1.74171816154668	-1.63221309923926	-0.00995453307190941	-0.0102925305453128
1.07	-0.0832042540640224	3.51624552682101	905.311128706259	-19.2742989045068	-25.077634524458	1.65506839049188	-1.55578045412105	-0.00997673095342366	-0.0103296585940585
1.08	-0.000292859810690889	3.19848403022537	910.387630682345	-19.4614337505577	-25.3532636343094	1.55765598980163	-1.46846677683935	-0.0100569559335708	-0.0104676668823543
1.09	0.206869755645623	3.0399245771577	917.150131645307	-19.7250930673503	-25.7585967014491	1.46308847948085	-1.38188828700032	-0.0101805114460448	-0.0106931453262438
1.1	0.496273842326929	3.06754854761324	924.685978709265	-20.0207022469491	-26.2356114661557	1.38513718600208	-1.30830708824107	-0.0103208883255277	-0.0109719097091023
1.11	0.813574514191649	3.27616289765498	931.986921988728	-20.2947583370611	-26.7088406662005	1.33597718463688	-1.25909728095338	-0.0104440879537412	-0.0112539974585408
1.12	1.09942514143671	3.62804791920557	938.101367438328	-20.4938382754728	-27.0977676481066	1.32430456828285	-1.24298114839089	-0.0105147062086469	-0.0114821919857824
1.13	1.29988215498213	4.05833612400304	942.284918295855	-20.5739098145519	-27.3310628288511	1.3536315038019	-1.26433653821807	-0.0105024161990181	-0.0116025948261105
1.14	1.37756643882585	4.48541484154584	944.117426521986	-20.5078142531111	-27.3595068897806	1.42121172840009	-1.32201545762975	-0.0103873104187669	-0.0115748530063811
1.15	1.31983282357947	4.82480506552279	943.560010731627	-20.2891996888062	-27.1643729523973	1.51804154550745	-1.40910028338599	-0.010162878304748	-0.0113794182994247
1.16	1.14048424202544	5.00427202951672	940.93935207515	-19.9321720334334	-26.7590724500148	1.63016385039277	-1.51382628797497	-0.00983612504638653	-0.0110198969130662
1.17	0.873727373772476	4.97745637299877	936.865025776731	-19.4671694953962	-26.1837614044211	1.74112557148154	-1.62156960890441	-0.00942522270103152	-0.0105199941174846
