Time [s]	GRFml [N]	GRFap [N]	GRFv [N]	Mml [N.m]	Map [N.m]	Mv [N.m]	Mfree [N.m]	COPml [m]	COPap [m]
0.01	-0.648122798002221	0.951400611002874	634.133895823114	13.0516420331252	30.9128128284538	0.406949639347041	-0.466658084938505	0.00267887250310739	-0.00462624021643848
0.02	-0.575035160602098	0.949655426566612	635.209969183857	13.118472344943	30.9376474419005	0.43147411995023	-0.489588083791426	0.00274947646408408	-0.0046659795434098
0.03	-0.508815193292372	0.948822226915349	636.167462509893	13.1732871292176	30.958286262588	0.453454694156547	-0.510156630846812	0.00280478377836924	-0.00470313862031702
0.04	-0.45592807512539	0.949603787843551	636.898108580566	13.2063210267796	30.970755879435	0.470543353974345	-0.526180004056122	0.00283274924046917	-0.00473559195183643
0.05	-0.421337647743769	0.952509894923264	637.330168469521	13.2122898403647	30.9728523930045	0.480943770657685	-0.535987377062416	0.00282728632672447	-0.00476126275942307
0.06	-0.40770078852151	0.95769437993748	637.440752746296	13.1912153647448	30.9646455836077	0.48367516587234	-0.538660451610908	0.00278918336107548	-0.00477827927872559
0.07	-0.414757360185202	0.964810143922091	637.259911539736	13.1480245657941	30.9485202168091	0.478768989134967	-0.5342104320488	0.00272533083075077	-0.0047852191743149
0.08	-0.439123750171724	0.97297078425428	636.865434106996	13.0911454451259	30.9287808440102	0.467339018126663	-0.523641673895673	0.00264664767841505	-0.0047813222964696
0.09	-0.474703798365559	0.980917796880959	636.368963827465	13.0305493487222	30.9109100054062	0.451465024684837	-0.508851498450264	0.00256540428581775	-0.00476658104617417
0.1	-0.513836683345108	0.987431590324485	635.895672316228	12.9757608970073	30.9006064953145	0.433858962666294	-0.492339546717671	0.00249270208971319	-0.00474168465483354
0.11	-0.549089370670448	0.991890466920099	635.560996285176	12.9342782577229	30.9027563193326	0.417343190762059	-0.476749668875923	0.00243670482901603	-0.00470784734019863
0.12	-0.575321771764314	0.994734417198554	635.448619009794	12.9106636476739	30.9205098830679	0.404246158146479	-0.464330299948809	0.00240190306191823	-0.00466656724789222
0.13	-0.591423233464046	0.99752943036952	635.593877543327	12.9063435922934	30.9546430550001	0.395879475983388	-0.456450031791642	0.002389341407943	-0.00461935557057047
0.14	-0.601071236662188	1.00243062193551	635.976060450049	12.9199711437421	31.0033479589731	0.392266984132758	-0.453315758878788	0.00239746070265279	-0.00456747094618642
0.15	-0.612068343219288	1.01110274058037	636.521653393489	12.9481027751369	31.0625232926609	0.392234834355636	-0.453996076588416	0.00242309182874645	-0.00451170778354282
0.16	-0.63423261440954	1.02346706446796	637.118618934687	12.9859520128369	31.126527280538	0.393855969768068	-0.456760767775402	0.00246221436220995	-0.00445230571462418
0.17	-0.676309634555388	1.03684223950851	637.639535866765	13.0280780972661	31.1892504465571	0.395115056901075	-0.459639827796145	0.00251031836920435	-0.00438904126801476
0.18	-0.742759602586776	1.04600419021614	637.969296204662	13.0689934291335	31.2452930911921	0.394573626498098	-0.461025192848208	0.00256247691309086	-0.00432151219598986
0.19	-0.831405796524932	1.04438667648912	638.031580853879	13.1037592904565	31.2910117589531	0.391808422340485	-0.46011960915535	0.00261342383080321	-0.00424954104145425
0.2	-0.9327571968757	1.02618663814358	637.807996741024	13.1286375787894	31.3252279290433	0.387474544589534	-0.457089725139984	0.00265794385773643	-0.00417354951143872
0.21	-1.03138586318474	0.988714250178036	637.344862198092	13.141775804275	31.3494554447216	0.38297904696585	-0.452884705571042	0.00269170727350354	-0.00409473783096131
0.22	-1.10917141063856	0.934120087184406	636.745140691396	13.1437725483902	31.3675848097131	0.379888273679725	-0.448797064948399	0.00271239666972911	-0.0040149675095682
0.23	-1.14967664422363	0.869744164444547	636.146492157367	13.1378788873784	31.3850531098062	0.379282075820447	-0.445926092446927	0.00272071635432414	-0.00393637222284077
0.24	-1.14254105145705	0.806745926299548	635.690003869453	13.1296066335618	31.4076235339705	0.38127997505024	-0.444728482944165	0.00272078064506664	-0.00386085221464644
0.25	-1.08668725018707	0.757256361157021	635.486863856269	13.1256598492185	31.4399906208435	0.384899049290823	-0.444802260052038	0.00271951582707053	-0.00378967525809126
0.26	-0.991380243130272	0.730839562328863	635.591168919415	13.1323425825902	31.484498848703	0.388288758888287	-0.444967811537637	0.00272504917502292	-0.00372336990762401
0.27	-0.874722214207854	0.73136077278441	635.985803535609	13.1538323893413	31.5402867161388	0.389265984992186	-0.443614956990386	0.00274446853703292	-0.00366196274858543
0.28	-0.759870652508114	0.755308377254241	636.585142235831	13.190839703474	31.6031210669378	0.385983718248683	-0.439207829805715	0.00278164288708271	-0.00360543919072626
0.29	-0.669925724675733	0.792210164259554	637.254095747851	13.2401225632588	31.6660573531664	0.377533486722093	-0.430799844226194	0.00283585215666027	-0.00355418070376534
0.3	-0.622826205305439	0.827146388824861	637.838942588351	13.295088746338	31.7208667540437	0.364308510510913	-0.41841447777464	0.00290173549886064	-0.0035091190950714
0.31	-0.627580890575208	0.844700109098946	638.202565486546	13.3473671008482	31.7599540923811	0.348027211592944	-0.403186801200531	0.00297061113028974	-0.00347146839742246
0.32	-0.682745568392964	0.833213356954906	638.255802669283	13.3888962864641	31.7783141694463	0.331410123116208	-0.387221474452388	0.00303272930993814	-0.0034420998706432
0.33	-0.777384147377523	0.788089545012646	637.977712794396	13.413894661411	31.7750032289592	0.317591328953907	-0.373190185716544	0.00307969700948019	-0.00342082051057813
0.34	-0.894063249167342	0.713145783582328	637.420245332883	13.4201169180729	31.7536799600657	0.309408130106095	-0.3637525778326	0.003106291721234	-0.0034059017352201
0.35	-1.01294631996193	0.619601616460174	636.69642737506	13.4090573878181	31.7219961413896	0.308738404869797	-0.3609295037153	0.00311116261638467	-0.00339413084476931
0.36	-1.11590015045408	0.523018568395839	635.954933309273	13.3851258451132	31.6899362050109	0.316041596653327	-0.365577311626996	0.00309636759532184	-0.00338144797114281
0.37	-1.18969483398901	0.439146026544011	635.347003879523	13.3541549360677	31.6675205503509	0.330211390985997	-0.377099834525053	0.0030661147901937	-0.00336397710293951
0.38	-1.22775479536739	0.379964055056022	634.993427651768	13.3217741695498	31.6624920491072	0.348777034319813	-0.393488457582104	0.00302529432680176	-0.00333907615022494
0.39	-1.23035269301808	0.351115390566158	634.959224253201	13.2921506237561	31.6786229720007	0.368411384140946	-0.411705921848558	0.00297833308427142	-0.00330600072656234
0.4	-1.20350439915653	0.351410914636665	635.241708318274	13.2673881539178	31.7150982689461	0.385634184589318	-0.428341998792871	0.00292864237811197	-0.00326591260050635
0.41	-1.15705329995289	0.374356590150597	635.774211240862	13.2475992040895	31.767109262537	0.397553751622017	-0.440391606613889	0.0028786050053683	-0.00322120786364466
0.42	-1.10250927465936	0.410962378181446	636.443801235503	13.2314364752575	31.8274370883568	0.402479279099855	-0.445962059878434	0.00282982252124586	-0.00317439161765626
0.43	-1.05114575949875	0.452717125502624	637.117983881957	13.2167773055637	31.8885334815107	0.400262792476372	-0.444722906810815	0.00278330706421548	-0.00312688922548515
0.44	-1.01268610779023	0.493682905264135	637.673525308322	13.2013031624042	31.9444990489972	0.392290452718671	-0.437972648321198	0.00273944107349788	-0.00307820473187653
0.45	-0.994671793401848	0.531127300437083	638.020648887647	13.1828561191811	31.9924361026551	0.381125745046204	-0.428298126467638	0.00269774345314999	-0.00302571832418241
0.46	-1.0023641750243	0.564760854240387	638.117700854457	13.1595990649156	32.032872416391	0.369893192590261	-0.418916212778607	0.00265664634313678	-0.00296520825829621
0.47	-1.03886722305314	0.595202628967476	637.97423296611	13.1300865741993	32.0692322048182	0.361557576330144	-0.412878218311767	0.00261351691128486	-0.00289196218244248
0.48	-1.10513765325941	0.622539296671984	637.643382601142	13.0933447374097	32.1065833957789	0.358279261377419	-0.412354526805362	0.0025650468650974	-0.00280217494795187
0.49	-1.19968994237676	0.645698408013841	637.206655301129	13.0489867442871	32.1500511631427	0.361000438312071	-0.418186355477656	0.00250794599096738	-0.00269425497823217
0.5	-1.31805462119137	0.662916574888275	636.755310450519	12.9973109916451	32.2033293237938	0.369345923095828	-0.429802982504821	0.00243971453740432	-0.00256968789356571
0.51	-1.45229828596896	0.673053778982301	636.372502155356	12.939290309363	32.2676516262344	0.381828716575795	-0.44548752628255	0.0023592121416508	-0.00243321846812755
0.52	-1.59103998413467	0.67711003166743	636.119414463279	12.876386009657	32.3414361503877	0.396267268600139	-0.46287373591287	0.00226681224008907	-0.0022922796421912
0.53	-1.72032432530091	0.679191195410726	636.027259540997	12.8101950658708	32.4206312931296	0.410276966937982	-0.479504978313722	0.00216409490434599	-0.00215578246999987
0.54	-1.8254457636422	0.686373174568955	636.095571899957	12.7420248099717	32.4996163844941	0.42170522533603	-0.493298621806935	0.0020532148364597	-0.00203254264872355
0.55	-1.89345530159637	0.707332730575539	636.29603233883	12.6725442275438	32.5723842021441	0.428928747238234	-0.502822441378472	0.00193620750157508	-0.00192971843841522
0.56	-1.91576175023847	0.750081163242428	636.580272307442	12.6016548543798	32.6336849192213	0.430997491634644	-0.507373207985089	0.00181451304838265	-0.00185164234472085
0.57	-1.89009555479129	0.819483084560647	636.889794693076	12.5286533802494	32.6798505367077	0.427662642802008	-0.506915252402813	0.00168889663014504	-0.00179933635694296
0.58	-1.82120278539986	0.915353289184516	637.166231535319	12.4526463832336	32.7091316608999	0.419345075448075	-0.50196367875227	0.00155976478211606	-0.00177082597015016
0.59	-1.71996062535749	1.03177610965247	637.360487970368	12.3730697811855	32.7215303673325	0.407084064668789	-0.493479046797266	0.00142769555146494	-0.00176215424375054
0.6	-1.60105275501119	1.1579439538341	637.439721507426	12.2901096361577	32.7182591328855	0.392468529920973	-0.482794015650179	0.00129389627291421	-0.00176880050133632
0.61	-1.47976733938583	1.28037843463523	637.391464022575	12.204846716975	32.7010544811108	0.377519067891201	-0.471544672828951	0.00116032833606672	-0.00178708535543731
0.62	-1.36874198675153	1.38600458962941	637.224503907604	12.1190503358398	32.6715979765906	0.3644795124026	-0.46155480225344	0.00102938738099134	-0.001815135449448
0.63	-1.27549470561182	1.4653002159818	636.966481332859	12.0346879247186	32.6312414968169	0.355500069318722	-0.454632111606565	0.000903236759497661	-0.00185309998057204
0.64	-1.20134815785808	1.51469937756075	636.658579041195	11.9533371242071	32.5811163707417	0.352242122815576	-0.45227648293726	0.000783068361198569	-0.00190253238959859
0.65	-1.14195908921553	1.53760128149151	636.3481898221	11.875735152967	32.5225633834324	0.355486738475944	-0.45535293103537	0.000668627430894797	-0.00196511450364678
0.66	-1.08923588168685	1.54368160222478	636.080870045618	11.8016537685717	32.4576980431918	0.364860160641763	-0.463822155794968	0.000558255485546999	-0.00204112452256255
0.67	-1.03409151792202	1.54663817276052	635.893060900641	11.7301637529157	32.3898640549156	0.378782617996827	-0.476630047444639	0.000449508444112845	-0.00212815588274323
0.68	-0.969317331071856	1.56091450625482	635.806861102575	11.6601984828411	32.3237506942013	0.394698435135477	-0.491827120978855	0.000340173473128536	-0.00222053747820067
0.69	-0.891891322775561	1.59821915923327	635.827606432731	11.5912018416165	32.2650513966287	0.409568649692798	-0.506927011657721	0.00022933046625373	-0.00230970037020889
0.7	-0.804215382718243	1.66471442515171	635.944335913449	11.5236008386927	32.2196874099576	0.42052595637327	-0.519438733662467	0.000118054352923225	-0.00238545136190854
0.71	-0.714040369115056	1.75956360198509	636.132634749423	11.4588981560419	32.1927618892648	0.425532310584875	-0.527444298891615	9.45754313996794e-06	-0.00243784700606281
0.72	-0.633116473353448	1.8751553249808	636.359012278464	11.3993174024677	32.1875009277527	0.423862591662276	-0.530063322170813	-9.20039612810619e-05	-0.00245919687495483
0.73	-0.574847272629724	1.99887884712791	636.585947944325	11.3471042521058	32.2044551267544	0.416272384012988	-0.527663023412986	-0.000181771427034016	-0.00244570128614924
0.74	-0.551405064454959	2.11593942336078	636.77694656122	11.3037244926225	32.2411814823462	0.404788642544673	-0.521736308801451	-0.000256574448831648	-0.00239833337687528
0.75	-0.570877229743112	2.2124857715958	636.901230396257	11.2692501557223	32.292521601107	0.392168488052973	-0.514467519364055	-0.000315507854746433	-0.00232276163168782
0.76	-0.635052749475114	2.27831773806281	636.937882263953	11.2421660914008	32.3514637956221	0.381172207569712	-0.508105935402681	-0.00036042988387841	-0.00222832276800244
0.77	-0.738402070129131	2.30862583918533	636.879219768136	11.2196837926753	32.4104450861055	0.373857625674763	-0.504335627996029	-0.000395545305663547	-0.00212625391597387
0.78	-0.868618491627319	2.30450547709442	636.732940226457	11.1984725779042	32.4628346173349	0.371099810839439	-0.503837772589386	-0.000426306780809016	-0.00202754902602481
0.79	-1.0087623665721	2.27228957804791	636.522306918187	11.1755751331097	32.5042670950668	0.372469055146824	-0.506179556430967	-0.000457982458830886	-0.00194089495774274
0.8	-1.14062756058616	2.22197590010659	636.283622803121	11.1492135195764	32.5334922019307	0.376483375773413	-0.51005145978383	-0.000494329618618061	-0.00187114544418987
0.81	-1.24855091361538	2.16515313988446	636.060667239564	11.1192303312504	32.5524939521965	0.381130948312584	-0.513753759886356	-0.000536762765140253	-0.0018186902952998
0.82	-1.32266335908122	2.11285857798753	635.896640254963	11.0870313961989	32.5658071405686	0.38447763353549	-0.515751216104468	-0.000584236091752066	-0.00177987863111712
0.83	-1.36065403290272	2.07375639029019	635.825175267036	11.0550591160173	32.5791760199644	0.38516398749824	-0.515104173901714	-0.000633833054423882	-0.00174839689367307
0.84	-1.36750341486821	2.05293512838249	635.862682858596	11.0259753212154	32.5978966184264	0.382655314342189	-0.511646541245413	-0.000681841653909721	-0.0017172511577771
0.85	-1.35323444502644	2.05149746192306	636.004273990452	11.0018206409887	32.625290802502	0.377209876428919	-0.505887214067052	-0.000724957687855965	-0.00168083324320006
0.86	-1.32934276667299	2.06696095952053	636.224664970513	10.9834160366378	32.6617358246178	0.369631552698235	-0.498715604308945	-0.000761239352564114	-0.00163651812186211
0.87	-1.3049963829481	2.09432094223103	636.484042260873	10.9701840882372	32.7045197226384	0.360934791888298	-0.491051942306048	-0.000790537131946656	-0.00158536456197578
0.88	-1.28419635572419	2.12747995391929	636.737377440413	10.9604254943365	32.7485562644353	0.352052124808029	-0.483578862605189	-0.000814305508842761	-0.00153174244843479
0.89	-1.26482041668267	2.16066927772757	636.944667407163	10.9519407600542	32.7877467774813	0.343665043208609	-0.476631589226163	-0.000834902822473116	-0.00148201641379098
0.9	-1.23989834250525	2.18951094781316	637.079358651257	10.9427879505042	32.8165968143837	0.336166986080293	-0.470242362842157	-0.000854633724425069	-0.0014426815217583
0.91	-1.20075285129264	2.21149418448032	637.132813131428	10.9319445591343	32.8316373079166	0.329709055226379	-0.464270231642835	-0.000874839072729783	-0.00141848791892862
0.92	-1.14099914646487	2.22582800718243	637.113845361686	10.9196944679865	32.8322767071979	0.324260737850899	-0.458527587525278	-0.00089528540579431	-0.00141106519597783
0.93	-1.06004630515552	2.23281840352671	637.043743060395	10.9076614152918	32.8208929961431	0.319642019547346	-0.452842946249869	-0.000913985263810368	-0.00141838073733569
0.94	-0.964831026315777	2.23304519443331	636.948415801216	10.8985166899318	32.802200856203	0.31552928887907	-0.447054211998541	-0.000927446494971451	-0.00143510794983581
0.95	-0.869050003909174	2.22664817576695	636.850098208184	10.8954647063933	32.7821279098559	0.311474243139624	-0.440975184631259	-0.000931252155121909	-0.00145372950545525
0.96	-0.789988096015284	2.21297271473105	636.761153616131	10.9016391115367	32.7665472157647	0.30697905060791	-0.434393894461893	-0.000920832566950525	-0.00146603217240321
0.97	-0.743884147491582	2.19069349253076	636.681894037127	10.9195305834094	32.7602142828789	0.301639568573951	-0.427137932042039	-0.000892294270394722	-0.00146459866958459
0.98	-0.741325076407675	2.15836760545155	636.603057451846	10.9505365645506	32.7661557452361	0.295320413986847	-0.419194770420124	-0.000843185771404076	-0.00144396052570572
0.99	-0.784197387184808	2.1152109369003	636.512003047712	10.994693414711	32.7855937675358	0.288290121129389	-0.410831887159845	-0.000773083395746887	-0.00140120702882912
1	-0.8652250305259	2.06179605812954	636.400322057294	11.0506303611489	32.8183211407958	0.281243640384184	-0.402646639394409	-0.000683874642747551	-0.00133600215234103
1.01	-0.970255175570525	2.00037838265744	636.269950697419	11.1157644584912	32.8633200191883	0.275176214852337	-0.395497694128182	-0.00057962860627081	-0.00125010286211807
1.02	-1.08252647598998	1.9346805404248	636.135321704416	11.1867231936672	32.9193760847561	0.271130513675687	-0.390317560476922	-0.000466003853818564	-0.00114657075596647
1.03	-1.18749705732458	1.86916541846181	636.020506735048	11.2599317051127	32.9854843609915	0.269891059180807	-0.387856500448238	-0.000349259470525332	-0.00102891057653337
1.04	-1.27665362822941	1.80802809728751	635.95217451558	11.3322472899016	33.0609494309829	0.271723738469999	-0.388439207790652	-0.000235071872038195	-0.000900351055472481
1.05	-1.34912023294533	1.75425178581429	635.950791137989	11.4014902618766	33.1452100196208	0.276245074739421	-0.391815352814899	-0.000127458618802478	-0.00076341310203859
1.06	-1.4106862570354	1.70905346934148	636.023186255044	11.4667304889726	33.2375214480109	0.282463523799886	-0.397155895581445	-2.81162419234482e-05	-0.000619806079547591
1.07	-1.47078142656747	1.6718996762284	636.159140854121	11.528248471678	33.3366759797865	0.288981067297042	-0.403201876995356	6.36247212695285e-05	-0.000470585172950955
1.08	-1.5386057866963	1.64106094795289	636.333229949382	11.5871810894567	33.4409170133386	0.294296830961037	-0.408527285665651	0.000150205291258421	-0.000316428428659032
1.09	-1.61983132825346	1.61447748878824	636.511343148914	11.6449537220477	33.5481178792704	0.297128872228679	-0.411845850048722	0.000234775771385198	-0.000157880481995609
1.1	-1.71497214212688	1.59060042702336	636.659773341575	11.7026627145392	33.6561799322056	0.296670757113245	-0.412280927058312	0.000319978682579714	4.53301006553275e-06
1.11	-1.81982025100967	1.56889157190366	636.754015114359	11.7605881178725	33.7635009584055	0.292723185494362	-0.409529753293215	0.000406937927920792	0.000170317188779412
1.12	-1.92755160383076	1.5498027828363	636.784639421594	11.8179833734391	33.8693162807325	0.285679006160237	-0.403884295232823	0.000494758994047384	0.00033905224670816
1.13	-2.03152470370623	1.53426399041281	636.758659899681	11.8732136444819	33.9737463069959	0.276380875458522	-0.396112079009624	0.000580699764033521	0.000510343415116632
1.14	-2.12762233827122	1.5229081560815	636.696279138995	11.9242139974034	34.0774896110011	0.265903263301073	-0.387239968642414	0.000660973222031291	0.000683596585553337
1.15	-2.2152525499878	1.51537233349122	636.624300862371	11.9691381169846	34.1812412771475	0.255326382306493	-0.378310157066345	0.000731945788269073	0.000857644819728387
1.16	-2.29669279392843	1.50998710132917	636.568380749906	12.0069998034755	34.2850344080175	0.245565645215082	-0.370182373805769	0.000791361097135179	0.00103036041064947
1.17	-2.37510313945189	1.50400683732769	636.546425069689	12.038101257589	34.3877461678837	0.237298205581835	-0.363437426523677	0.000839200258363593	0.00119843967825312
