Time [s]	GRFml [N]	GRFap [N]	GRFv [N]	Mml [N.m]	Map [N.m]	Mv [N.m]	Mfree [N.m]	COPml [m]	COPap [m]
0.01	-3.50297178512804	0.168908077480462	740.523868524988	-3.90909611058068	-10.9304872645826	0.848853020818891	-0.828007775940519	0.00150348739766881	0.0175837272609552
0.02	-3.15245638473098	0.253572133585934	740.671207815405	-3.97204060609433	-11.2963404798995	0.854564478104283	-0.833822753416639	0.00142217044630844	0.0170945417139485
0.03	-2.84440213212261	0.336945291093859	740.599607813306	-4.03687979535551	-11.651253258579	0.861329675124602	-0.840450172556212	0.00133656061849341	0.0166148998311653
0.04	-2.61169678876525	0.415546785705981	740.155607962214	-4.10569887390956	-11.9854264050725	0.870063497387505	-0.848667245589065	0.00124261376867418	0.0161543919457253
0.05	-2.46550481674599	0.484518904687783	739.285075516309	-4.18143496814946	-12.2963295568209	0.881204463264023	-0.858933590655442	0.00113586939252208	0.0157150387591693
0.06	-2.39179940508796	0.538353018247545	738.04226360783	-4.26731849980666	-12.5896676111862	0.894584809687673	-0.871270842601364	0.00101228374837481	0.0152901892400168
0.07	-2.35534001949845	0.572455866624911	736.567240269947	-4.3656584727655	-12.8774367047604	0.909421824467505	-0.885202773663567	0.000869723262907462	0.0148666486730864
0.08	-2.30995330519907	0.585013748116953	735.040765907997	-4.47650174419282	-13.1737761366309	0.924435138232251	-0.899775797596625	0.000709459965388848	0.0144292824950388
0.09	-2.2119908790764	0.578467821728207	733.632361317055	-4.596845586631	-13.4900913399984	0.938069463825997	-0.913669722405029	0.00053685808620263	0.0139664522831773
0.1	-2.03280506906227	0.560029811682372	732.458168845507	-4.72090587204685	-13.8311323353559	0.948773875982602	-0.925385898097536	0.00036069102403935	0.0134743788752359
0.11	-1.7664177493522	0.540956694766283	731.56044185894	-4.84151000925787	-14.1932963141181	0.955267809019806	-0.933473437320833	0.000191084842600775	0.0129589845275784
0.12	-1.43019088254581	0.534654725158988	730.912239209688	-4.95219174712904	-14.5655741773594	0.9567242302405	-0.936739084839163	3.66940652072323e-05	0.0124347277145602
0.13	-1.05867712946179	0.554005211200072	730.442324874316	-5.04923969355415	-14.9326286510554	0.952827833999691	-0.934392890837676	-9.79060815369248e-05	0.0119210089825256
0.14	-0.693070643932243	0.608531886328563	730.069361562693	-5.13293863436756	-15.2788285615613	0.943711952520725	-0.926107948726218	-0.000213655287985115	0.0114374862768544
0.15	-0.369966301928095	0.702117568503326	729.732975753948	-5.20754492602952	-15.5918860797789	0.929821974135449	-0.912004540866474	-0.00031674058372444	0.0109998428692044
0.16	-0.113023557416376	0.831897881815054	729.41214941969	-5.28001957493834	-15.8650612111491	0.911774488494804	-0.892590637765792	-0.000416730783374009	0.0106171888268634
0.17	0.0702638949282887	0.988709816295455	729.127105925362	-5.35799932914049	-16.0975337681195	0.890270411711534	-0.868692426632063	-0.000523797087329525	0.0102915520562756
0.18	0.186546760570139	1.15909103925121	728.92704037037	-5.4477324856132	-16.293223041637	0.866083999253533	-0.841393226927067	-0.000645992039260412	0.0100191428533473
0.19	0.251066300958066	1.32839712509902	728.870454935535	-5.55265507926578	-16.4588028225798	0.840107583192384	-0.811979125278976	-0.000787455528784675	0.00979254888263376
0.2	0.281252131866329	1.48424755340149	729.006154950497	-5.67297591267604	-16.6017710473501	0.813405138447201	-0.781878289808068	-0.000947988796213273	0.00960289513261969
0.21	0.291941567973853	1.61934883874643	729.361086558779	-5.80622017188065	-16.7292008000146	0.787227347549545	-0.752583957637235	-0.00112388331289082	0.00944126725631922
0.22	0.29353443038663	1.73285538763643	729.937290477866	-5.94833228715891	-16.8473668610511	0.762962652368495	-0.725563642801998	-0.00130944829995105	0.00929918006335562
0.23	0.292904083108211	1.82981870776178	730.71612041418	-6.09479767098154	-16.962013840694	0.742028097089465	-0.702168057186005	-0.00149852145067997	0.00916834628380381
0.24	0.295728248376968	1.91885176119173	731.665262607559	-6.2413485358278	-17.0787838404502	0.725725004443272	-0.683553584448058	-0.00168540936300121	0.00904027258176143
0.25	0.308524488011393	2.00872476492784	732.743945726833	-6.38409893202186	-17.2033328271327	0.715090128696464	-0.670621489393761	-0.00186508069656832	0.00890619860010594
0.26	0.339124893140565	2.10500478463281	733.903848785049	-6.51926439149443	-17.3408977241401	0.710765974712217	-0.663963841262582	-0.00203283274483845	0.00875764566949433
0.27	0.395291819921379	2.20788629766236	735.086389910952	-6.64281626401733	-17.4954053213432	0.712903799981218	-0.663801693534313	-0.00218388509773815	0.00858748955135757
0.28	0.482174108161181	2.31198103287134	736.219684973825	-6.75041974117878	-17.668487260686	0.721107298544464	-0.669911234018977	-0.00231332993486277	0.00839117519136123
0.29	0.599896700146686	2.40814909982138	737.219229790876	-6.83782561485963	-17.8588667238414	0.734424962851581	-0.681553753321775	-0.00241662441233204	0.00816757083753106
0.3	0.742553758772528	2.48670349136308	737.994938144406	-6.90162907901052	-18.0624741435145	0.751398970544191	-0.697442436759793	-0.00249048515234684	0.00791905587174041
0.31	0.899297477038362	2.54079775416833	738.464253582242	-6.94010258401462	-18.2733791097025	0.770171986942122	-0.715780473761298	-0.00253380316552865	0.00765070837661408
0.32	1.05735432162052	2.5687284588354	738.568007688307	-6.95374756385654	-18.4853031063899	0.788640393470784	-0.734387414154264	-0.00254815027511424	0.00736879883793151
0.33	1.20601206775507	2.574295059757	738.283910193985	-6.94531061161638	-18.6932300504791	0.804630455515356	-0.750902825762073	-0.00253760421781457	0.00707907628243787
0.34	1.34020244729329	2.56510765654696	737.63283782099	-6.91921667061581	-18.8945569376545	0.816072215539393	-0.763033321051772	-0.00250789274002006	0.00678544486062638
0.35	1.46239600218091	2.54952611512352	736.675352204742	-6.88058786960022	-19.0893595730556	0.82115775332731	-0.768802357722183	-0.00246511723889042	0.00648952281660092
0.36	1.58207655971906	2.53343676126459	735.499207261224	-6.83415338491599	-19.2796466508574	0.818488775603937	-0.766772117339161	-0.00241445626034364	0.00619127904345773
0.37	1.71286518811296	2.51811610325283	734.201667204891	-6.7833709733263	-19.4678351454686	0.807229194042076	-0.756222804344995	-0.00235922882200068	0.00589055324219112
0.38	1.86813865903555	2.49998017782231	732.872061125938	-6.72998809069867	-19.6549702799371	0.787269824318983	-0.737283627996075	-0.00230055086934855	0.00558892319529003
0.39	2.05648315719324	2.4722616924345	731.579597585092	-6.67412123473209	-19.8393242659983	0.75938463452606	-0.711005027746895	-0.00223762196878208	0.00529121842975816
0.4	2.27839069699986	2.42790784532699	730.369329767245	-6.61478534478462	-20.0158927433682	0.725325135683214	-0.679348442343125	-0.00216850966065119	0.00500606657899605
0.41	2.52523016843976	2.36255226920682	729.266220213009	-6.55070213917704	-20.1770027928409	0.687782781245772	-0.645061518607707	-0.00209119932030077	0.00474517812857989
0.42	2.78082287532766	2.276449201745	728.284627613935	-6.48117120439533	-20.3138596296689	0.650164760378452	-0.611415807971674	-0.00200465174925069	0.00452151697507136
0.43	3.02513327935533	2.17472833325572	727.439083451714	-6.40679273410458	-20.4185304870903	0.61617696210546	-0.581813770464518	-0.0019096370282955	0.00434690588291381
0.44	3.23890054122114	2.06602000875853	726.752259150151	-6.32986967578786	-20.4857128920669	0.589272338540232	-0.559312843368406	-0.00180916512017526	0.00422982515228121
0.45	3.40771423587829	1.9601207866853	726.257321948466	-6.25437630192741	-20.5137139942647	0.572077168695024	-0.546149533011933	-0.00170839652656829	0.00417409892262688
0.46	3.5242138953719	1.86567347535722	725.993878914941	-6.18545397884625	-20.5043458113365	0.565929245058415	-0.543360953515064	-0.00161398997897888	0.00417885149519104
0.47	3.58774689050227	1.78871937828086	725.998765074832	-6.12848163718811	-20.4618139568655	0.57064212178638	-0.550589111453487	-0.00153293565454893	0.00423967660687641
0.48	3.60175393572201	1.73251325573161	726.29449515153	-6.08786407631068	-20.3910095325764	0.58455565292656	-0.566118745322772	-0.00147103353374578	0.00435056167429443
0.49	3.57003333310463	1.69838299731965	726.878912217115	-6.06577313311488	-20.2957918876041	0.604862919602362	-0.587152504410966	-0.0014312943093987	0.00450588903996813
0.5	3.49351151796398	1.68693127771168	727.719293594428	-6.06114201361995	-20.1778227735303	0.628137397438542	-0.610278051010998	-0.00141263438692918	0.00470186147597368
0.51	3.36899385827516	1.69873115338959	728.753003425118	-6.06922268520535	-20.0363038771004	0.650938533204068	-0.632039408847526	-0.00140926514889839	0.00493693967154163
0.52	3.1906024618841	1.73393792322458	729.895019163502	-6.08194492952225	-19.8686614829436	0.670359717455536	-0.649498425121866	-0.0014111006328934	0.00521123472053309
0.53	2.95350218393346	1.7908224994938	731.050781049208	-6.08915548018821	-19.6719193135817	0.684403926067016	-0.660670208356192	-0.00140531008111811	0.00552514317047964
0.54	2.65850821163214	1.86387580108431	732.131347034371	-6.08058785287353	-19.4442967826319	0.692124166699146	-0.664743800949506	-0.0013788456159769	0.00587773884309573
0.55	2.31567768993954	1.94253819364935	733.067198842812	-6.04817231248653	-19.1865208697778	0.69353337229979	-0.662052236321511	-0.00132145090795011	0.00626548380524639
0.56	1.94523626627417	2.01155162283672	733.817407647508	-5.98811841071015	-18.9024512739927	0.689349493818379	-0.653819897796446	-0.00122840927903889	0.0066816881518475
0.57	1.57510410604176	2.05338123437371	734.37210419897	-5.902166073759	-18.5988465120977	0.680675396986346	-0.641769180547465	-0.00110222592097142	0.00711688793866555
0.58	1.23551967747085	2.05229668299434	734.747944114594	-5.79754879237403	-18.2843640864604	0.668709999572182	-0.627695676524608	-0.000952622437996098	0.00756001495949904
0.59	0.95233739182236	1.99888931441007	734.978037574931	-5.68552848502324	-17.968102888118	0.654553490398327	-0.613115691120065	-0.000794636209440314	0.00800000203795004
0.6	0.741084155803425	1.8933959366951	735.099169269698	-5.57876535707158	-17.6580948802535	0.639124877713507	-0.59905911757379	-0.000645155883017834	0.00842737640349855
0.61	0.603615630708878	1.74642371455863	735.13974176506	-5.48815316144988	-17.3601153754483	0.623175689962996	-0.58603903558882	-0.000518720370162429	0.00883545949521231
0.62	0.52832750770126	1.57649083232615	735.111596051424	-5.41995586514645	-17.0770368252803	0.607370118284366	-0.574189486550825	-0.000423692518310426	0.00922097135351452
0.63	0.493702828360938	1.40492778746793	735.007773503877	-5.37404813937424	-16.8087648567171	0.592404131555713	-0.563529424581083	-0.000359883302160968	0.00958404870715196
0.64	0.473954504976931	1.24969649043567	734.806663958284	-5.34378927940165	-16.5526388282172	0.579138708549032	-0.554282141999975	-0.000318345377264495	0.0099278419465354
0.65	0.445003685032558	1.12018120875944	734.481265109897	-5.31762573863106	-16.3041023197327	0.568713064293811	-0.547155205052957	-0.000283478246006608	0.0102579044006785
0.66	0.389150740892567	1.01477728698626	734.010932198502	-5.28204782346291	-16.0574627099204	0.562585308684717	-0.543474323584067	-0.000236959130451186	0.010581527729401
0.67	0.297428500221979	0.922208773756733	733.392394380648	-5.22515300384498	-15.8066345158193	0.562438779232557	-0.545081231825368	-0.000162510031314178	0.0109070598647226
0.68	0.169482215245339	0.826248001325706	732.647093651348	-5.13988984155309	-15.5458448296029	0.569914175115542	-0.553962727973558	-5.02646982843968e-05	0.0112431428772841
0.69	0.0115611952077752	0.71232651727241	731.822927293905	-5.02611570883188	-15.2703184001965	0.586188043286814	-0.571670261120051	0.000100430681946428	0.0115977932492193
0.7	-0.166409254531437	0.573833310875794	730.98990533457	-4.8908835681502	-14.976930255928	0.611499267823969	-0.598687998781601	0.000280578777087981	0.0119773373558911
0.71	-0.353745261396622	0.415939965019594	730.230667228612	-4.74681430941181	-14.6647344357958	0.644788485376907	-0.633968172039701	0.000473661773129685	0.0123853702726103
0.72	-0.541327269437174	0.255565011016127	729.627900719216	-4.60891038081863	-14.3352044207248	0.683620747443637	-0.674837335279462	0.000659877015671828	0.0128220383875343
0.73	-0.723176402092015	0.117332467000475	729.251268482186	-4.49060011479463	-13.9920177509304	0.724491010941307	-0.717375635578694	0.000821424772055823	0.013283962575691
0.74	-0.897427095446564	0.0266747881958564	729.146420334416	-4.40004822480341	-13.6403170287028	0.763482838006451	-0.757211950567279	0.000947456836567051	0.0137649731479378
0.75	-1.06687408213891	0.00214840968016718	729.328129974046	-4.33774126701635	-13.2855595258737	0.797112618701915	-0.790520525828476	0.00103732438415327	0.0142575556495554
0.76	-1.23907794228903	0.0492770129801316	729.778723566102	-4.29604484507408	-12.9322548620568	0.823104737804308	-0.814915292134398	0.00110118100728696	0.0147546158577736
0.77	-1.42575509873929	0.157754198463596	730.451975525465	-4.26090852256793	-12.5829952952836	0.840849180211907	-0.829957763081062	0.00115769995946757	0.0152509944331821
0.78	-1.64107062982731	0.302810691897512	731.281706539175	-4.21531291289681	-12.2381449531137	0.851394607029509	-0.837119842182063	0.00122945200342361	0.0157441874193519
0.79	-1.89864616104778	0.450337174275804	732.193521271838	-4.14358180698494	-11.896370389015	0.856988039113799	-0.839226179603965	0.00133712869093627	0.0162339647535463
0.8	-2.20758213973087	0.56434008744893	733.117507264585	-4.03545469706168	-11.5559233237192	0.860324353254904	-0.839570942017041	0.00149410143479123	0.0167209451802962
0.81	-2.56838448781678	0.614777610931531	733.999347443207	-3.88888801565711	-11.2163213828328	0.863756624477349	-0.840997965079848	0.00170270275277862	0.0172045519732575
0.82	-2.97008082837817	0.583872833006215	734.807321594739	-3.71089547060523	-10.8799068807746	0.868712617730456	-0.845221887443892	0.00195314738970787	0.0176810119571008
0.83	-3.38974677294578	0.46953829863065	735.533271734743	-3.51624838130326	-10.552755697624	0.87547284770765	-0.852564341020576	0.00222531792735492	0.0181420913006459
0.84	-3.79505908418436	0.285353375345602	736.186870358345	-3.32439869325096	-10.244564396264	0.8833320832768	-0.862129746491382	0.00249291107208482	0.0185750771340766
0.85	-4.1495297600032	0.0573644087519762	736.784299678956	-3.15542120311939	-9.96741904685178	0.891040864903001	-0.872306599455576	0.00272886577528109	0.0189641726340157
0.86	-4.41913518996634	-0.181372481568314	737.334267076562	-3.02598768094627	-9.73366363893287	0.897348350654346	-0.881396902113055	0.00291071773516216	0.019293076551644
0.87	-4.57854850154531	-0.397223834695525	737.825511382563	-2.9463299395437	-9.55334852917304	0.901460610797856	-0.888166922167139	0.00302461364101136	0.0195481795264571
0.88	-4.61534646982672	-0.562047810430898	738.220034625041	-2.91884033154156	-9.43187443619524	0.903281493914459	-0.892167622138078	0.00306714109055284	0.0197216225089045
0.89	-4.53132786599382	-0.657765106472724	738.455002877155	-2.93848876438788	-9.36841642521748	0.90339026062342	-0.893765091518607	0.00304475857267039	0.0198134763094437
0.9	-4.34110113875099	-0.678686233523633	738.453862075923	-2.99474718474273	-9.3555252608033	0.902798767331727	-0.893916276343431	0.00297125332085113	0.0198325072284941
0.91	-4.0689176383807	-0.631337141982066	738.144411321017	-3.07435284390628	-9.38001638793618	0.902593288168556	-0.893794624756679	0.00286411946728338	0.0197953292195014
0.92	-3.74500165949382	-0.532022421734679	737.479279590811	-3.1641117007447	-9.4249529365751	0.903586786308199	-0.894397913526802	0.00274090554371376	0.0197241122096484
0.93	-3.40230692653374	-0.402785524871806	736.453263478711	-3.25306221843959	-9.47229095035335	0.906086681264665	-0.896255527729091	0.00261641005653734	0.0196433223173552
0.94	-3.07396168883041	-0.266695121193314	735.112687143862	-3.3336208433106	-9.50563760326462	0.909834075282917	-0.899306651594658	0.00250120052541036	0.0195761451967459
0.95	-2.79106087063676	-0.143460157318353	733.5541338647	-3.40169164674338	-9.51259084857761	0.91411274531977	-0.902962796363796	0.0024014587882405	0.0195412649336208
0.96	-2.58026590312365	-0.0462460866212478	731.912824488398	-3.45601756450811	-9.48625878798921	0.917978486043133	-0.906316069294584	0.00231977876035572	0.0195505541964935
0.97	-2.46097487182255	0.019738518635412	730.343580942657	-3.49719636020295	-9.42575394598483	0.920533094257924	-0.908421007000614	0.00225636643770988	0.0196080179408025
0.98	-2.44243172644834	0.0567322662544695	728.998864736046	-3.52676538973078	-9.33567145019193	0.921165059139893	-0.90856729377212	0.00221012962944311	0.0197100736017157
0.99	-2.5216815278884	0.0722841075904782	728.008460167878	-3.5466199201771	-9.22474739489014	0.919696388194065	-0.906471228329424	0.00217933330470355	0.0198469965241608
1	-2.68340205902649	0.0761697800695715	727.464203398589	-3.55884394558293	-9.10402270459988	0.916403711110039	-0.902339263113367	0.00216173735993863	0.0200051574018508
1.01	-2.90221256028058	0.0772620698942949	727.411373103293	-3.56586852692246	-8.98489030901845	0.9119130995963	-0.896789650311183	0.00215433984864932	0.0201695664922942
1.02	-3.14722563405301	0.0812339802183318	727.846664681164	-3.57077188354623	-8.87737566554587	0.906995079280995	-0.890650974288172	0.00215297081892041	0.0203262378585699
1.03	-3.38773607720269	0.0896938769873395	728.721554692688	-3.57750866243682	-8.7889045317471	0.902305559224452	-0.884683733387957	0.00215200980999952	0.0204639913886978
1.04	-3.59844257493054	0.10088209807129	729.949458365981	-3.59089281514126	-8.72367408151381	0.898129544212278	-0.879290000235889	0.00214444907569289	0.0205754890471315
1.05	-3.76273074594976	0.111545017826479	731.415225661542	-3.61623973553148	-8.68260081585208	0.89418858852647	-0.874284820957584	0.00212241969463189	0.0206575020036525
1.06	-3.8732796849801	0.119219771787933	732.985914021131	-3.65867731402595	-8.6637093349142	0.889569770230856	-0.86879957995979	0.00207816459979304	0.0207105683410707
1.07	-3.93028025410971	0.12404741385905	734.522160189424	-3.72224112006722	-8.66277749352624	0.88282042847238	-0.861369250172215	0.00200530650132091	0.0207382822110664
1.08	-3.93842257855818	0.129427521071718	735.889720415189	-3.80895407197821	-8.67407227142446	0.872224448548179	-0.850219763297016	0.00190014708039388	0.0207464408621121
1.09	-3.90413975703888	0.14126437889266	736.970844727479	-3.91813301082673	-8.69107847563611	0.856230856737146	-0.833719983182213	0.00176267653001205	0.0207421891346161
1.1	-3.8342472606927	0.166077516245433	737.675117707197	-4.04614452049046	-8.70720232911203	0.833950353467213	-0.810903989973269	0.0015969954894729	0.0207331920946324
1.11	-3.73626602493708	0.208670038891924	737.94921964211	-4.18674363988319	-8.71648394040337	0.805587067436547	-0.781921644532741	0.00141096415680197	0.0207267906100636
1.12	-3.6197660202841	0.270214823164488	737.784699345626	-4.33198671064493	-8.71435030352188	0.772654949702543	-0.748261754286029	0.00121507679722987	0.0207290880674632
1.13	-3.49746334291108	0.347469016732395	737.222342451062	-4.47355127410669	-8.69838289937733	0.737861151894247	-0.712630868676089	0.00102076486291336	0.020743981942045
1.14	-3.38483206711207	0.433414787739407	736.351286432942	-4.60417194512446	-8.66898660495431	0.704626390485268	-0.678463226481734	0.000838493751119995	0.0207722612726404
1.15	-3.29764855469316	0.519103011802912	735.301063892027	-4.71885512214046	-8.62977156035614	0.676333746413527	-0.649160742553906	0.000676081930793271	0.020810989999354
1.16	-3.24788791178906	0.596046115721109	734.225629821256	-4.8155859625472	-8.58743901503427	0.655509649681699	-0.62727251113786	0.000537614495123795	0.0208534362335885
1.17	-3.239308853224	0.658331988703286	733.280254719774	-4.89537456551585	-8.55102122357187	0.643194968529583	-0.613872919988467	0.000423164514522623	0.0208897568918367
