Time [s]	GRFml [N]	GRFap [N]	GRFv [N]	Mml [N.m]	Map [N.m]	Mv [N.m]	Mfree [N.m]	COPml [m]	COPap [m]
0.01	16.9766871573073	-3.27285410223073	608.060874792727	-22.9144478920239	8.84083688667302	1.79273600836872	2.48152311610782	0.00106922256453748	0.0157649678704104
0.02	16.8055412364302	-3.64359643420893	606.621261131517	-22.2327179139988	8.8388034374908	1.92965189502944	2.59991146355909	0.00111379832812456	0.0147170423378499
0.03	16.6297874718143	-4.01839422753441	605.139375547265	-21.5398932335763	8.8380111926234	2.06686754405196	2.71853325513004	0.00116108023242494	0.0136476605121051
0.04	16.4495567859968	-4.39554449024857	603.605639651338	-20.8361132258071	8.83836629363546	2.20317507985928	2.83618961125083	0.00121105868409895	0.012556815262442
0.05	16.2653922082728	-4.77310882549229	602.012094907456	-20.1221007520434	8.839612368576	2.33734387976999	2.95168501442593	0.00126343036627588	0.0114455701692438
0.06	16.0783646341124	-5.14881651784007	600.35374906211	-19.3995048087383	8.8413139502306	2.46812189498621	3.06383553139579	0.00131754149449	0.0103166127671773
0.07	15.8901536567055	-5.51999132257304	598.629785215496	-18.6711762647976	8.84284974327273	2.59424035488472	3.1714763162429	0.00137234938590247	0.00917469807565556
0.08	15.7030846577134	-5.88351181941472	596.844544555354	-17.9413504445756	8.84341710817263	2.71442330167539	3.27346961672619	0.00142640619200331	0.00802693786108308
0.09	15.5201171888004	-6.23581218456854	595.008211051428	-17.2157190051916	8.84204833140705	2.82740280712651	3.36871450551803	0.00147786708969258	0.00688290458559252
0.1	15.3447837202181	-6.57292682310927	593.137147267317	-16.5013829922007	8.83763841612583	2.93194008194434	3.45615945707805	0.00152452367624535	0.0057545343321674
0.11	15.1810817065722	-6.89057878785896	591.253853259523	-15.8066882878089	8.82898332458047	3.02685206616501	3.53481866371221	0.00156386188830987	0.00465582883979912
0.12	15.0333253222086	-7.18430855613104	589.386543802617	-15.1409531985903	8.81482689122536	3.1110425351361	3.6037926078662	0.00159314252194802	0.00360237196760348
0.13	14.9059659281205	-7.44963676528326	587.568361558694	-14.5141051412334	8.79391404782927	3.18353630522806	3.66229287894045	0.00160950137274706	0.00261068943340967
0.14	14.8033922107687	-7.68225209645829	585.836264128084	-13.9362489217705	8.76504758922609	3.24351479756576	3.70967057139404	0.00161006510500428	0.00169749171813181
0.15	14.7297219237729	-7.87821376471728	584.22964020699	-13.4171927760168	8.72714547642975	3.29035102596738	3.7454468921219	0.00159207814317918	0.00087884795832174
0.16	14.6885972833616	-8.0341570894215	582.788723592875	-12.9659601053828	8.67929562567093	3.32364201594867	3.76934393385405	0.00155303511502262	0.00016934303360908
0.17	14.6829953979422	-8.14749039350004	581.55288302491	-12.5903147896798	8.62080525912592	3.34323672615552	3.78131304619789	0.00149081265970798	-0.000418729317285201
0.18	14.7150637798371	-8.21657197636803	580.558870591975	-12.2963262768845	8.5512421782004	3.34925771721939	3.78155795836199	0.00140379379708027	-0.000876087613656356
0.19	14.785989153958	-8.24085704174117	579.839111716737	-12.0879976045058	8.47046573885526	3.34211507735263	3.77054985055876	0.00129097764497996	-0.00119705476079474
0.2	14.895905620183	-8.22100612351757	579.4201158157	-11.9669754113939	8.37864583170201	3.32251144862001	3.7490319623357	0.00115206722149298	-0.00137998732815983
0.21	15.0438459192428	-8.15894860238987	579.321079149824	-11.9323561868654	8.27626876604033	3.29143738180734	3.71801203973755	0.00098752853692894	-0.00142751949691269
0.22	15.2277372574704	-8.05789719385252	579.552740805586	-11.9805978075032	8.1641295945455	3.25015666075568	3.67874188172477	0.000798615288380355	-0.00134661157488041
0.23	15.4444410003476	-7.92231166626844	580.116539990852	-12.1055401398292	8.04331106257589	3.20018165982601	3.63268433254226	0.000587355258162984	-0.00114840524513945
0.24	15.6898336528198	-7.75781237840577	581.004108757721	-12.2985334100674	7.91514999357845	3.14323921347213	3.58146914359164	0.000356496913355006	-0.000847898803537507
0.25	15.9589249750898	-7.57104639224714	582.197119725977	-12.5486683827476	7.78119250305017	3.08122786948661	3.52684006153706	0.000109417513800759	-0.000463464665256413
0.26	16.2460078704739	-7.36951082826896	583.66749414733	-12.8430983164428	7.64313994447755	3.01616775432701	3.47059617904998	-0.000150003031168258	-1.62377984606367e-05
0.27	16.5448338300451	-7.16133972586904	585.377962359657	-13.1674392913906	7.5027879117857	2.95014458924926	3.41453094144245	-0.000417535603590591	0.000470592734915631
0.28	16.8488072047242	-6.95506191998405	587.282956796738	-13.5062328927726	7.36196093812357	2.88524965112012	3.36037221544494	-0.000688773498837	0.000972556117599395
0.29	17.151191358211	-6.75933834158408	589.329807515854	-13.8434534028471	7.2224457283772	2.82351766503502	3.30972652183595	-0.000959311760389556	0.00146470435636422
0.3	17.4453197816671	-6.5826877110029	591.460201769538	-14.1630405864886	7.08592583493736	2.76686474219807	3.26402997647207	-0.00122492336382284	0.00192242037270526
0.31	17.7248054677528	-6.43320984893114	593.611862403597	-14.4494388027244	6.95392062969283	2.71702853232232	3.22450776452624	-0.00148172196003171	0.00232220458264007
0.32	17.9837421947416	-6.31831581613708	595.720394619519	-14.6881234769857	6.82773124143484	2.67551274270177	3.19214319014985	-0.00172630231847172	0.00264241878545707
0.33	18.2168918163822	-6.24447384397283	597.721246644287	-14.8660968534783	6.70839582329824	2.64353808485649	3.1676565934313	-0.00195585169239297	0.002863969657572
0.34	18.4198521570496	-6.21697956094851	599.551726856152	-14.9723363406498	6.59665610118746	2.62200154425201	3.15149378757318	-0.00216822779954526	0.0029709169702354
0.35	18.5892006551068	-6.23975837352299	601.153017735067	-14.998180593922	6.49293664820923	2.6114456305362	3.14382319744456	-0.00236200170148323	0.00295099374418398
0.36	18.7226094743408	-6.31520702863862	602.472125565205	-14.9376406820542	6.39733775377022	2.61203895844164	3.14454060504156	-0.00253646632284112	0.00279602702546497
0.37	18.8189284196932	-6.44408036989892	603.463704176827	-14.7876261947089	6.30964213532319	2.62356913882884	3.15328032989519	-0.00269161347500353	0.00250224904431293
0.38	18.8782326639946	-6.625428093079	604.091691383036	-14.5480789097327	6.2293351051861	2.64544853409373	3.16943177052885	-0.00282808389027413	0.00207048949699249
0.39	18.9018330365865	-6.85658490608239	604.330698474493	-14.2220095896405	6.15563718577541	2.67673296444182	3.19216046381897	-0.00294709584707329	0.00150624087189903
0.4	18.8922474623986	-7.13321590797776	604.167096592633	-13.8154365540628	6.08754759561738	2.71615295692509	3.22043312495262	-0.00305035844547917	0.000819590394959425
0.41	18.8531330865895	-7.44941724016214	603.59974943432	-13.3372278074358	6.02389653569759	2.76215662656661	3.25304644584435	-0.00313997549925068	2.50145014536254e-05
0.42	18.7891796816594	-7.79787016785081	602.64034991143	-12.7988516085855	5.96340381768528	2.81296279013076	3.28865968771842	-0.00321834541516556	-0.000858965121983721
0.43	18.7059661048713	-8.17004478130714	601.313329319313	-12.2140433609152	5.90474111366844	2.86662246189124	3.32583124424456	-0.00328806144319416	-0.0018102609014616
0.44	18.6097828327186	-8.55644754375004	599.655321268335	-11.598399480569	5.84659498572819	2.92108649160094	3.36305932976221	-0.00335181544572201	-0.0028038263506968
0.45	18.5074249090292	-8.94690505408337	597.71417884786	-10.9689113630794	5.78772787931273	2.97427680143175	3.3988267387795	-0.00341230702027849	-0.00381237744220495
0.46	18.4059609519925	-9.33087474504176	595.547561677699	-10.3434546162075	5.7270344343628	3.02415848189298	3.43164923093648	-0.0034721586010016	-0.00480720933379939
0.47	18.3124851082881	-9.69777190939869	593.221128830847	-9.74025026628127	5.66359077078418	3.06880993298304	3.46012655252819	-0.003533836238428	-0.00575908351555387
0.48	18.2338599464165	-10.0373015369177	590.806393014762	-9.17731560183403	5.59669481981139	3.10648829592598	3.48299447325363	-0.00359957526724002	-0.0066391549231723
0.49	18.1764591697967	-10.3397830303517	588.378309640794	-8.67192263938648	5.52589627232589	3.13568761467627	3.49917558147246	-0.0036713101151464	-0.00741990395347738
0.5	18.1459196291696	-10.5964559974676	586.012690189698	-8.24008185824679	5.45101526615293	3.15518748798352	3.50782604492585	-0.00375060809909077	-0.00807603521354442
0.51	18.1469123578682	-10.79975599849	583.783541343357	-7.89606786298109	5.37214950085465	3.16409040632325	3.50837521118094	-0.00383860811058302	-0.0085853038366886
0.52	18.1829421912949	-10.9435503355219	581.760438619592	-7.6520020358076	5.28967001486036	3.16184648944646	3.50055488408856	-0.00393596641452428	-0.00892923181490319
0.53	18.2561849314817	-11.0233256350695	580.006044927057	-7.51750511009691	5.20420635347603	3.14826491928879	3.48441543005293	-0.00404281308853947	-0.00909368132655641
0.54	18.3673699699025	-11.0363209964415	578.573880139885	-7.49943003078127	5.11662227094155	3.12351196506967	3.46032655658337	-0.00415872357903417	-0.00906925944478158
0.55	18.5157148033245	-10.9816027331767	577.506437508098	-7.60168258807215	5.02798342691775	3.08809608693047	3.42896162690577	-0.00428271013414319	-0.00885153843775196
0.56	18.6989160111709	-10.8600790847442	576.833726960876	-7.8251342490785	4.9395187486061	3.04284114742059	3.39126563517866	-0.00441323728085156	-0.00844108722081535
0.57	18.9131990766633	-10.6744555843698	576.572305052388	-8.16762850129247	4.85257723473013	2.98884922694133	3.34840832913667	-0.00454826399997622	-0.00784332114783385
0.58	19.1534270184437	-10.4291339107526	576.724827736123	-8.62407898882803	4.76858198620525	2.92745490689403	3.30172526756222	-0.00468531297547789	-0.00706818783840533
0.59	19.4132652631434	-10.1300589240252	577.280136884958	-9.18665487784132	4.68898317690867	2.86017313786713	3.25265067612604	-0.00482156459451599	-0.0061297148479572
0.6	19.6853976537553	-9.78452011734912	578.213866176866	-9.84504632137526	4.61521154757013	2.78864294370491	3.20264668109874	-0.00495397070731778	-0.00504544980581813
0.61	19.9617860810154	-9.40091486754473	579.489528294866	-10.5868006704827	4.54863383927757	2.71456922847564	3.15313376888487	-0.00507938098774496	-0.00383582486425851
0.62	20.2339640718853	-8.98848163890577	581.060024831443	-11.3977182363419	4.49051140217703	2.6396648628936	3.10542711313438	-0.00519467343496479	-0.0025234752571111
0.63	20.4933528894954	-8.55701171353877	582.869504033475	-12.2622949612874	4.44196303770033	2.56559504681429	3.06068276392852	-0.00529688031345089	-0.0011325373484732
0.64	20.731587396963	-8.11654814409949	584.855480370298	-13.1641982990964	4.40393297143912	2.49392569670682	3.01985669022886	-0.00538330162249558	0.000312054022366393
0.65	20.9408381968765	-7.67708052143528	586.951124198587	-14.0867619159598	4.3771647141137	2.4260773155081	2.9836784283734	-0.00545159981200368	0.00178525455816404
0.66	21.1141164356822	-7.2482438960409	589.087629411559	-15.0134844753355	4.36218144843641	2.36328549099745	2.95263975529349	-0.00549987159394637	0.00326257584250604
0.67	21.2455481827247	-6.83902985767674	591.19657134376	-15.9285177338423	4.3592734722664	2.3065688596903	2.92699751678522	-0.00552669497846163	0.00472071943571838
0.68	21.3306064470597	-6.45751741462114	593.212175449781	-16.8171294288328	4.36849312089361	2.25670508417871	2.90678862845749	-0.00553115177051726	0.00613817261741003
0.69	21.3662906346782	-6.11063095094379	595.073428235989	-17.6661269690197	4.38965746879793	2.21421513547741	2.89185443709975	-0.00551282746810823	0.00749575733258743
0.7	21.3512454927236	-5.80393217603043	596.72597433824	-18.4642287481367	4.42235895923756	2.17935595482614	2.88187115872431	-0.00547179168579643	0.0087771213458806
0.71	21.2858142232168	-5.5414525852274	598.12375627283	-19.202371001338	4.46598391679685	2.15212139193178	2.87638303306441	-0.00540856286749016	0.00996915759761596
0.72	21.1720233406971	-5.32557246855056	599.230365167424	-19.8739395378731	4.51973865700186	2.1322511735813	2.87483514540893	-0.00532406120313633	0.0110623351047054
0.73	21.013499845548	-5.15695186334907	600.020080893715	-20.4749174388956	4.58268261867065	2.11924753828159	2.87660351212239	-0.00521955342195609	0.0120509232153335
0.74	20.8153242331229	-5.0345179679564	600.4785880042	-21.0039419305658	4.65376761710801	2.11239906672933	2.88102091033714	-0.00509659261296589	0.0129330912130693
0.75	20.5838256102144	-4.95551234480135	600.603359626756	-21.4622661431802	4.73188196585948	2.11081113140763	2.88739792631477	-0.00495695553393899	0.0137108675613682
0.76	20.3263276134196	-4.91559969117549	600.403705264025	-21.8536243404963	4.81589786484165	2.1134422697373	2.89503965447703	-0.00480257911673057	0.0143899476183182
0.77	20.0508558114362	-4.90903802343578	599.900480868597	-22.1840024161037	4.90472013184012	2.11914564555275	2.90325925638281	-0.0046354971561416	0.0149793453011328
0.78	19.7658187481086	-4.92890782586604	599.125461439656	-22.4613189390789	4.99733409388528	2.12671459962513	2.91139006699611	-0.00445777757268569	0.0154908925470212
0.79	19.4796757006479	-4.96739512401435	598.1203786511	-22.6950256868305	5.0928502858199	2.13493110373486	2.91879804033645	-0.00427146025504749	0.0159385998770863
0.8	19.2006045757647	-5.01612066479005	596.935629604809	-22.895640290918	5.19054355286158	2.14261573277469	2.92489604299823	-0.00407849539659972	0.0163379011181586
0.81	18.9361831628712	-5.06650457343889	595.628668494675	-23.0742271718927	5.28988424292227	2.1486775697426	2.9291608811815	-0.00388068250336143	0.016704814462391
0.82	18.6930962496869	-5.11015319379658	594.262101297365	-23.241846157672	5.39055941444116	2.15216227829941	2.93115309228165	-0.00367961088997011	0.0170550596194693
0.83	18.4768799409808	-5.13925250471847	592.90151475041	-23.4089908588037	5.49248237697634	2.15229643914175	2.93053859530973	-0.00347660345384504	0.0174031760054216
0.84	18.2917129760844	-5.14695074723615	591.613084600946	-23.5850408050668	5.59578941320886	2.14852617335899	2.9271104426957	-0.00327266669958958	0.0177616890788635
0.85	18.140262989964	-5.1277118850283	590.461023744734	-23.7777523379469	5.70082317883701	2.14054809070923	2.92080830580524	-0.00306845115714514	0.018140370742241
0.86	18.0235935802618	-5.07762141580605	589.504947362914	-23.9928131401399	5.80810300682062	2.12833072230076	2.91173307589688	-0.00286422720200163	0.0185456352030497
0.87	17.9411357994363	-4.99462696744196	588.797248118002	-24.2334839502225	5.91828311169484	2.11212483844155	2.90015412951842	-0.00265988151495109	0.0189801042589457
0.88	17.8907253528183	-4.87869810469918	588.380588295105	-24.5003484020044	6.03210044962101	2.09246141818771	2.88650737941033	-0.00245493872497682	0.0194423663974097
0.89	17.8687044118326	-4.73189282536894	588.285625804149	-24.7911880590677	6.1503146896301	2.07013652232306	2.87138312549084	-0.00224861100676425	0.0199269433803896
0.9	17.8700846062184	-4.55832224883472	588.529095616007	-25.1009946790933	6.2736433417609	2.04618291031234	2.85550379564051	-0.00203987561433771	0.0204244671653724
0.91	17.8887654990167	-4.36400983102036	589.112366158604	-25.4221257136172	6.40269552429412	2.02182890761779	2.83969275106086	-0.00182757684440763	0.0209220599976797
0.92	17.9178007342806	-4.15664684360023	590.020580509967	-25.7446022776253	6.53790809943514	1.99844573639312	2.82483625326743	-0.00161054529460659	0.0214039018763497
0.93	17.9497021434644	-3.94525154075883	591.222474470552	-26.0565416282158	6.67948794047098	1.97748522618137	2.81184130730144	-0.00138772420952061	0.0218519625217788
0.94	17.976770468173	-3.73974507127733	592.670937952925	-26.3447089433231	6.82736390304757	1.96041047362365	2.80159232340099	-0.00115829086908226	0.02224686925357
0.95	17.9914400709213	-3.55046242518898	594.30435340674	-26.5951662935554	6.98115166287508	1.94862257251018	2.79490936440607	-0.00092176085307925	0.0225688773870398
0.96	17.9866241257644	-3.38762118494806	596.048706640171	-26.7939905644418	7.14013397069056	1.94338694251965	2.7925102297271	-0.00067806476378871	0.022798905429304
0.97	17.9560463644419	-3.26077426268613	597.820423404708	-26.9280271069136	7.30325809519823	1.94576300913737	2.79497789114782	-0.000427590371635206	0.0229195932571116
0.98	17.8945455469635	-3.17827488278068	599.52984192339	-26.9856424201807	7.4691513201233	1.95654100226244	2.80273400027493	-0.000171187594523324	0.02291633768759
0.99	17.7983394582197	-3.14678262205956	601.085189896747	-26.957437482929	7.63615438534172	1.9761894346637	2.81601849689692	8.9861544508258e-05	0.0227782568680754
1	17.6652364139374	-3.17083824837764	602.396897250846	-26.8368836337415	7.80237177231844	2.00481639698081	2.8348749000422	0.000353901616053785	0.0224990334243456
1.01	17.494783976669	-3.25253240229145	603.382045729409	-26.6208452391454	7.96573679002343	2.04214718225677	2.85914074332401	0.000618981731627503	0.0220775870986008
1.02	17.2883467972785	-3.39128894970402	603.968735799091	-26.3099577384242	8.12408857546307	2.08751996324551	2.88844283578211	0.000882941883638556	0.0215185313277618
1.03	17.0491081463117	-3.58377829817062	604.100142155877	-25.9088358580342	8.27525743267844	2.13990033503974	2.92219752492227	0.00114349709768517	0.020832375217059
1.04	16.7819926956117	-3.82396940608632	603.73803265239	-25.4260945694426	8.41715443532963	2.19791455741635	2.95961677847045	0.0013983106788244	0.0200354426416429
1.05	16.4935113449098	-4.10332198219808	602.865542193217	-24.8741743448452	8.54786093826351	2.2599003436287	2.99972150803554	0.00164505094101487	0.0191494933816921
1.06	16.191532234077	-4.41111288028568	601.489022707684	-24.2689719865738	8.66571359638127	2.32397310334179	3.04136393936925	0.00188142968896713	0.0182010465853597
1.07	15.8849853987253	-4.73488336981592	599.638831497316	-23.6292882541404	8.7693806740672	2.38810471139324	3.08326081993444	0.00210522483130504	0.0172204235752996
1.08	15.5835116660148	-5.06098723222508	597.368971065673	-22.9761131492802	8.85792583116917	2.45021118821581	3.12403873211379	0.00231429327405176	0.0162405440730416
1.09	15.2970691981321	-5.37521388709114	594.755551288243	-22.3317785132272	8.93085616570558	2.50824517925802	3.16229172293232	0.00250658310802703	0.0152955262703259
1.1	15.0355134277595	-5.66345633002272	591.894106270137	-21.7190150506622	8.98815204300001	2.56028883497512	3.1966499450199	0.00268015553012833	0.0144191557725894
1.11	14.8081678612675	-5.91239082562287	588.895859955903	-21.1599565993598	9.03027710273396	2.60464263260259	3.22585620891903	0.00283322647664305	0.0136433002112807
1.12	14.6234042412708	-6.11013421351022	585.883092898058	-20.6751380857469	9.05816776249978	2.63990584587667	3.24884554050031	0.00296423531237285	0.0129963541920211
1.13	14.488250779605	-6.24684542041577	582.983814103973	-20.2825349297624	9.07320248106587	2.66504474699957	3.26482133743784	0.00307194311146357	0.012501802160394
1.14	14.4080465490809	-6.31524028877494	580.32598347933	-19.99669059789	9.07715196097196	2.67944519365421	3.27332084522602	0.00315555649638811	0.01217698379822
1.15	14.3861586516581	-6.31099299166033	578.031559553175	-19.8279755902995	9.07211231683538	2.68294698111545	3.27426268820793	0.00321486558622016	0.0120321371067851
1.16	14.4237764979461	-6.23300287227291	576.210662113185	-19.7820155511524	9.06042397752465	2.67585818719114	3.2679702392034	0.00325037774427526	0.0120697783854262
1.17	14.5197945158775	-6.08351221310502	574.956139144117	-19.8593186888511	9.04457969895848	2.65894866325712	3.25516667143985	0.0032634241978525	0.0122844567474843
1.18	14.670790971738	-5.86806783767833	574.338811978552	-20.05512366061	9.02712551914473	2.63342278347238	3.23694039857254	0.00325621581934157	0.0126628955348734
1.19	14.8711064855223	-5.59532717492882	574.403642649179	-20.3594789628132	9.0105587751713	2.60087251206896	3.21468288829339	0.00323182838750154	0.0131845068198848
1.2	15.1130214334604	-5.2767170621431	575.16702470453	-20.7575541735822	8.99722741729069	2.56321274329176	3.19000403151839	0.00319410639135803	0.0138222414050176
