Time [s]	GRFml [N]	GRFap [N]	GRFv [N]	Mml [N.m]	Map [N.m]	Mv [N.m]	Mfree [N.m]	COPml [m]	COPap [m]
0.01	-2.49273414970795	0.876867087880178	778.830255660993	12.4227208783361	25.2655744830396	0.882029725041986	-0.950257093863617	0.00176049842784121	-0.00375618466824462
0.02	-2.29405257177353	0.981454747906344	779.592628418968	12.4079079593602	25.3247199194935	0.886713409441332	-0.955150405918713	0.001726657453749	-0.00371225168959516
0.03	-2.11055538122087	1.07129781453044	780.289128686995	12.4041297216146	25.3838766800089	0.889534787141372	-0.957973407048407	0.00170813106238488	-0.00366564729182001
0.04	-1.95368803457865	1.13450663983574	780.863544688328	12.4194657671754	25.4423550650919	0.888975216343596	-0.957023890125376	0.00171628317104244	-0.00361498305974639
0.05	-1.83082911174296	1.16427694552083	781.277463806581	12.4571924488799	25.5000395421895	0.884259483150287	-0.95143257121519	0.00175602475349879	-0.00355884422911934
0.06	-1.74514172451984	1.15994394140595	781.515203673875	12.5152072548318	25.5576068787529	0.875492039292189	-0.941330313074906	0.00182498871488002	-0.00349571077937638
0.07	-1.69648152547665	1.12664299259894	781.584754779075	12.5869334533582	25.6164784520836	0.863586018063804	-0.927782861055739	0.00191466350510683	-0.00342406246915372
0.08	-1.68278163106984	1.07371475145667	781.514593184113	12.6633308784944	25.67852019388	0.850023656338079	-0.912525934164249	0.00201301096748474	-0.00334264229799491
0.09	-1.70121003628239	1.012325893505	781.347168160598	12.7353361380572	25.7455880104923	0.836526923425873	-0.897581932263179	0.00210769163739177	-0.00325078215091035
0.1	-1.74862474253726	0.952958990861769	781.130627897453	12.7960018286331	25.81907197357	0.824727029419207	-0.884859027753162	0.00218893917199248	-0.00314865485036442
0.11	-1.82129534853296	0.903397286497414	780.91065967033	12.8417859186799	25.8995921361267	0.815901228158454	-0.875819915691087	0.00225135178436209	-0.00303733212761387
0.12	-1.91428083013602	0.867619176342561	780.724101362344	12.8727669185616	25.9869381789594	0.810807575187941	-0.871270450105401	0.0022942860133115	-0.00291859890975232
0.13	-2.02104476530563	0.845718636984522	780.595324176435	12.8919037445568	26.0802471982684	0.809612269000771	-0.871276482816613	0.00232098695627259	-0.00279457408840922
0.14	-2.13376850861277	0.834695358315251	780.535529495303	12.9037136158402	26.1783200540595	0.811886307969784	-0.87518897217421	0.00233692781108963	-0.00266727298835689
0.15	-2.24446007692534	0.829790017706899	780.544341643729	12.9128461208321	26.2799271866747	0.816653473411602	-0.88175143166033	0.0023479776893548	-0.00253827788089656
0.16	-2.34653352647609	0.825991860806392	780.61265486287	12.9229801674978	26.3839698801516	0.82249098999267	-0.889274399030642	0.00235895773794603	-0.00240864507748823
0.17	-2.43625421721375	0.819383587224698	780.725699168708	12.9363001098932	26.4894335796297	0.827699724941094	-0.895873253570225	0.0023729277315625	-0.00227908656531639
0.18	-2.51344057749785	0.808065579628225	780.865639546949	12.9535811765064	26.5951632280479	0.830556648729248	-0.899763374366364	0.00239125093621684	-0.00215035952979853
0.19	-2.58108312443117	0.792491635083902	781.013511027022	12.9747040633167	26.6995662943562	0.829634740778811	-0.899585953926533	0.0024142093423356	-0.00202372130432044
0.2	-2.64396021690295	0.775154422957713	781.150700639292	12.9992883460529	26.8003776141701	0.824135938222165	-0.894708354741585	0.00244176988003508	-0.00190128851268612
0.21	-2.70670779143603	0.759692496435966	781.260370520758	13.0271253008796	26.8945943078296	0.814151767360787	-0.885422782346748	0.00247408952275652	-0.00178617987121021
0.22	-2.77197678063739	0.749642156982475	781.329132620726	13.0582064852332	26.9786249579675	0.800762940148126	-0.872972215940283	0.00251149812005624	-0.00168239981631929
0.23	-2.83923087480044	0.747182738391941	781.348988259418	13.0923441318819	27.0486241194454	0.785920797475858	-0.859367732320763	0.00255395874721109	-0.00159449990860661
0.24	-2.90446537377576	0.752261962742526	781.31916466606	13.1285857347924	27.1009287238366	0.772112021977683	-0.847017302027521	0.00260027509142802	-0.00152710736190681
0.25	-2.96080763629943	0.76239935664149	781.247192667308	13.1647507950377	27.1324917234549	0.761873758928865	-0.838243779654148	0.00264747927262954	-0.00148442421674638
0.26	-2.99972785112948	0.77326413437505	781.148544163909	13.1974015950738	27.1412195364984	0.757275922147497	-0.834808469954018	0.00269081096028023	-0.00146978526848135
0.27	-3.01251004382616	0.779878490995461	781.044461897175	13.222397511331	27.1261525536151	0.759503044267834	-0.837561828131665	0.00272448300734129	-0.00148533526854844
0.28	-2.99168432415877	0.778100703661489	780.9581825024	13.2359330440786	27.0874689647496	0.768642988195805	-0.846311046014753	0.00274309804132711	-0.00153185916455062
0.29	-2.93222756991714	0.765965217835627	780.910339528001	13.2357253674202	27.0263309286342	0.783731111237715	-0.859933997074149	0.00274326972969452	-0.00160877605285464
0.3	-2.83242940695332	0.744514314394885	780.914657384326	13.221900496466	26.9446217541177	0.803024475501554	-0.876698354641872	0.00272484837728915	-0.00171428438861188
0.31	-2.6943625449256	0.717908361387327	780.974951621694	13.1971871079975	26.8446396725903	0.824415704982319	-0.894686185124873	0.00269123098315927	-0.00184562030815405
0.32	-2.5239049859853	0.692784307254769	781.084000985815	13.1662514345825	26.7288176552577	0.845862269077748	-0.912197946333746	0.00264853308659585	-0.00199936588663796
0.33	-2.33027246802487	0.676992699772398	781.224307004661	13.1343146679478	26.5995322730035	0.865716017799023	-0.928025669930825	0.00260380461725129	-0.00217172763213463
0.34	-2.12506227206737	0.677962117314028	781.370391857951	13.1054686180295	26.4590510800461	0.882885262925552	-0.941538057300413	0.00256282884585823	-0.00235870603875349
0.35	-1.92088886365112	0.701019986284334	781.492235730295	13.0812399695506	26.3096474518582	0.896827503338795	-0.952590056242525	0.00252821502184486	-0.00255610052410077
0.36	-1.72978686452455	0.748041466065698	781.559612558269	13.0598960695232	26.1538797845026	0.907427404976209	-0.961328264304839	0.00249841783079263	-0.002759341684827
0.37	-1.56163424224983	0.816783403576574	781.547177459273	13.0367559123462	25.9949841811321	0.914839595795964	-0.967988021169077	0.00246802243533317	-0.00296320829115276
0.38	-1.42287901204405	0.901154610232579	781.439954184499	13.0054502971018	25.8372707393623	0.919363140949335	-0.972761074967126	0.0024292314211849	-0.00316155376446636
0.39	-1.31582100906776	0.992461648677038	781.238358773575	12.9597740169998	25.6863626045387	0.921376533095475	-0.975766232869749	0.0023741179985225	-0.00334721093911228
0.4	-1.23860719853196	1.08138655342681	780.961351827157	12.8955868744308	25.5491042926759	0.9213215259737	-0.97710376364868	0.00229698458862548	-0.00351223775785525
0.41	-1.18595896567543	1.16018993564285	780.646157625708	12.8122028633035	25.433017687173	0.919701488881494	-0.976941110507373	0.00219614620541031	-0.00364859442450571
0.42	-1.15048942343636	1.22450121209312	780.343532350239	12.7128567435651	25.345304319332	0.917062715009141	-0.975574178822788	0.002074635705964	-0.00374921255132948
0.43	-1.12432543961781	1.27413490535216	780.108780176866	12.6041046408968	25.2915517711049	0.913948270581993	-0.97343092866913	0.00193964087779919	-0.00380926505053908
0.44	-1.10066501197076	1.31265753620683	779.990199530056	12.4943203317354	25.2744440690438	0.910838251355098	-0.971017271470678	0.00180083936635622	-0.00382732638655614
0.45	-1.07490915671762	1.3458356951476	780.017777758586	12.3917048292899	25.2928397701165	0.908103509133296	-0.96883250784696	0.00166810008668283	-0.00380607826016449
0.46	-1.04511715489372	1.37947808336896	780.195216841291	12.3023627048167	25.3415292293654	0.905995787043672	-0.967291768705963	0.00154918968575979	-0.00375229226464385
0.47	-1.01171964941899	1.41739849690564	780.497598097618	12.2289763836993	25.4118191215086	0.90467923363981	-0.966684491313504	0.00144811429065228	-0.00367599570743271
0.48	-0.97663149375122	1.46018676133206	780.875455287748	12.1704348132066	25.4928662979046	0.904286639374915	-0.967177527603987	0.00136453976879825	-0.00358894958160622
0.49	-0.942069680789648	1.50518781230032	781.264296090969	12.1224943973714	25.5734689528934	0.904969788448792	-0.968849817498011	0.00129441693112542	-0.00350276805626959
0.5	-0.909447417744202	1.54765619820705	781.597277615131	12.0792496591189	25.6438927027264	0.9069140812505	-0.971732426192885	0.00123158254116695	-0.00342711992813349
0.51	-0.878662775170464	1.58263304156286	781.818144616584	12.0349610749996	25.6973053366605	0.910302814113038	-0.975828001692697	0.00116982335219973	-0.0033684338760589
0.52	-0.847951879238227	1.60684264097068	781.891693423494	11.9857015665008	25.7305159262702	0.91523925775411	-0.981096046477139	0.00110477332010162	-0.00332938219151946
0.53	-0.814290849089413	1.61992060514291	781.80972239167	11.9303684218815	25.743919163016	0.921654822948893	-0.987408646218322	0.00103510417714925	-0.00330918680910203
0.54	-0.774176939026769	1.62455506037939	781.591425035573	11.8708308264159	25.7407660408449	0.929240372281947	-0.994497269768524	0.000962730986467486	-0.00330455301686661
0.55	-0.724545619446647	1.62553622742911	781.278301721177	11.8112609245596	25.7260475146881	0.937431294373227	-1.00191795850262	0.000892084712249774	-0.00331087165918642
0.56	-0.663592869836554	1.62810305933681	780.924787007754	11.7569271006892	25.7053408419769	0.945457802133416	-1.00905661691884	0.000828776589005709	-0.0033232957872143
0.57	-0.591339435735939	1.6362018675744	780.586745400314	11.7128363163573	25.6839184078154	0.952447844744049	-1.01518056311797	0.000778100502435541	-0.00333739956088736
0.58	-0.509852030347408	1.65126143132397	780.310528106996	11.6825796702647	25.6662836281797	0.957551110248863	-1.01952413541228	0.000743770637442909	-0.00334932068690108
0.59	-0.423096685392288	1.67186954843273	780.125161942111	11.6676037971867	25.6561310851926	0.960047172437081	-1.02138392563033	0.000727129815159766	-0.00335549539165303
0.6	-0.336442150117989	1.69440750905489	780.03938335026	11.6669747997452	25.6565863771466	0.959411716915186	-1.02019943468606	0.000726884942009898	-0.00335223987420968
0.61	-0.25587729796746	1.71438409965651	780.043842061196	11.6775862150103	25.6705089010527	0.955337217953104	-1.01560738699871	0.000739308045280773	-0.00333546698436155
0.62	-0.187072788039312	1.72800684543447	780.117325077948	11.6947120028684	25.700655333812	0.947727215868956	-1.0074749241688	0.00075880567394504	-0.0033007472797264
0.63	-0.134494156228562	1.73348271633401	780.234786871261	11.7127989524942	25.7495914602554	0.936693574232118	-0.995926939789592	0.000778769654034006	-0.00324376436398371
0.64	-0.100821997910303	1.73165046635303	780.374642231464	11.7263892065698	25.8193699284811	0.922576177680427	-0.981377548453405	0.00079262007447789	-0.00316103402398638
0.65	-0.086907244869302	1.72577074989644	780.523226587279	11.7310362080955	25.9111132325439	0.90597771889358	-0.964556163679514	0.000794903403259051	-0.00305061903902737
0.66	-0.0923613782281371	1.72057139929482	780.675343516203	11.7240354324129	26.0247083568929	0.88777689395507	-0.946496598033886	0.000782232176768538	-0.00291252803166686
0.67	-0.116674294412202	1.72088382009867	780.831064206805	11.7047738516203	26.1588036237596	0.869070507020469	-0.928449644040147	0.000753805513879491	-0.00274856070451912
0.68	-0.160533167358146	1.73033635239527	780.990090592912	11.6745507167145	26.3112007135136	0.851011814477474	-0.911697364530979	0.000711291636319999	-0.00256153826500105
0.69	-0.226871579005793	1.75054381597071	781.145792360036	11.6358504747565	26.4795884370921	0.834557220280228	-0.897288892984446	0.000658006117107535	-0.00235408356027228
0.7	-0.321181094412118	1.78105209177803	781.281305926101	11.5912270746348	26.6624231046289	0.820187954588688	-0.885765939098908	0.000597546941760285	-0.00212731281583556
0.71	-0.450790397366952	1.82002197975057	781.369727882598	11.5421237938142	26.8596773127067	0.807710521127534	-0.87697668327628	0.000532268445628814	-0.00187989333423916
0.72	-0.623120605461247	1.86536579109749	781.379413044357	11.4880328081229	27.0731883858541	0.796236885697883	-0.870069414023947	0.000462098860515181	-0.00160786240232291
0.73	-0.843269097567109	1.91588316165239	781.283818622425	11.4263470063332	27.3064397926491	0.784396522238874	-0.863707985683574	0.000384167634370658	-0.0013053964349003
0.74	-1.11154833572992	1.9719422153744	781.07356762623	11.3530718762494	27.5637701411624	0.770752208616431	-0.856475020603005	0.000293501558688014	-0.000966425652450864
0.75	-1.42171839260953	2.03541949201233	780.766993698495	11.2642952035566	27.8491706089188	0.754309763358681	-0.847354249252604	0.000184725036676436	-0.000586705504303509
0.76	-1.7605550531051	2.1088853691511	780.414989400054	11.1580382892824	28.1649489110327	0.734961695869523	-0.836140678469972	5.43542366453487e-05	-0.000165781461394565
0.77	-2.10909914473223	2.19429943794571	780.096918136419	11.0359252563351	28.5105726674829	0.713708803148047	-0.82363603547395	-9.69825159906623e-05	0.000291717564564586
0.78	-2.44550108998745	2.29165878241494	779.906622922897	10.9040804616424	28.8819547646694	0.692565331594407	-0.81154804248951	-0.000263139514907751	0.000775847907471705
0.79	-2.74891357413808	2.3980560302376	779.930597013038	10.7728304782994	29.2713332735738	0.674153668985871	-0.802106324923629	-0.000432443885257427	0.0012722826995667
0.8	-3.00352294886801	2.50745388298968	780.2232225909	10.6551199253137	29.6677683714969	0.661098434930747	-0.797501936910124	-0.000589283735870638	0.00176419762005514
0.81	-3.20166823210108	2.61123639464864	780.785657504271	10.5639596440875	30.0581664624893	0.65539821628055	-0.799316487608335	-0.000717001304084475	0.00223466982022441
0.82	-3.34515298948764	2.69936067710305	781.554822864772	10.5095764814214	30.4286709050832	0.657958815584458	-0.808107821478778	-0.000801347084721238	0.00266905650172272
0.83	-3.44430547460542	2.76180065558323	782.4069479603	10.4970903090804	30.7662329444977	0.668411961005916	-0.823261998316202	-0.000833516915173638	0.00305687762370893
0.84	-3.51497807673945	2.78998315839948	783.176753052695	10.5254259140791	31.0601813204037	0.685242498997943	-0.843129642949188	-0.000811887135532707	0.00339289674899634
0.85	-3.57430288351069	2.7780258926233	783.689446874241	10.5877952536736	31.3036223899771	0.706147099209028	-0.865376118412915	-0.000741971172037226	0.00367730746592787
0.86	-3.63641482976687	2.72370529911723	783.799234085103	10.6735842964682	31.4945082326126	0.728488727377106	-0.887423627589172	-0.000634700049798709	0.00391512310985526
0.87	-3.70935986638142	2.62912431389731	783.425799288444	10.7710329781537	31.6362086083852	0.749713184399727	-0.906864383682369	-0.000503657652283773	0.00411499199040205
0.88	-3.79400392990377	2.50099267355501	782.57983650308	10.8698739788289	31.7374321451711	0.767646945108459	-0.921767417819824	-0.000362176132460701	0.00428770888282154
0.89	-3.88508841954103	2.35033553257186	781.370375657949	10.9631734850156	31.8113887427048	0.780666375495181	-0.93085937969656	-0.000221124771275227	0.00444468086075595
0.9	-3.97388565679759	2.19141996351781	779.990277075444	11.0479502472727	31.8741865827637	0.787779400554591	-0.933601780717868	-8.78628862740483e-05	0.00459655605450277
0.91	-4.05144604850949	2.0398220693796	778.68122468194	11.1245951242238	31.9426087282578	0.788669384862667	-0.930197367867413	3.3652756204261e-05	0.00475215914657956
0.92	-4.11135293468138	1.9098480992105	777.684796977126	11.1954964058951	32.0315839975052	0.783721057429854	-0.921541413216388	0.000142007750149609	0.00491781087753207
0.93	-4.15121111231427	1.81185808067932	777.190365234585	11.2634635341531	32.1518018644827	0.774005334044653	-0.909109799536568	0.000237278707786004	0.00509704758680363
0.94	-4.17264399729464	1.75024393635863	777.292316100065	11.3304923817882	32.3079659614503	0.761175199616353	-0.894766708993154	0.000320253569135454	0.00529070560761269
0.95	-4.18013711151497	1.7227422468897	777.967571770464	11.3971844950576	32.4980997723763	0.747237371628984	-0.880490748579305	0.000392116685438926	0.00549729907192964
0.96	-4.17943130017046	1.72139193441574	779.079660270997	11.4628365139145	32.7141140106354	0.734210959961743	-0.868052969769923	0.000454498949686299	0.00571360219106171
0.97	-4.17621973205649	1.73490385431582	780.408818465543	11.5259756691863	32.9435634709149	0.723741945778468	-0.858714826006657	0.000509611491929629	0.0059353475664341
0.98	-4.17564892695477	1.75171274833974	781.70073884999	11.5850116909666	33.1722376874522	0.716780979835266	-0.853028280392829	0.000560175413247932	0.0061579631718453
0.99	-4.18269010335599	1.76274445211644	782.721701265712	11.6387181125023	33.387025818116	0.713429298827505	-0.850802136067675	0.00060900734144409	0.00637728124015924
1	-4.20301575447744	1.76305693860272	783.30645973944	11.6864010767655	33.5784312349172	0.713009459256146	-0.851250789057113	0.000658334176170006	0.00659015444630651
1.01	-4.24375675478844	1.75195191494639	783.387728040963	11.727784431142	33.7422037240823	0.714341207111896	-0.853280932490753	0.000709084672550597	0.00679490980116598
1.02	-4.31352279887809	1.73172337672321	783.001523770169	11.7627634015318	33.8797796652991	0.716129644803444	-0.855823181269759	0.000760463628759922	0.00699156940446694
1.03	-4.42133705244291	1.70568136560073	782.269219936481	11.791214300788	33.9975102856754	0.717334768059906	-0.858101093137981	0.00081003638913113	0.00718178349950027
1.04	-4.57456598857504	1.67628380389047	781.362933146923	11.8129945983954	34.1049369204553	0.71740526799307	-0.859757590547606	0.000854374234345756	0.00736846245560485
1.05	-4.77636535046594	1.64406964296429	780.464306029083	11.8281592382351	34.2125693008166	0.716318323038564	-0.860817083409031	0.000890106426451376	0.00755515465443601
1.06	-5.02345760242322	1.60769534664546	779.727132536317	11.8373030845544	34.3296931896831	0.714443531552534	-0.861524805389958	0.000915066815690424	0.00774527850157886
1.07	-5.30509288842752	1.56491316930556	779.251887558596	11.8418601885644	34.4626680752898	0.712309399698098	-0.862145482679482	0.000929164698045493	0.00794135550765929
1.08	-5.60378847849052	1.51398574874024	779.076060522852	11.8441769232553	34.61400119279	0.710371845723129	-0.862806177294206	0.000934669529331855	0.00814438958209734
1.09	-5.89794607173178	1.45492684207677	779.179626501483	11.8472351753649	34.7822555653908	0.708863739204957	-0.863436605502504	0.000935760848101541	0.00835349180841344
1.1	-6.16585097206708	1.3900960813593	779.501324797899	11.8540184721818	34.9626342956566	0.707759061845762	-0.863812957199829	0.000937413999155479	0.00856577487050419
1.11	-6.39005162004193	1.32396170284922	779.959532061878	11.8666535330269	35.1479424997947	0.706838573126279	-0.863670444632027	0.000943907669277433	0.00877646691388345
1.12	-6.56088619402755	1.26214825438234	780.471658485778	11.8855761767601	35.3295999788781	0.705813872187642	-0.862830296011226	0.000957386818535855	0.00897915481831912
1.13	-6.67807718353643	1.21010282645613	780.967781947883	11.9090189087095	35.4984633806303	0.704458996219377	-0.861291182710095	0.00097694374227475	0.00916608283595349
1.14	-6.74984366320528	1.17179842200061	781.396867736727	11.9330689701069	35.6453779973542	0.702707980834247	-0.859255644979565	0.000998568659086985	0.0093284980660438
1.15	-6.78973671622644	1.14885221824084	781.726487275267	11.9523997103614	35.7615490251335	0.700694015335843	-0.857087825263734	0.00101608595251679	0.0094571125444638
1.16	-6.81214009814879	1.14030006814611	781.93870236756	11.9615685442058	35.8389271895648	0.698724190165985	-0.855220725533189	0.00102289021350921	0.00954279052197499
1.17	-6.82783389258765	1.14307414551613	782.02532451013	11.9565647898238	35.8707959436158	0.6972006546771	-0.854044636557715	0.0010140162496719	0.00957752943653134
