Time [s]	GRFml [N]	GRFap [N]	GRFv [N]	Mml [N.m]	Map [N.m]	Mv [N.m]	Mfree [N.m]	COPml [m]	COPap [m]
0.01	1.48743566964231	2.85742977092822	597.425043086772	3.14658885086623	37.9833279317324	0.318996780197025	-0.493242871535161	0.000958777785287857	-0.00864956114368931
0.02	0.555069184734493	2.45958680692115	604.835894207416	2.67423365744305	38.8918371896639	0.33742064190298	-0.491194877892762	0.000124324946115806	-0.00793355129572593
0.03	-0.303078580194663	2.07588068654188	610.94038782562	2.21446652281225	39.6664493282459	0.36043612151083	-0.494099777493648	-0.000682606705553201	-0.00729921796481747
0.04	-1.02275711826333	1.72006960930732	614.595251371657	1.7829348225453	40.1896272987098	0.391406319362912	-0.505738170728122	-0.00143047127690665	-0.00681869548457414
0.05	-1.55411699084804	1.41185203281215	615.100391747313	1.40039285483938	40.3878809702468	0.430038607197898	-0.526791496214353	-0.00208150079963332	-0.00653880696921111
0.06	-1.86476904628197	1.17724502641382	612.313692538924	1.09157255199453	40.243169696048	0.471947287480145	-0.554465891382551	-0.00259405745074748	-0.00647444000792458
0.07	-1.94109913994305	1.04540692804421	606.659461635254	0.880853756870784	39.7938735513094	0.509561298517091	-0.583189013233258	-0.00292972670188718	-0.00660774004920234
0.08	-1.78875560502561	1.04240058092309	599.037545441696	0.785931577068172	39.1261068476334	0.534059937867898	-0.606102993146236	-0.00306325897104098	-0.00689264525784683
0.09	-1.43322561351218	1.18342102676016	590.658548612193	0.811410649796903	38.3579590472634	0.537729685751468	-0.616859944357946	-0.00299234324779707	-0.00726327008071537
0.1	-0.920681281980054	1.46569551602927	582.839980241378	0.944374044976425	37.6200784725263	0.516058380914331	-0.611193716061615	-0.00274401693019077	-0.00764425270904073
0.11	-0.318087934617104	1.86434503106669	576.798384047927	1.15352223738564	37.035874527439	0.469019322305374	-0.587877988853906	-0.00237522802482693	-0.00796139140939017
0.12	0.289397468196576	2.33285328152874	573.46673531681	1.39259201472039	36.7039055160057	0.40128021495188	-0.548915472507734	-0.00196647886263801	-0.00815139875305748
0.13	0.805734340749796	2.8085645692059	573.358685552944	1.60765830998507	36.684246195097	0.321391524382534	-0.499040348010735	-0.00160927198052763	-0.00817002885464002
0.14	1.13676354459547	3.22222962553384	576.494350585023	1.74686893098865	36.9901069326094	0.24025519194201	-0.444773106955866	-0.00138979848553566	-0.00799797166175414
0.15	1.20697907233116	3.50953794471097	582.396555212622	1.77045429355459	37.5856868376764	0.169278038835732	-0.39330425235516	-0.00137246028192295	-0.00764382089647303
0.16	0.976598309479575	3.62217421552259	590.160130832565	1.65871141490941	38.3909069487584	0.118572556921042	-0.351418201795256	-0.00158701858334076	-0.00714337561148115
0.17	0.45399794994795	3.53626293023639	598.588199462081	1.41614089805483	39.2929769624351	0.095442452300742	-0.324562156222339	-0.00202231471525527	-0.00655481441533939
0.18	-0.30087060072925	3.2568594931191	606.378234185875	1.07087225382283	40.1636109028723	0.103269211318384	-0.316087195877015	-0.0026278738951544	-0.00594998850427181
0.19	-1.18417348946788	2.81801387499678	612.329420467341	0.669644080021025	40.8793735978409	0.140862713209786	-0.326681464174236	-0.00332280794399387	-0.00540304083103121
0.2	-2.06585123284698	2.27857739098721	615.535524458365	0.269566998919927	41.3416116436744	0.20235664638615	-0.354067005697978	-0.00400986797694836	-0.00497839465810168
0.21	-2.81318927737286	1.71429271026103	615.527855918405	-0.0715645493127695	41.4921973025993	0.277761961582137	-0.393087500829058	-0.00459167680286421	-0.00472047832002304
0.22	-3.31475961358643	1.20697038150191	612.342274867245	-0.3046057805335	41.3221090236856	0.354261904111656	-0.436309042814591	-0.00498618654153038	-0.00464718027668781
0.23	-3.49954455471222	0.83192760962526	606.500322616983	-0.396586981245098	40.8714861309063	0.418196282198403	-0.475157360573497	-0.00513904403884113	-0.00474808087205109
0.24	-3.34787111446329	0.64540633606042	598.912522376058	-0.335510913590833	40.2216855249402	0.457465256089978	-0.501445562423021	-0.00503142871756879	-0.00498735085577356
0.25	-2.89314096844001	0.67420625964988	590.726215837564	-0.132012042151525	39.4814082703038	0.463873080148896	-0.508977751169377	-0.00468272001570413	-0.00531026699443482
0.26	-2.21528477782146	0.909902115133963	583.147376756841	0.18215293617057	38.7697320648773	0.434839787725061	-0.494829521506514	-0.00414791107866663	-0.00565185046146177
0.27	-1.42788552156345	1.30944661570092	577.265278440941	0.558547572440273	38.1988330407302	0.374005338425038	-0.459958661763766	-0.00351008335693137	-0.0059461992995003
0.28	-0.66109602482605	1.80264509562732	573.903150892156	0.938950142813523	37.8585972962844	0.290526725715312	-0.408980010040352	-0.0028686761917327	-0.00613544190859416
0.29	-0.0423330451968197	2.30524728684573	573.510642885116	1.26391531111287	37.8046351470551	0.197231084900666	-0.34918011831179	-0.00232485551883699	-0.00617757812777164
0.3	0.32321221937629	2.73482690799528	576.107713825938	1.48186656667864	38.0507318529855	0.108101331701431	-0.289055783210777	-0.00196595438113412	-0.00605258977154566
0.31	0.369788263864013	3.0258131528267	581.285122902799	1.55730058005813	38.5665387091532	0.0357202315855299	-0.236759452110762	-0.00185148281254055	-0.00576609986346444
0.32	0.083100988228703	3.14032836142414	588.262625208925	1.47663700906144	39.2811119222332	-0.0107578752265944	-0.198800710998254	-0.00200327574155279	-0.00534974839035662
0.33	-0.495703080530346	3.07276682737294	596.000419417429	1.25054965241201	40.0924428754645	-0.0267558364539619	-0.179221618553519	-0.00240177205960712	-0.00485760961393755
0.34	-1.27584700687948	2.84782676736877	603.351544920582	0.912251578037235	40.8822357116314	-0.0124663223894996	-0.179303425738569	-0.00298925574268682	-0.00435856413687802
0.35	-2.13224770890835	2.51332976808552	609.23416077276	0.512020508109617	41.534015183195	0.0277606390300908	-0.197737022229848	-0.00367945381583124	-0.00392547626630757
0.36	-2.92767396138876	2.13011293715255	612.796099431315	0.109005907829263	41.9515995041135	0.0865643060903026	-0.231128459947961	-0.00437160782005563	-0.003622993132741
0.37	-3.53718709968323	1.76138167342213	613.543107278729	-0.238155923454279	42.0745332295583	0.15496950820457	-0.274703879833849	-0.00496637505869435	-0.0034963651258299
0.38	-3.86971445757215	1.46335370589173	611.408340786786	-0.480281810209443	41.8875364719177	0.223796155202127	-0.323093815270624	-0.00538081727230288	-0.00356359861654021
0.39	-3.88249705021612	1.27821073094666	606.752684257323	-0.584732530543894	41.4223122374758	0.284904606107487	-0.371089084265076	-0.00556019828882359	-0.00381248281532731
0.4	-3.58613823192148	1.22968920230449	600.299521380709	-0.539697917200877	40.7517340578728	0.332143264373132	-0.414265084023946	-0.00548508467426323	-0.00420286432236794
0.41	-3.04027183632477	1.32127342663642	593.019251542034	-0.355230049895002	39.977937721826	0.361899700358989	-0.44938401484613	-0.00517306148216368	-0.00467340242765907
0.42	-2.34168625799237	1.5368439411034	585.98503869422	-0.0610456892347143	39.2167253527953	0.373206689383426	-0.474524554792638	-0.00467508657955618	-0.00515128460975112
0.43	-1.60765926997669	1.84358119820241	580.221661329412	0.298488549964507	38.5808453408518	0.367434663802382	-0.488959096199026	-0.00406710191586201	-0.00556314688230214
0.44	-0.957332361961753	2.1967584973913	576.565989742233	0.671438692330173	38.1643528486226	0.347698221105419	-0.492877967967973	-0.0034380673707366	-0.00584561209910583
0.45	-0.493582364990148	2.54577033648861	575.553534575221	1.00640934106706	38.0297475150403	0.318174504055956	-0.487108652868932	-0.00287611828305079	-0.00595418568325284
0.46	-0.287474615622651	2.84049108016369	577.342682531033	1.2604114317394	38.199203824609	0.283528837107643	-0.472960833067177	-0.00245499070136102	-0.00586952893481857
0.47	-0.367205146444084	3.03704489505302	581.686570868903	1.40517989842486	38.6509880713467	0.248550356982147	-0.452239432308352	-0.00222301724839946	-0.00560032128220506
0.48	-0.713307832850048	3.10236806388267	587.960153262322	1.43084189139832	39.3218950491505	0.21795124718927	-0.427343378817844	-0.00219667211065599	-0.00518214003246159
0.49	-1.26144777843019	3.01742240633445	595.244618290977	1.34633787327829	40.1159709480865	0.196155146130066	-0.401273083740336	-0.00235977552684341	-0.00467219479247588
0.5	-1.91305281710542	2.77928516596134	602.462097077928	1.17669329813504	40.9187965151515	0.186875767171879	-0.377366694738271	-0.00266823003401073	-0.0041404242352398
0.51	-2.55240622801031	2.40234350005906	608.542181914175	0.957922988963632	41.6153501214937	0.192401916195156	-0.358694706510775	-0.00305893092988618	-0.00365828062937001
0.52	-3.0671073400914	1.9184365176986	612.591983182392	0.730791546688707	42.1083749963582	0.212718288466806	-0.347224306531387	-0.00346069826198359	-0.00328721481811972
0.53	-3.36769533950492	1.37528070602846	614.037583675869	0.534702831568167	42.3337281814201	0.244795005537105	-0.343032028895855	-0.00380498537902374	-0.00306911888899963
0.54	-3.40228045117003	0.8323107500349	612.709397126323	0.402665116054908	42.2696931675624	0.282452214479932	-0.343905003021893	-0.00403469769088272	-0.00302060556526984
0.55	-3.16333671435564	0.353489548119963	608.856408797503	0.357754572829377	41.9386253643818	0.317082440994724	-0.345581011409758	-0.00411037970617489	-0.00313206673500865
0.56	-2.68593891794945	-0.00232811122515446	603.090607312454	0.411033638719231	41.4011261771398	0.339222327320866	-0.342661341470137	-0.00401384231045465	-0.00337126102061847
0.57	-2.03888163798447	-0.191666128752798	596.277589081535	0.560672617762877	40.744578475677	0.340625571395199	-0.329976194489885	-0.00374965569931129	-0.00369014626620201
0.58	-1.31153588408654	-0.194724146004376	589.397803832495	0.792111793857798	40.0687964448731	0.316253483950515	-0.303999801885302	-0.00334476783711291	-0.00403314001287375
0.59	-0.599593749032017	-0.019243454438312	583.403683300578	1.07934771403525	39.4715554794658	0.265581658414033	-0.263880818572495	-0.00284608082629567	-0.0043450807953016
0.6	0.0078331406619821	0.301326935102169	579.092791434306	1.38759683408126	39.0360770674545	0.192837214345335	-0.211785756229013	-0.00231554485926966	-0.00457773284836088
0.61	0.438418226930922	0.714833751148487	577.009935923951	1.67749385231457	38.8216038779597	0.106141219989069	-0.152491057652353	-0.00182253601644244	-0.00469440516152042
0.62	0.643731858107457	1.16042349840929	577.385325818835	1.91059377807877	38.8574569485757	0.0158817650808613	-0.0924025462574116	-0.0014340004371689	-0.00467280946890541
0.63	0.603287222240054	1.57863086120523	580.112644802047	2.05542291940709	39.1406299074224	-0.0671592643791741	-0.0383334943325453	-0.00120377767404012	-0.00450647696637546
0.64	0.325514655076371	1.91909052418726	584.769171283186	2.09292170843141	39.6369466262033	-0.133425651511397	0.0036149706669081	-0.00116319573134405	-0.00420492888301333
0.65	-0.154453081140774	2.14479292987367	590.677438114393	2.02005942370563	40.2857947802684	-0.175658807907876	0.0288397041780998	-0.00131507977097067	-0.00379256184614069
0.66	-0.780109836333957	2.23338985536017	597.002754825512	1.85074177797133	41.0081790037087	-0.189400611261579	0.0346261432432812	-0.00163264341401459	-0.00330610702509387
0.67	-1.48135212617353	2.17705481800922	602.873757835192	1.61376147882635	41.7172623166748	-0.173108456001726	0.0202267289838714	-0.00206357028405657	-0.00279067655511306
0.68	-2.18332263164469	1.98236755385288	607.506726418642	1.34822962879603	42.3299008081834	-0.128112776744501	-0.0132291370521135	-0.00253837514987787	-0.00229475661309969
0.69	-2.81458921741161	1.67073579121493	610.312109718924	1.09744133570161	42.777285368123	-0.0585452288811486	-0.062882529733173	-0.00298127397829273	-0.00186483677162447
0.7	-3.31327906177958	1.27859403073482	610.965553097575	0.902337854923132	43.0129640107314	0.0288058941438532	-0.124326819816005	-0.00332151050823037	-0.00154046811544056
0.71	-3.63078168433075	0.855793601616425	609.434855282582	0.795631441340934	43.0172351021298	0.124886132473721	-0.191884063266045	-0.00350334507811878	-0.00135034323821942
0.72	-3.7337835597539	0.460747400319881	605.965202092568	0.797367561916986	42.7978764559105	0.219190464619572	-0.259064343656122	-0.00349347693957625	-0.00130960776804928
0.73	-3.60604224945866	0.152030414166025	601.033220794277	0.91235904557843	42.3879573536128	0.301053933450599	-0.31925308361961	-0.00328526233344706	-0.00141828696674967
0.74	-3.25100793032649	-0.0222456435147606	595.282824719817	1.12964742182053	41.841724081321	0.361262781897133	-0.366578001851535	-0.00289951965016233	-0.0016606519882329
0.75	-2.69521981208438	-0.0346447247984528	589.452528378761	1.42395864292508	41.2292206662804	0.393651370712618	-0.396809891809168	-0.00238195785861606	-0.0020055915598246
0.76	-1.9909344955676	0.114801450368835	584.298059158864	1.75898352752805	40.6297151031627	0.396281410760773	-0.408095908191649	-0.00179743882224237	-0.00240841125112401
0.77	-1.2155195876574	0.397430727163723	580.510123031058	2.09216358858084	40.1236273841278	0.371876377147776	-0.401335526478152	-0.00122153434917127	-0.00281464895928768
0.78	-0.465415152240848	0.760979309360659	578.628266723331	2.3804672133082	39.7828640843239	0.32737315508777	-0.3800826807885	-0.000730229985927866	-0.00316623141447059
0.79	0.155982839348946	1.13954300239085	578.957886287749	2.58642815737483	39.6602724991641	0.272678833980601	-0.34996474459242	-0.000389084967165276	-0.0034095914898572
0.8	0.554893089779499	1.46591546403975	581.505169872595	2.68356938614759	39.7799619463545	0.218903730695739	-0.317715749144937	-0.000243494710354564	-0.00350448102417278
0.81	0.664538365959418	1.68338612518183	585.949107131936	2.66034064124673	40.1309162330979	0.17643459961752	-0.290001965879726	-0.000311719194748594	-0.0034315672711539
0.82	0.458889933199169	1.75463452248759	591.666696141261	2.52190350046473	40.666152682181	0.153210203679376	-0.272260697373254	-0.000581939714062951	-0.00319685432074018
0.83	-0.0409262097388076	1.66645820360829	597.816498016427	2.28947212204471	41.308553777277	0.153490630217552	-0.267774789509212	-0.00101385808043886	-0.00283162988621427
0.84	-0.769184892795843	1.43022002240866	603.470033040396	1.99735993292241	41.9627526507075	0.177304342152909	-0.277165696279086	-0.00154447575012495	-0.00238778273392415
0.85	-1.62619896018991	1.07870948632171	607.76604858348	1.68826293991188	42.5307526339715	0.220635929682526	-0.298408740365992	-0.00209695852324965	-0.00192952175961392
0.86	-2.49421910644028	0.660445816397939	610.055165838999	1.40752935299492	42.9279669007487	0.27629491476664	-0.327364840278676	-0.00259110810685037	-0.00152330454282318
0.87	-3.25505239169536	0.232420665952682	610.00478342587	1.19719641350011	43.0964283172103	0.335291647443942	-0.35870533527347	-0.00295396748780896	-0.00122791730959654
0.88	-3.80636004556918	-0.147872956001789	607.645214180958	1.09047255690315	43.0129255274372	0.388456480467821	-0.387013123718478	-0.00312935702254569	-0.00108622182792889
0.89	-4.07477604774641	-0.430346469778694	603.353252271182	1.10720420166077	42.6912686566487	0.427995297014146	-0.407806178798436	-0.0030854597792771	-0.00111942108745083
0.9	-4.02508277847748	-0.579307210310797	597.782979357389	1.25077255250799	42.1791667036018	0.448696906224448	-0.418265134319487	-0.00281977678701095	-0.00132415630950405
0.91	-3.66516273671749	-0.578589368148857	591.761481997216	1.50683010141957	41.5509013764348	0.44859792304881	-0.417545319588729	-0.00236082827612094	-0.00167252253610856
0.92	-3.04630494194276	-0.43393457628876	586.16841859707	1.84424540093145	40.8970827830424	0.429045787519966	-0.406679875465966	-0.00176601710317159	-0.00211510154901073
0.93	-2.25814537035132	-0.1720594355866	581.815305448026	2.21847848720159	40.3125765654778	0.394237043121793	-0.388186467706126	-0.00111529908054386	-0.00258709046616962
0.94	-1.41767771476419	0.163590704529736	579.336551286659	2.57729063097656	39.8836005535776	0.350398817674038	-0.365536396455039	-0.000500859199655479	-0.00301728849084054
0.95	-0.652732786023893	0.519778033273907	579.102222751928	2.86822259043404	39.6752224163232	0.304799402893818	-0.342620213728427	-1.38319815081722e-05	-0.0033390321350707
0.96	-0.0819102166335437	0.841992122795527	581.162406333951	3.04677757482968	39.7209400234713	0.264727847003688	-0.323271545285949	0.000270008505123709	-0.00350135987469319
0.97	0.205507382951159	1.08322224554497	585.232779770343	3.08389772866606	40.0163218595219	0.2365149243599	-0.310837469617759	0.000303068638474513	-0.00347814415540859
0.98	0.165418796074869	1.21166703121326	590.727976666974	2.97128293242519	40.5184270350708	0.224630966531002	-0.30775517192018	7.47291651347348e-05	-0.00327302230886406
0.99	-0.193073388294198	1.21622346122255	596.842295871866	2.72342858848488	41.1517527754206	0.230919300297211	-0.315129283954663	-0.000385768706227085	-0.00291880633124492
1	-0.80926718843905	1.10881880025817	602.667585144988	2.37588652486956	41.819988102028	0.254092333880989	-0.33238164400464	-0.00101305884124081	-0.00247142396323818
1.01	-1.58150099604684	0.922951303003544	607.329129399938	1.98000752116623	42.4214039255121	0.289675428965191	-0.357114534229705	-0.00171538116238124	-0.0019998469341922
1.02	-2.38422329550978	0.708276635313106	610.115839188696	1.595096251835	42.8648500526362	0.330566873925904	-0.385336254824634	-0.00238855354620393	-0.0015743694087888
1.03	-3.08791034866641	0.52177640651869	610.58295478893	1.2793343898731	43.0833845132033	0.368257073062286	-0.412118461570243	-0.00293178567966002	-0.00125570241486056
1.04	-3.57844002933008	0.416895453494344	608.612928634597	1.08094022002658	43.0434444056434	0.394541571265124	-0.432607815412475	-0.00326284363748697	-0.00108670301597541
1.05	-3.77346420173773	0.432787598619999	604.429762566444	1.0308770327926	42.748734945723	0.403350926375684	-0.44315988662888	-0.00333040711120836	-0.0010875348441739
1.06	-3.6343214217197	0.586126802200872	598.56993257909	1.13810795485076	42.2391052763145	0.392206380654472	-0.442273748398752	-0.00312200009262453	-0.00125414885353492
1.07	-3.172583405944	0.867556658938915	591.816825788019	1.3880285665482	41.5852238551559	0.362865218263854	-0.431031896548239	-0.00266644546515094	-0.00155952795221265
1.08	-2.45038616023685	1.24374146380339	585.105839122773	1.74433777973622	40.8798640047365	0.320945725925443	-0.412893704994836	-0.00203035692492715	-0.00195719458161314
1.09	-1.57368065713157	1.66443903359318	579.406705445193	2.15421237317723	40.2263993188646	0.274642165283885	-0.392899658076569	-0.00130882514149022	-0.00238677346404736
1.1	-0.67803515760487	2.07257494253105	575.591290869163	2.55619353222496	39.7251291219273	0.232928573708975	-0.376533659685809	-0.000611275883697138	-0.00278154602920389
1.11	0.0920462479373839	2.4145253401156	574.300232383197	2.88969103275917	39.4585525906431	0.203786539318986	-0.368583179936395	-4.44378370573206e-05	-0.00307766269691911
1.12	0.607398131117212	2.64804198030673	575.828540992407	3.10457431280886	39.4775552561294	0.192920778838876	-0.372296601500425	0.000304784871588692	-0.003224023297412
1.13	0.777425113950122	2.74639228687441	580.054550770966	3.16912818871602	39.7911930681776	0.203185720847328	-0.38898948255038	0.000383356337338991	-0.00319112142407196
1.14	0.56702623011175	2.69884237850212	586.434083691936	3.07485705917436	40.3627948196415	0.234652304807993	-0.418070464736668	0.000180283825970684	-0.00297682707412894
1.15	0.00301736122614416	2.50888805769914	594.070571733268	2.83724880381372	41.1141266590358	0.285033955413384	-0.457327989305916	-0.000272651429628734	-0.00260747178467874
1.16	-0.831531299486164	2.19207240752848	601.854225489074	2.49250626677693	41.937510260694	0.350154190164449	-0.503293568274015	-0.000907471488675204	-0.00213368667083602
