Time [s]	GRFml [N]	GRFap [N]	GRFv [N]	Mml [N.m]	Map [N.m]	Mv [N.m]	Mfree [N.m]	COPml [m]	COPap [m]
0.01	-0.903031627960169	1.23843411405023	567.936478424651	-12.7548145125872	22.3852321965237	0.348586168888874	-0.37712389855818	0.000222480124058899	0.00319249646596925
0.02	-0.908043096789761	1.28784106900214	568.576078900893	-12.7402330584951	22.3319375933096	0.369390968988127	-0.39959342403937	0.00027621338932371	0.00305769218477592
0.03	-0.912080294826711	1.32592551412022	569.160444487906	-12.7273081480239	22.2786729259446	0.389079995733561	-0.420529476640561	0.000324603740418095	0.0029267447229076
0.04	-0.918119186536461	1.34231275725299	569.64155022169	-12.7166442797774	22.2260524835429	0.406574493274572	-0.438390806581844	0.00036450196085358	0.00280403810701707
0.05	-0.9303231450637	1.33022045638065	569.984811379631	-12.7071237875345	22.1745880176684	0.420882264787283	-0.451839630473663	0.000396421535307168	0.0026928422314495
0.06	-0.953015600120249	1.28782521995999	570.173769871643	-12.6961180297151	22.1244706989312	0.431207713251017	-0.459925244115854	0.000424366721524794	0.00259460605469053
0.07	-0.988822780614717	1.21887714355086	570.212063027785	-12.6804287531677	22.0754210594827	0.43709535069662	-0.462288272863927	0.000454237032445515	0.00250856110440445
0.08	-1.03643359328245	1.13234884882258	570.121918926611	-12.6575457956496	22.0266864025359	0.438558496989783	-0.459320796502942	0.000491513038603064	0.00243182659770419
0.09	-1.08886893256915	1.04102343979886	569.939372106557	-12.6267011993198	21.9772338234235	0.436137812540804	-0.452205606350609	0.000539159508497034	0.00236008583236885
0.1	-1.13335373141122	0.959133006744378	569.707370862669	-12.5893144078677	21.9261308520145	0.43085197563704	-0.44277864136061	0.000596521173871545	0.00228873673185187
0.11	-1.15361051308519	0.899428605388894	569.468472393333	-12.5486784127949	21.8730390953861	0.424039186842889	-0.433210407064222	0.000659555473071838	0.00221426614545606
0.12	-1.13458337829837	0.870310117791758	569.258728423682	-12.5090171523246	21.818686605372	0.417128879122313	-0.425568975643646	0.000722243057267313	0.00213550003600332
0.13	-1.06847166757413	0.873758259408122	569.103798391615	-12.4742498966769	21.7651523469477	0.411410278375553	-0.421382615795901	0.000778625082400786	0.00205436538374931
0.14	-0.959967566291474	0.904704956054812	569.017591877646	-12.4468717467082	21.7158106452933	0.407864979044305	-0.421337712987536	0.000824751235845134	0.00197587744285316
0.15	-0.828286266937314	0.952141123215854	569.003118510787	-12.4272933891349	21.6748553988177	0.407102428832791	-0.42521339548508	0.000859910256109209	0.00190723637167822
0.16	-0.704288735513789	1.0017753438997	569.054865022241	-12.4138125983104	21.6464452815705	0.409391513607841	-0.432075291662719	0.000886801355658773	0.00185615538357414
0.17	-0.622643428847573	1.03957691511699	569.161928645322	-12.4031768555767	21.6336511814255	0.414739112412881	-0.440655389308836	0.000910680629261473	0.00182879379665785
0.18	-0.611004154327852	1.05523133160435	569.311215925237	-12.3915123855243	21.6374971384654	0.422949154429535	-0.449772771784588	0.000937849748102737	0.00182785442655914
0.19	-0.679761833459996	1.04452508094748	569.490148778079	-12.3753001606215	21.6564159802344	0.433615380932794	-0.458635475370507	0.000974031909932394	0.00185144641246315
0.2	-0.816291859329573	1.00998196117297	569.688438311393	-12.3521034021512	21.68636058524	0.446052151084377	-0.46691854920609	0.00102314565834771	0.0018931641955775
0.21	-0.98643443871215	0.959606855555553	569.898601431112	-12.320880122673	21.7216284994361	0.459226036074781	-0.474617171481229	0.00108676426283116	0.00194350351978018
0.22	-1.14351798304754	0.904182007963209	570.115069306853	-12.2818939402655	21.7562208863287	0.471782659113918	-0.481779360700975	0.00116423551365885	0.00199230849103887
0.23	-1.24243301718249	0.854005099225864	570.332031409196	-12.2363912978529	21.7853463129234	0.482241655674561	-0.488277730684507	0.0012531709020569	0.00203155557795232
0.24	-1.25418326044438	0.816102596268954	570.540570113844	-12.1862776763341	21.8065799195962	0.48935592404263	-0.493752811224523	0.00134991180450728	0.00205757862492451
0.25	-1.17585391476385	0.792746437992097	570.726062802427	-12.1339727385734	21.8202552086405	0.492529600895662	-0.497761374009032	0.00144968793337363	0.00207192862292777
0.26	-1.03231736215854	0.781625945297135	570.867069979808	-12.0824805036593	21.8288990714471	0.492114546642708	-0.50004130961049	0.00154644737745524	0.00208045574960414
0.27	-0.868786926429031	0.777458077654265	570.936792225549	-12.0355442974866	21.8358542819687	0.489406830819572	-0.50072562983835	0.00163262867641634	0.00209079548466734
0.28	-0.736516289064604	0.774365062143969	570.907573972829	-11.9976491474794	21.8435506077667	0.486260938832747	-0.500349631712198	0.00169931434028159	0.00210903650939548
0.29	-0.676353300707916	0.768162777145148	570.757955198457	-11.9736451800285	21.8520602611232	0.484401251650617	-0.499598849900299	0.00173715076901171	0.00213671884497324
0.3	-0.705617359730993	0.757827211476009	570.480711363495	-11.9679032813187	21.8585233508531	0.484668997185192	-0.498892397056955	0.00173813624534502	0.00216929296223023
0.31	-0.81262770897197	0.745759031209671	570.089565152255	-11.983131518638	21.8577543936888	0.486519535561547	-0.49801010259977	0.00169796487388996	0.00219673896220024
0.32	-0.960610766339257	0.73688975186549	569.622141286613	-12.0191903308721	21.8439301491109	0.488029490066825	-0.495987159592395	0.0016182378020333	0.00220633178904123
0.33	-1.09960237239603	0.737008815186926	569.137421500536	-12.0723518758654	21.8128566808713	0.486492778021607	-0.491397857549488	0.00150768729625839	0.00218678722499216
0.34	-1.18240834195226	0.750848740861591	568.70732668658	-12.1353911330905	21.7640650367502	0.479445356400922	-0.482970795822128	0.00138171195952852	0.00213249666740017
0.35	-1.17950667407719	0.780447376280902	568.403735670595	-12.1986717416071	21.7019820451747	0.465760110369856	-0.470304331547377	0.00125998160631158	0.00204644202388282
0.36	-1.08826448492143	0.824177298425027	568.283721597021	-12.252065537039	21.6356721371608	0.446385354400784	-0.4543685915421	0.00116249890043674	0.00194072204159346
0.37	-0.933740994265528	0.876664516152942	568.376547705025	-12.2872364973634	21.5770709432565	0.424401540635471	-0.437535830928374	0.00110507906854329	0.00183431641557769
0.38	-0.760985078930459	0.929647917685331	568.675723347046	-12.2996461872679	21.5381007984278	0.404309323336704	-0.42305782244953	0.00109550751889564	0.00174855370834898
0.39	-0.621288209323579	0.973656171276667	569.13821832767	-12.2896729195653	21.5274303557444	0.390747677815062	-0.414134008896071	0.00113152849010478	0.00170148166425471
0.4	-0.556595721084016	1.00019281777727	569.691142792244	-12.2624787437871	21.5478031705022	0.387061459192379	-0.412890484226638	0.00120132360509884	0.00170274217855376
0.41	-0.586762023326186	1.00394403535565	570.24439581712	-12.2266287237481	21.5947593036464	0.394206774857809	-0.419641077618636	0.001286417503785	0.0017504949942112
0.42	-0.703465341417269	0.984415902538849	570.706517853847	-12.1918414458158	21.6572266082083	0.410373071697309	-0.432705619287831	0.00136623886647624	0.00183140781090568
0.43	-0.872633191545824	0.94644387713662	571.000552548277	-12.1665050919608	21.7199501355583	0.431455295783546	-0.448856966886415	0.00142309796271511	0.0019238669659935
0.44	-1.04471169276655	0.899245656548697	571.077087461643	-12.1556513798675	21.7671961622649	0.452220382139875	-0.464240773397527	0.00144625283571609	0.00200360624902346
0.45	-1.16974161686383	0.854091341719237	570.922487603684	-12.1599300515033	21.7867672992617	0.467784747216988	-0.475449952316142	0.00143403148030652	0.00205019539708379
0.46	-1.21267759341717	0.82113769583247	570.56128250541	-12.1758242106147	21.7732266012854	0.474931183194092	-0.480398422501258	0.00139354604256303	0.00205252603276573
0.47	-1.16420235817715	0.806347014609758	570.05247762734	-12.1969875323916	21.7294103324846	0.47286839034341	-0.478732623352391	0.00133819920858358	0.00201169919904642
0.48	-1.04357442793155	0.80951347138517	569.480220317686	-12.2162728816027	21.6657713221391	0.463239023893769	-0.471699597705417	0.00128375742649955	0.00194048572072997
0.49	-0.892478735176765	0.82415741964787	568.93990013961	-12.22784287317	21.5977045950991	0.449434621255939	-0.461582237503585	0.0012441062021411	0.00185955565382112
0.5	-0.761699357969718	0.839468053712801	568.521525905697	-12.2287517553399	21.5415790885106	0.435488060351186	-0.450942452708454	0.00122783380939839	0.0017916239822911
0.51	-0.694785636626504	0.84376713759992	568.293039155992	-12.2195619019856	21.5105599812017	0.424917246587226	-0.441939072932908	0.00123651396950086	0.00175523649188736
0.52	-0.713938589687055	0.828396808968939	568.286812025712	-12.2038571280507	21.5113518775391	0.419863230828478	-0.435912055679651	0.00126505302531055	0.00175996026908981
0.53	-0.812711981893839	0.79073248525389	568.492539841771	-12.1868524963858	21.5427206013194	0.420728003016036	-0.433291423738813	0.00130387069870452	0.00180426837153469
0.54	-0.957974116302117	0.735280630088801	568.858785891342	-12.1735744898542	21.5961506576992	0.426334005616536	-0.4337606984146	0.00134216439672163	0.00187659449124172
0.55	-1.10060271908107	0.672456109610543	569.303593703904	-12.1672087601408	21.6584135402644	0.434469338005993	-0.436533219088118	0.00137122059995676	0.00195913628294125
0.56	-1.19156065688607	0.615418166288497	569.732269699979	-12.168142006063	21.7153163183481	0.442599124300415	-0.440605925951281	0.00138677457986158	0.00203325294253687
0.57	-1.19824968098168	0.57599848509089	570.058355838888	-12.1739808699165	21.7555975127855	0.448526306019898	-0.444920376228715	0.00138977049980016	0.00208490999069755
0.58	-1.1159268855423	0.561052648858552	570.222679559886	-12.1804970362807	21.7739094501774	0.450850589193511	-0.448440601146677	0.00138541864660346	0.00210864951089457
0.59	-0.970515537200242	0.570412104357565	570.205642877865	-12.183141326288	21.7720776138247	0.449161869058261	-0.45020702018451	0.00138099573349015	0.00210898570262391
0.6	-0.811831554054705	0.597071248331867	570.029598499515	-12.1785980488877	21.7582962167223	0.443979198470082	-0.449423202820497	0.00138319916435847	0.00209883559695023
0.61	-0.699206838780813	0.62950659184327	569.750801846325	-12.1658696239752	21.7444877425296	0.43649285804796	-0.445588127464788	0.00139593261649418	0.00209541749337017
0.62	-0.683787973058845	0.655342954849027	569.443260157393	-12.146572808066	21.7425720898143	0.428189114850133	-0.438633829356024	0.00141917098115496	0.00211477156658985
0.63	-0.79273608358743	0.665176720244922	569.178996439899	-12.1244111252605	21.7607114271987	0.420446402916408	-0.42900161366329	0.00144913812336345	0.002166474785118
0.64	-1.01992125553806	0.655358594932393	569.010164940439	-12.1040558178421	21.8006201377429	0.414194436360132	-0.417605426100515	0.00147959552585342	0.00225010260107744
0.65	-1.32576541119783	0.628912870327264	568.957822933225	-12.0898295969018	21.8567377593488	0.409720233304019	-0.40567835564234	0.00150373142334603	0.00235451988874097
0.66	-1.64628558625433	0.594387844992352	569.010155564194	-12.0846031739381	21.9175328273359	0.4066776110601	-0.394549176494246	0.00151603605058903	0.00246028577807861
0.67	-1.90889716050389	0.563082050128656	569.130145017098	-12.0892008177827	21.9685875500796	0.40430497359052	-0.385421567164494	0.00151364151590461	0.00254455779637458
0.68	-2.050804772056	0.545564523462185	569.269898608684	-12.1024257429176	21.9965879592805	0.40178958171735	-0.379216893939828	0.0014968247766729	0.002587142913275
0.69	-2.03520997430247	0.548567927236417	569.38694110698	-12.121628446534	21.9930682578362	0.39865833096354	-0.376502449319488	0.00146862940635661	0.00257598620906546
0.7	-1.86116013614647	0.573156047298495	569.457330478413	-12.1436056024191	21.9568172434985	0.395052890622785	-0.377486006323761	0.00143378346108147	0.00251052247681116
0.71	-1.56445702113221	0.614635543842237	569.481625465088	-12.1655595982994	21.8942371252697	0.391777857923281	-0.382038641331304	0.00139723703088446	0.00240191061756229
0.72	-1.20926261545864	0.664146626096333	569.482150769121	-12.1858674036965	21.8175426424663	0.390089334475005	-0.389719447137078	0.00136270293040175	0.00227005904994898
0.73	-0.872396487336982	0.711391029779163	569.492880348682	-12.2044822462609	21.7413261717834	0.391289895505026	-0.399806221998336	0.0013315620882165	0.00213827761756363
0.74	-0.624268200460382	0.747664220537677	569.545631438506	-12.2228953767414	21.6785014256936	0.396273907441273	-0.411361381293784	0.00130240277523042	0.00202708644258492
0.75	-0.511412838923684	0.768314284563491	569.657339903258	-12.2436914965559	21.636825158004	0.405190193246824	-0.423361262440405	0.00127131662650515	0.00194896642937609
0.76	-0.545338723035201	0.773945354103455	569.822642041011	-12.2698190583331	21.6170224017772	0.417345470015252	-0.434885583761744	0.00123289937526883	0.00190556635434769
0.77	-0.700800439687083	0.770053333786739	570.014073078234	-12.3037521943347	21.6130547277	0.431379126147452	-0.445318365977332	0.00118173366862984	0.00188815678566218
0.78	-0.924021769810111	0.765223991803327	570.189633216621	-12.3467388735858	21.6144180333955	0.445636616022518	-0.454480033877126	0.00111400251298266	0.0018811480136634
0.79	-1.14851888388861	0.768424594446648	570.305163040276	-12.3983103987861	21.6097357667786	0.458597732358876	-0.462616142520789	0.0010288279732289	0.00186755699099378
0.8	-1.31389606198484	0.786179200511065	570.327630054558	-12.45617447684	21.5905180473979	0.46920500647249	-0.47021625109679	0.000928971096851972	0.00183470596554558
0.81	-1.38206891432264	0.820465398472967	570.245366558857	-12.5165344555964	21.5539124282377	0.476988189999748	-0.477709417740749	0.000820666037725348	0.0017783614202026
0.82	-1.34617405654903	0.867983975511933	570.072380450928	-12.5747818047007	21.50359489629	0.481969614916258	-0.485148136430617	0.000712570100941834	0.00170401426023686
0.83	-1.22974278388358	0.921066427250041	569.845641386652	-12.6264153120429	21.4485405705739	0.484424334312527	-0.492017781957558	0.000614044037805739	0.00162491645365398
0.84	-1.07681296814818	0.969991070469926	569.616177365555	-12.6679732505164	21.40008585773	0.48462198140461	-0.497276535444168	0.000533169470148365	0.00155753629022198
0.85	-0.936500330343696	1.00601723538196	569.436414261151	-12.69774884626	21.368232568752	0.482673871041308	-0.499648319827341	0.000475000203265963	0.00151593109475584
0.86	-0.847188540304101	1.02417447722761	569.347108958395	-12.7161087032688	21.3583760077435	0.478552307573165	-0.49808847284126	0.000440493421201893	0.00150688192331494
0.87	-0.825386941950714	1.02487866078903	569.367286769009	-12.7253407936755	21.3694892008681	0.47226455673802	-0.492260351296787	0.00042638172769438	0.00152737123622759
0.88	-0.862524316274773	1.01381293313454	569.489789143556	-12.729091642351	21.3943157853525	0.464088057238471	-0.482836880327781	0.000425982918677126	0.00156520129104004
0.89	-0.930162075933831	1.00010432104546	569.683545530727	-12.7315657547332	21.4214750831154	0.45473904053819	-0.471489006933258	0.000430688267554435	0.00160251576609161
0.9	-0.991315249415277	0.993432799367062	569.90186203031	-12.7367132388649	21.4387796230585	0.445369443264095	-0.460529261337709	0.000431707419216165	0.0016210516684495
0.91	-1.01371455157723	1.00108796421272	570.094359202568	-12.7476064717212	21.436704594194	0.437358763598909	-0.452305333333003	0.000421627872507102	0.00160742476751868
0.92	-0.980495128911262	1.0259788650108	570.219196976149	-12.7661179788143	21.4109426556632	0.431959274002412	-0.448538106756877	0.000395463252811812	0.00155680358124322
0.93	-0.894969857039196	1.06620726081003	570.252247836979	-12.7928988783873	21.3633173293752	0.429925672275648	-0.449831395517301	0.000351061507108841	0.00147391697936533
0.94	-0.778336626054497	1.11620287238393	570.190957356955	-12.8275657732666	21.300889021245	0.431280276742019	-0.455530149781261	0.000288944017811321	0.00137124914798814
0.95	-0.661580899963641	1.16884927327142	570.052415996067	-12.8689644369452	21.2336738908947	0.435319059681412	-0.463983956185423	0.000211783370263507	0.00126518411924592
0.96	-0.574661066981695	1.21772801891976	569.86701543907	-12.9153953881948	21.1718096148702	0.440867327044801	-0.473124571553972	0.000123769595662737	0.00117146642877974
0.97	-0.536753237584341	1.25867363060823	569.670284065458	-12.9647413037964	21.1231116945739	0.44668647858738	-0.481145692441587	3.00675663608141e-05	0.00110145860723126
0.98	-0.550740431255407	1.29019912789768	569.495646316866	-13.0145021740082	21.0917466396363	0.451863545460675	-0.487029714266792	-6.35385085367979e-05	0.00106028836497118
0.99	-0.60353342514724	1.31284068446965	569.369939551537	-13.0617983620425	21.0782951738757	0.456018076570643	-0.490722306879543	-0.000150844730500976	0.00104724623497188
1	-0.671782564340665	1.32787501154978	569.312010378145	-13.1034306957078	21.0809599208633	0.459239774213141	-0.492894358500064	-0.000225409824410217	0.00105798555806164
1.01	-0.730759290315338	1.33604208647116	569.333299196176	-13.1360837629041	21.0972759151577	0.461792786021614	-0.494399689913848	-0.00028090805204084	0.00108747464198555
1.02	-0.763218558203772	1.33682699093892	569.438625093838	-13.156721253643	21.1255472557277	0.463734043895191	-0.495667400008687	-0.00031180382242102	0.00113245840822562
1.03	-0.765182991086043	1.32858688973541	569.625671828369	-13.1631542351659	21.1653991945863	0.464641211019687	-0.49630353336914	-0.000314371309921957	0.00119245716269528
1.04	-0.746739891507953	1.3094729397508	569.882767448595	-13.1546798554497	21.2172307385809	0.463605482735628	-0.495098723211852	-0.000287896222972206	0.00126895128850862
1.05	-0.727706704237279	1.27880752218181	570.185915110121	-13.132617398359	21.280824847182	0.459530210937418	-0.490474216729109	-0.000235721518897503	0.00136313858321152
1.06	-0.729797606716302	1.23841013586819	570.497033808185	-13.1005443491475	21.3537437795754	0.451636540191368	-0.481212822033499	-0.000165717435291812	0.00147323558734136
1.07	-0.768115255771858	1.19335116323712	570.76552646309	-13.0640798794666	21.4302688569424	0.439972753415541	-0.46718917985922	-8.98274392484577e-05	0.00159251575822716
1.08	-0.845000216924954	1.1517486466839	570.934470752768	-13.0301737769856	21.5014870593694	0.425701003171631	-0.449790497034549	-2.25662853483577e-05	0.00170905682049732
1.09	-0.948431912703908	1.12348173213672	570.951169202748	-13.0060027424361	21.5567331593243	0.411005485533338	-0.431817087045928	2.13413086876946e-05	0.00180758133497394
1.1	-1.05558008718046	1.11802218568615	570.780031175874	-12.9977028623857	21.5860991267825	0.398603553104045	-0.416837123411344	2.97010790814012e-05	0.00187301794586175
1.11	-1.14030591951748	1.14190015290282	570.414426110578	-13.0092303197781	21.5832937855942	0.390993078475069	-0.408173952182424	-4.67617690702582e-06	0.00189474526954925
1.12	-1.18203244152064	1.19652167385673	569.883772699636	-13.041618846866	21.547929135531	0.389677782424657	-0.407851565398999	-8.23860269980603e-05	0.00187014189064511
1.13	-1.17292577352041	1.27705537105376	569.25295477514	-13.0928009554237	21.4864101671974	0.394635801314812	-0.415858766028164	-0.000197139020309045	0.00180618768405949
1.14	-1.12091380863962	1.37286870106374	568.613039378505	-13.1580162519312	21.4109954864218	0.404224909407489	-0.429999403309191	-0.000336851272010552	0.0017184235580352
1.15	-1.0475000551468	1.4695657145733	568.064705270653	-13.230690841697	21.3371577654101	0.415574508877248	-0.446405146303372	-0.000485859652845977	0.00162740359827024
1.16	-0.981093585245002	1.55218295206919	567.698029914248	-13.30357618655	21.2799210555197	0.425350337967508	-0.460565197174844	-0.000627744746911962	0.00155358936203809
1.17	-0.948056089930478	1.60870345081686	567.573588946133	-13.3699027666504	21.2501985212022	0.430652276126921	-0.468553526487592	-0.000748131529407225	0.00151215927184833
