Time [s]	GRFml [N]	GRFap [N]	GRFv [N]	Mml [N.m]	Map [N.m]	Mv [N.m]	Mfree [N.m]	COPml [m]	COPap [m]
0.01	-0.20474967461577	0.912870752619334	780.321073283241	-1.33206787047145	26.7305019672886	0.856920084217437	-0.887855152228093	0.000676177459581928	-0.00578997150900495
0.02	-0.149770784968966	0.823903870476939	780.147711239418	-1.17143853735995	26.5156592730828	0.883645882790203	-0.91145286543857	0.00088130027235811	-0.00605624941222027
0.03	-0.0875623819207327	0.734258286121287	779.983278085263	-1.02425780438862	26.3057740592509	0.908359351020757	-0.933035551931919	0.00106920634473773	-0.00631661541603473
0.04	-0.0132197981038578	0.643437853421968	779.828450254042	-0.90065381618894	26.105022320905	0.929432516657548	-0.950975270515661	0.00122693034650234	-0.00656581060576572
0.05	0.0730092579937568	0.551999167683942	779.678118021128	-0.806201984765137	25.9178656469757	0.945655199655414	-0.964089385658048	0.00134733213982341	-0.00679795916346987
0.06	0.165402320930894	0.461682386911019	779.523050284737	-0.741255771235814	25.7488023197389	0.956369984510096	-0.971778358757249	0.00142995040837801	-0.00700695088968117
0.07	0.254268807315613	0.37524670881302	779.354452715897	-0.701696933368398	25.6019478467453	0.961518336334965	-0.974067043014088	0.00148004039702943	-0.00718716309670797
0.08	0.328648819818429	0.296118927562454	779.169900401336	-0.680861911988248	25.4807070265798	0.961574517683233	-0.971529445796861	0.00150610927525463	-0.00733412427335123
0.09	0.379205869321271	0.227966448560902	778.97822208108	-0.671988189321607	25.3876861956945	0.957374206177118	-0.965106721749956	0.00151679017178863	-0.00744482936295726
0.1	0.400358186594453	0.174270582030175	778.800953450531	-0.670357032465248	25.3248099631566	0.949872825143769	-0.955854878430928	0.0015181082056932	-0.00751765379746794
0.11	0.391083190744961	0.137937227493855	778.669021451157	-0.674451246787814	25.2934651000735	0.939887397388397	-0.944676361337952	0.00151200768386262	-0.00755203776304586
0.12	0.354368585404961	0.120963890592771	778.615029127051	-0.685825648354853	25.2944688398296	0.927884139468033	-0.932097916366001	0.00149652340208095	-0.00754821517159787
0.13	0.295735236778573	0.124189627154232	778.663272370063	-0.707848622149698	25.327761497112	0.913870634102346	-0.918154462949278	0.00146739017997954	-0.00750720300037766
0.14	0.221460585739078	0.147174376645403	778.820765831135	-0.743848459329494	25.3919013230778	0.897432530649119	-0.902420791216398	0.0014204068068282	-0.00743108583197349
0.15	0.137062715930507	0.188261573295853	779.072586866662	-0.795368077497299	25.483600433872	0.877918589659502	-0.884197099288829	0.00135365611534821	-0.00732342545293807
0.16	0.0463618754946816	0.244851573178054	779.383634054501	-0.861154395691385	25.5975963210144	0.854730856019239	-0.86280641551715	0.00126878406984021	-0.00718950385986145
0.17	-0.0488341353545337	0.31385088422117	779.706773846944	-0.937223654591124	25.7270633504287	0.827634836600343	-0.837917870817064	0.00117090583174451	-0.0070361356231558
0.18	-0.14855409825927	0.392187301341413	779.995040589728	-1.01795380376788	25.8645620435171	0.796987694048816	-0.809790410283117	0.00106720444044239	-0.00687095473513688
0.19	-0.254178319438842	0.477234718213362	780.213932946594	-1.09779240847497	26.003289390733	0.763803616215393	-0.779351195572753	0.000964748979163543	-0.006701314500003
0.2	-0.367776561387038	0.567007380223346	780.349593255102	-1.17295628417259	26.1382396725984	0.729631253492757	-0.748079263451353	0.00086832791889524	-0.00653312588884064
0.21	-0.491331142334982	0.660063808429175	780.409962152595	-1.24251069058515	26.2668897653704	0.696287109845531	-0.717736604844503	0.000779077059227307	-0.00637000928253906
0.22	-0.625886410345091	0.755170854437888	780.418469971697	-1.30844729432126	26.3891928262805	0.665540373646222	-0.690043841343132	0.000694386031498406	-0.00621302109133898
0.23	-0.770719433109485	0.850867935669493	780.402590141866	-1.37474612023789	26.5069298667283	0.638854112241847	-0.666409704723548	0.000609101320045657	-0.00606099326900228
0.24	-0.922722534383175	0.945105522699672	780.381612821183	-1.4457695767283	26.6227142806679	0.617249943487464	-0.647786482053532	0.000517582350410439	-0.00591129503760118
0.25	-1.07625290967132	1.03510780209759	780.358494768997	-1.52455991848343	26.7390623907892	0.601297056157177	-0.634656405483941	0.000415883458800503	-0.00576069533830054
0.26	-1.22366527958869	1.11754878443257	780.319321817168	-1.61161657915443	26.8578841842469	0.591165981929107	-0.627091689159216	0.000303327858042102	-0.00560602216516448
0.27	-1.35657473855667	1.18905663665712	780.241144939102	-1.70452750376314	26.9805418457659	0.586664774261168	-0.62480620132988	0.000182995794215546	-0.00544445857375603
0.28	-1.46764425681162	1.24698035691741	780.105637871387	-1.79851111330841	27.1083605892843	0.587202687149585	-0.627142098628353	6.10507715333997e-05	-0.00527350740612403
0.29	-1.55245602660541	1.29026466517457	779.913374329836	-1.88762254915777	27.2432669352625	0.59168991657003	-0.632995645619661	-5.47891011264401e-05	-0.00509080870337042
0.3	-1.61091680453001	1.3201931559191	779.692623930876	-1.96619944212023	27.3881569625787	0.598447569952312	-0.640749139417557	-0.000157101363105983	-0.0048940473453602
0.31	-1.64772637447889	1.34071182584775	779.497974366167	-2.03011531625872	27.5466870683795	0.605233520114306	-0.648305342133607	-0.000240386282151506	-0.00468113605942039
0.32	-1.67168901169489	1.35808573210734	779.397528685636	-2.07754407281548	27.7223965075533	0.609467032480503	-0.653298918439802	-0.00030209201713105	-0.0044507355259758
0.33	-1.69398402870916	1.37980198580676	779.45177171712	-2.1091356887843	27.9173346960906	0.608663782203886	-0.653493235241274	-0.000342900847128624	-0.00420303152056595
0.34	-1.72581524273866	1.41288805785848	779.690807943412	-2.12767284616771	28.1305840986566	0.601001779947496	-0.647288571922491	-0.000366347679920276	-0.00394057432581918
0.35	-1.77602932156294	1.46207652525253	780.09803576758	-2.13736822102414	28.3571676004623	0.58586600912281	-0.634204444249073	-0.000377954052542928	-0.00366892382083195
0.36	-1.84928206128294	1.52839453687026	780.606735822785	-2.14297469989449	28.5877755993038	0.564196415752319	-0.615181082958676	-0.000384081852498719	-0.00339684215599545
0.37	-1.94515908640315	1.60869526280752	781.111976811355	-2.14885690517906	28.8095593415521	0.538502210126463	-0.592581460051411	-0.000390692648169932	-0.00313583249396782
0.38	-2.05839539948962	1.69636954805255	781.495160602879	-2.15815557743477	29.0079684757814	0.512494116842137	-0.569853894243682	-0.000402192111199073	-0.00289893232514438
0.39	-2.18007708123151	1.78306865705652	781.654311517213	-2.1721804156124	29.1693344451881	0.490396073009509	-0.550910153645305	-0.000420556332815125	-0.00269882662720511
0.4	-2.299517596343	1.86089062033151	781.53134025022	-2.19016902797243	29.2836835001142	0.476092780598281	-0.539354781976857	-0.000444943852056623	-0.00254553381663375
0.41	-2.40640471376168	1.92429212294719	781.128495147582	-2.20951125662828	29.3471506290402	0.472319291426879	-0.537743999059862	-0.000471943273900433	-0.00244410205525225
0.42	-2.49279628926472	1.97107574672608	780.509506049041	-2.22643837716463	29.3633839199313	0.480089338061377	-0.547046481821627	-0.00049646687895899	-0.00239287984061742
0.43	-2.55457915980919	2.00214796030274	779.785292126744	-2.23703448788203	29.3434861438308	0.498496024779123	-0.566428593917676	-0.000513104315430724	-0.00238292665985013
0.44	-2.5920900254467	2.02021691886767	779.088189002564	-2.23829901893518	29.3043282457478	0.524923270947539	-0.593409786449039	-0.000517573814877936	-0.00239895493681597
0.45	-2.60974575526844	2.02801260046549	778.54142722212	-2.2289407054108	29.265452052103	0.555607281187332	-0.624350829398454	-0.000507838840180241	-0.00242184045998928
0.46	-2.61474975328324	2.02679626874508	778.231544951124	-2.20965299744265	29.2451795346491	0.586409377159015	-0.655166660185493	-0.000484545828287719	-0.00243227729041917
0.47	-2.61519496377571	2.01580452597731	778.190476716628	-2.18279380010142	29.256845566916	0.613620580684357	-0.682109677245798	-0.000450664171615323	-0.00241472996715991
0.48	-2.61808811292107	1.99289241569036	778.391505840332	-2.15160206649629	29.3061438201314	0.634619903862368	-0.702455621921519	-0.00041048638366159	-0.00236062371085954
0.49	-2.62787577347101	1.95614954115082	778.759676222705	-2.11924244637037	29.3903453202885	0.648249657603185	-0.7149459894961	-0.000368360708956961	-0.0022698360031832
0.5	-2.64590599141253	1.90585192996328	779.19347714483	-2.0880111182431	29.4996457659983	0.654843036441557	-0.719896505925758	-0.000327593918367453	-0.00215001340079191
0.51	-2.67093986908528	1.84593544304515	779.591647122212	-2.05894903191044	29.6202682697788	0.65592618865774	-0.718961168070526	-0.000289860501867967	-0.00201389651778988
0.52	-2.70045099654487	1.78430006231828	779.877686033268	-2.0319387882864	29.7384106347402	0.653697569638255	-0.714626894429745	-0.000255241568468345	-0.00187545951515056
0.53	-2.73217057649494	1.73163687896309	780.015564430831	-2.00618604005127	29.8438792365485	0.650438600123175	-0.709580264618275	-0.000222789970504733	-0.00174602694976422
0.54	-2.76527355264116	1.69898063833307	780.01293277976	-1.98087505338034	29.9323872201121	0.648014682661036	-0.7061131130086	-0.000191366320307695	-0.00163149198731083
0.55	-2.80078511181781	1.69465737537465	779.911965897977	-1.95576992843291	30.0059595209642	0.64758194512068	-0.705708551953138	-0.00016045321263225	-0.00153135157227724
0.56	-2.84113710123507	1.72156074309941	779.771594879889	-1.93158993345111	30.0715068895068	0.649537890108824	-0.708882381515876	-0.000130713404341787	-0.0014396592813567
0.57	-2.88916486603377	1.77565912528278	779.647160545176	-1.91007539903099	30.1381848091257	0.653671875650768	-0.715271648504384	-0.00010416025678861	-0.00134740258758481
0.58	-2.94704640630757	1.84631084046925	779.573845439505	-1.89374099874923	30.214460172372	0.65941463374462	-0.723893016145983	-8.39093064420871e-05	-0.00124543768686836
0.59	-3.01565473898805	1.91844386868642	779.558634847959	-1.8853724530422	30.3057898935271	0.666074819161082	-0.733462238644494	-7.35618362953661e-05	-0.00112706271158236
0.6	-3.09453965361041	1.97609959180653	779.582622582524	-1.88736872502125	30.4135113956275	0.672985665883983	-0.742679265762355	-7.6343007749613e-05	-0.000989555915449913
0.61	-3.1824026017784	2.00641628709716	779.612150914751	-1.9010735012258	30.5350864311972	0.679547529114018	-0.750429135390351	-9.41857870833118e-05	-0.000834426614612971
0.62	-3.27765738160869	2.00296254075603	779.614541540427	-1.92626877682405	30.6653939575336	0.685212135756866	-0.755901506818866	-0.000127002044318592	-0.000666558511741966
0.63	-3.37862691131157	1.96747131773156	779.572815802001	-1.96099488418315	30.7984778710072	0.68948287628688	-0.758664697567967	-0.000172378008499119	-0.000492724209852413
0.64	-3.48315036055082	1.90943722870594	779.494206620856	-2.00179328010192	30.9290975113176	0.691988143228303	-0.758728146623336	-0.000225842391892384	-0.000320039950847284
0.65	-3.58776363369192	1.84361898699451	779.409331595059	-2.04434463879572	31.0535967281074	0.692629735502749	-0.756594849880485	-0.000281687226082572	-0.000154815999845237
0.66	-3.68696928510749	1.78608653427468	779.36203769123	-2.0843343449876	31.1699230043455	0.691744309817574	-0.753265429328997	-0.000334126698659509	-2.01252526249585e-06
0.67	-3.77322748372891	1.74989995787708	779.393184097568	-2.11828126688071	31.2769717006123	0.69017874486432	-0.750137347569327	-0.000378440673029279	0.00013476099757842
0.68	-3.83807936405695	1.74165811985238	779.523921141023	-2.14406617120944	31.373679238797	0.689194848598704	-0.748764875481853	-0.000411739299304492	0.000252961554359443
0.69	-3.87432111954442	1.7599334250413	779.744497808281	-2.16100637481381	31.4583567443487	0.690184222637856	-0.750503310823111	-0.000433123668929669	0.000350859024244976
0.7	-3.87858790850658	1.79605441884111	780.013004258254	-2.16950348908232	31.5286213066736	0.694262246123348	-0.756127588162775	-0.00044325510110832	0.000427535935553613
0.71	-3.85334409999539	1.83697048526725	780.265187168321	-2.17046326571839	31.5819989420673	0.70187907131581	-0.765554956268739	-0.000443580219837258	0.000483167636222692
0.72	-3.80731314725581	1.86927149170046	780.432659734356	-2.16477034746787	31.6169537644407	0.712600207126967	-0.777788418615764	-0.000435583002579287	0.000519399796897357
0.73	-3.75385964823542	1.88307257210868	780.463809623868	-2.15305415813437	31.633874122184	0.725158896494854	-0.791131059061304	-0.000420389017883327	0.000539514681514031
0.74	-3.70760365109731	1.87454656174426	780.340573561083	-2.13582454892484	31.6355194340635	0.737785602163725	-0.803625810832677	-0.000398851400672973	0.000548107856542412
0.75	-3.68029808989938	1.84637564704285	780.085417310279	-2.11386044781069	31.6266247368539	0.74871539380685	-0.8135894293234	-0.000371994900317918	0.000550188882471825
0.76	-3.67740136217882	1.80612677905437	779.755950638413	-2.0885946790505	31.6127019849529	0.756703715425127	-0.820068658549363	-0.000341504154504624	0.000549899235185725
0.77	-3.69661943802773	1.76326581612478	779.428595858179	-2.06222163356863	31.5984257347702	0.761372621063912	-0.823067813836028	-0.000309906359828527	0.000549278369075035
0.78	-3.72900006118619	1.72595248718949	779.176317781762	-2.03737231025798	31.5861933002221	0.763266797549991	-0.823473026711585	-0.000280235013369157	0.000547577055266202
0.79	-3.76219979852557	1.69874816627327	779.047447205273	-2.01640154735549	31.5754121609008	0.76360109218239	-0.822701911922482	-0.000255208035876975	0.000541458607124068
0.8	-3.78470934653249	1.68193676616976	779.0524019661	-2.00052457806918	31.5628001765809	0.763792051499201	-0.822201669461844	-0.000236197216600731	0.000526094087398843
0.81	-3.78946609765119	1.67248724884299	779.162636023916	-1.98913665090635	31.5435959122575	0.764944531639421	-0.82297001987583	-0.000222394937054893	0.000496787783941743
0.82	-3.7755540386357	1.66604929798652	779.32216652393	-1.97960499802745	31.5132258970495	0.767480384044112	-0.825262719974072	-0.000210538978140384	0.000450529096949481
0.83	-3.74746926755715	1.65902571381677	779.46782654923	-1.96765459107864	31.4688026923566	0.7710415724504	-0.828581438461712	-0.000195356025580073	0.000386867212708086
0.84	-3.71238388450747	1.64983267499703	779.551403689208	-1.94825124801847	31.4098964780053	0.774694512655744	-0.8319318179043	-0.000170618524988342	0.000307751191984118
0.85	-3.67658165245421	1.63889115072563	779.556135991875	-1.91671306165439	31.3383011873261	0.777347365937981	-0.834243374243069	-0.000130495494903071	0.000216371387448622
0.86	-3.64248463064076	1.62748819178198	779.501956269141	-1.86972545885269	31.2568934562452	0.778214023840127	-0.834789049627197	-7.0805084028347e-05	0.000115420835161972
0.87	-3.60737648402479	1.61614553259711	779.437778506685	-1.80600920246742	31.1680163685563	0.777148496604665	-0.833453005833434	1.01381376689247e-05	5.41864020386917e-06
0.88	-3.56421552888613	1.60332815918739	779.42363588558	-1.72654340433524	31.0719904628058	0.774732325396476	-0.830762969054575	0.000111206702720912	-0.000116279425826649
0.89	-3.50412001800047	1.58514766146579	779.508979531528	-1.63439326878292	30.9663069131522	0.772097007655605	-0.827696532592822	0.000228624616302575	-0.000255399878785201
0.9	-3.4195128584898	1.55625523573651	779.714654372083	-1.53426620464942	30.8458181704034	0.770560069631388	-0.825349515803565	0.000356475929393807	-0.000419584883597834
0.91	-3.30673882447977	1.51158443909539	780.024562458066	-1.43190409431601	30.7039017818175	0.771210239680634	-0.824589831975031	0.000487440792297456	-0.000616480280650311
0.92	-3.16724578619502	1.44822707175645	780.389422358871	-1.33335573543617	30.5342546995789	0.774578755587996	-0.825806209810771	0.000613715788228775	-0.000851639086197953
0.93	-3.00701283778604	1.36666560734893	780.740752992475	-1.24413169110111	30.3327834702972	0.780489287034049	-0.828813102624524	0.000728116613993635	-0.0011268258223866
0.94	-2.83456743515066	1.27086033915347	781.009890687846	-1.16827539194683	30.0990444412007	0.788112791593826	-0.832916707302407	0.000825309467898938	-0.00143915074689976
0.95	-2.65841028432615	1.16717150823013	781.145670391674	-1.10748640057148	29.8368465067214	0.79619166890514	-0.837103333359376	0.00090298080350093	-0.00178120054773445
0.96	-2.48479922301947	1.06257251367989	781.125614511975	-1.06054364246626	29.5538905224546	0.803356412703456	-0.840288887191467	0.00096261264336317	-0.00214206084109025
0.97	-2.31661276276373	0.962876615803964	780.958348349351	-1.02331291674613	29.2605905816666	0.808442742747643	-0.841564282059364	0.0010094900883546	-0.00250892826097376
0.98	-2.15354034088151	0.871652293130208	780.67818032536	-0.989525218131381	28.9684170170948	0.810725749400027	-0.840379761309732	0.00105170099588237	-0.00286892810828082
0.99	-1.99333254504428	0.790176518353308	780.335054875737	-0.952286855327943	28.6881708170362	0.810015127263921	-0.83662761098444	0.00109818309600218	-0.00321078284554782
1	-1.83349186173746	0.718320895785443	779.983688374757	-0.906005821955118	28.4285461372626	0.80659613736428	-0.830606864521562	0.00115623067776938	-0.00352607729782534
1.01	-1.67271257002866	0.655877152896362	779.674729930557	-0.848205477202984	28.1952059016959	0.801045735939443	-0.822883648322359	0.00122914537953633	-0.00380998582974418
1.02	-1.51158204649746	0.603662331233566	779.449011562846	-0.780645965678196	27.9904466299368	0.793990020724326	-0.81409030963214	0.00131477769189425	-0.00406142443522806
1.03	-1.35241734147798	0.56386088536324	779.33435953909	-0.709326770138932	27.8134121874847	0.785885172685558	-0.804725308999349	0.0014055073409861	-0.0042826535862438
1.04	-1.19846250140222	0.539408189824901	779.343759419785	-0.643263497874831	27.6607504291663	0.776892524614089	-0.795015617146668	0.00148980015124101	-0.00447840031366342
1.05	-1.05287626541227	0.532654850658658	779.474047772492	-0.592316156822918	27.5275787132806	0.766882680846218	-0.784882603506138	0.00155498711187529	-0.00465461626027941
1.06	-0.917945161557309	0.543894588443263	779.705301561557	-0.564663758936979	27.4086072470219	0.75555710171138	-0.774018227374105	0.00159050485903056	-0.00481705667301779
1.07	-0.794801788168227	0.570443530133408	780.001971707496	-0.56465869072321	27.2992461404461	0.742635851667408	-0.762043067003312	0.00159065850711204	-0.00496993998617806
1.08	-0.683700243098186	0.606771471558336	780.316936836271	-0.591700625145921	27.1964995279344	0.728041412356064	-0.748693355992714	0.00155608576550859	-0.00511498956112827
1.09	-0.58468834474119	0.645771941428524	780.598852678241	-0.640468450355903	27.0994537680626	0.71201561327319	-0.733977839131043	0.00149348482140199	-0.00525112491748575
1.1	-0.4983766336125	0.680782029947792	780.801778343412	-0.702434216813738	27.0092222247212	0.695134533079483	-0.718257152134482	0.00141369782013534	-0.00537494025302665
1.11	-0.426460675279852	0.707621618889686	780.894747575128	-0.768188773307233	26.9283223161617	0.67822226845141	-0.702222895817711	0.00132874702132446	-0.00548190551670696
1.12	-0.371708668365209	0.725861628924808	780.868400073073	-0.829863671006129	26.8596089754779	0.662195218237367	-0.686782132727429	0.00124873646307311	-0.00556800916605182
1.13	-0.337272795159058	0.738787064407387	780.73635876457	-0.882920271226259	26.8050288873169	0.647885150649567	-0.67287807113351	0.00117955217961951	-0.0056314047512106
1.14	-0.325399166026498	0.75200017691418	780.530614206392	-0.926800386133776	26.7645439285897	0.635890207375948	-0.661294475502751	0.0011220106304709	-0.00567358267764956
1.15	-0.33585315835583	0.771128371532011	780.292199654034	-0.964316813586486	26.7355647918224	0.626491765521775	-0.652497257233909	0.00107261529375668	-0.00569968531828596
1.16	-0.364571873233064	0.799459314945267	780.060134556393	-1.00007292996909	26.7131260588652	0.619656316450357	-0.646559589839577	0.0010255566237084	-0.00571779803563915
