Time [s]	GRFml [N]	GRFap [N]	GRFv [N]	Mml [N.m]	Map [N.m]	Mv [N.m]	Mfree [N.m]	COPml [m]	COPap [m]
0.01	1.69854003669359	2.35283800475104	759.735761419634	5.52689858056225	-39.3854808414512	1.53965665018251	-1.40532962891469	-0.00679191225329168	-0.00325092329118737
0.02	1.77157717291076	2.35430677052814	759.875598014252	5.54811337507184	-39.3877830695545	1.5493208255436	-1.41432592551952	-0.00676540695066452	-0.00324730837280535
0.03	1.82442862592904	2.34406784654221	760.069383972178	5.5731180939416	-39.3928235962478	1.55659399776095	-1.42168503006284	-0.00673444276232227	-0.00324367807148945
0.04	1.83863947498419	2.31324581892425	760.365081919669	5.60480360570065	-39.4029550234615	1.55933836241084	-1.42586488575433	-0.00669570001315645	-0.00323989628275856
0.05	1.80125383208102	2.25890936209971	760.785375957138	5.64526507189136	-39.4189374296602	1.55579648019663	-1.42535742894666	-0.00664666792248747	-0.00323542899174706
0.06	1.70709451554279	2.18482162136461	761.323609723404	5.69541693937223	-39.4398614647561	1.54484072024146	-1.41888241097808	-0.00658610815251792	-0.00322952365006984
0.07	1.56016555994859	2.1002886176632	761.946384785701	5.75469492036599	-39.4635473910388	1.52623178537391	-1.40569437344802	-0.0065144626737792	-0.00322156901639437
0.08	1.37369771942039	2.0176250840163	762.60036304733	5.82101299602327	-39.4871418735987	1.50078605568626	-1.38587939582566	-0.00643396339507041	-0.00321143022052855
0.09	1.16853083846523	1.94906323021223	763.22030878339	5.89111604937687	-39.5075940467157	1.47035609834222	-1.36050588761725	-0.00634823387148675	-0.00319953464927303
0.1	0.969928381642764	1.90391355090624	763.736382553053	5.96134701015284	-39.5218109153726	1.43758478222148	-1.33154769770756	-0.0062613433371782	-0.00318657638682718
0.11	0.803404473907791	1.8865521715704	764.080377037331	6.02867019991585	-39.5264996361111	1.40547439438378	-1.30158727530233	-0.00617652179112638	-0.00317287061724297
0.12	0.690491686651285	1.89551189687404	764.191926574766	6.09163745779281	-39.5178946444546	1.37688026512573	-1.27338747428914	-0.00609496026658252	-0.00315755367870418
0.13	0.645407501081876	1.92371184994319	764.025975321003	6.15093232132824	-39.491652760375	1.35406366858596	-1.24945810930462	-0.006015188337258	-0.00313792242859634
0.14	0.67325352953731	1.95970737716696	763.561828846745	6.20922483756716	-39.4431460217046	1.33841211652239	-1.23172694814405	-0.00593338138582744	-0.00310920155713118
0.15	0.76984469818538	1.98974148957906	762.81245374579	6.27029643456251	-39.3682176563172	1.33037085985086	-1.22136949157697	-0.0058446333217419	-0.00306492069422332
0.16	0.922764705133515	2.00027979636837	761.831196169627	6.33766960077215	-39.2642599769671	1.32955689606393	-1.21878790476362	-0.00574485169196159	-0.0029979070374595
0.17	1.11300669846759	1.98060079675509	760.712571537108	6.41318942274328	-39.1313035167848	1.33497655690997	-1.22368633248959	-0.00563264670451868	-0.0029017052382263
0.18	1.31667107663617	1.92493888800783	759.584637306768	6.49605924241779	-38.9727372562429	1.3452577326569	-1.23518257736694	-0.00551052223123982	-0.00277208180386412
0.19	1.50655918367954	1.83371250052465	758.592544196745	6.58269662170254	-38.7953388515507	1.35883606575466	-1.25191988419777	-0.00538487952355471	-0.0026082060735968
0.2	1.65389677552822	1.71355713973709	757.875524588867	6.66749232228821	-38.6084688665798	1.37408163822681	-1.27217751245166	-0.00526474891129813	-0.00241315202989884
0.21	1.73060822117144	1.57618757752628	757.541923070297	6.74423122809528	-38.4225241120549	1.38939262993446	-1.29400223382067	-0.0051596200429026	-0.00219352946110124
0.22	1.7124154512351	1.43642299110327	757.648064645657	6.80769764066636	-38.2469777868416	1.40329568267137	-1.31538191098961	-0.00507706891979354	-0.0019582864489513
0.23	1.58260239604141	1.30989061672511	758.186298375039	6.85493246330814	-38.0884809594894	1.41457578507751	-1.3344596602486	-0.00502094898483751	-0.00171695707604019
0.24	1.33576564032002	1.21090180904084	759.085480557769	6.88575607918045	-37.9495076624813	1.42242431611019	-1.34975794387761	-0.00499069730571511	-0.00147778365002116
0.25	0.980521722101574	1.15079952559332	760.224043556465	6.90245418162631	-37.8278872680605	1.42656343388694	-1.36036380403441	-0.00498189607596178	-0.00124617170924118
0.26	0.540152696826857	1.13682900972546	761.45257531056	6.90882559260381	-37.7173280288133	1.42729524817612	-1.36602885062617	-0.00498779223608425	-0.00102383413221835
0.27	0.0505814509415854	1.17142309434432	762.6205083947	6.90899104794071	-37.6087760523472	1.42543949449085	-1.36715770069343	-0.00500118496374713	-0.000808788811070271
0.28	-0.444256763929311	1.25179524567864	763.600787029531	6.90639048646543	-37.4922589809433	1.42215507609547	-1.36468501594758	-0.00501604294762514	-0.000596158819766102
0.29	-0.898881040889076	1.3698670605924	764.307396736897	6.9032606127469	-37.3587863995884	1.41867450333001	-1.35986312814187	-0.0050284037988676	-0.000379547179333528
0.3	-1.2733220549011	1.51270942583215	764.702965757853	6.90065840791383	-37.201923111935	1.41600484137982	-1.35399581932744	-0.00503643402972742	-0.000152656386069205
0.31	-1.53939954965907	1.66372110216367	764.796445400992	6.89888284115522	-37.0187778312159	1.41466056188423	-1.34816269791132	-0.00503984378956368	8.91988390009368e-05
0.32	-1.68508590533999	1.80463795401423	764.633250446511	6.89803144769054	-36.8103028660791	1.41449369627842	-1.34298693991301	-0.00503903260809513	0.000347992240884221
0.33	-1.71629257005352	1.9181913382841	764.281551565159	6.89844331458826	-36.5809366278408	1.41467495558902	-1.338504334886	-0.00503433963709965	0.000622511163207995
0.34	-1.65594363695512	1.99093097686539	763.818464052608	6.90089650686442	-36.3377236287451	1.41385266805623	-1.33418307979121	-0.00502561952110758	0.000908581162524402
0.35	-1.54063185083329	2.01554122875907	763.318915040445	6.90657460756906	-36.089119830635	1.41047209711131	-1.32911097570778	-0.00501215979514114	0.00119990146413962
0.36	-1.41541458874027	1.99201648848036	762.848513890899	6.91691707617953	-35.8437396651061	1.40318256266557	-1.32231075966412	-0.0049928048554948	0.00148923979811683
0.37	-1.32742034908192	1.92733897740677	762.460352252888	6.93347826381397	-35.6093153842933	1.39121356207307	-1.31308477913279	-0.0049661190865401	0.00176962223856819
0.38	-1.31897802429969	1.83373699584692	762.194702760929	6.95785124001512	-35.3920971844127	1.37459045127812	-1.30125891513233	-0.00493049845904858	0.00203514502739077
0.39	-1.42102977967309	1.72603827386769	762.080186330088	6.99162114060726	-35.1968071047573	1.35410310492592	-1.28721889191506	-0.00488425449141894	0.00228116035890424
0.4	-1.64766734626103	1.61890247105151	762.135041652831	7.03626408289324	-35.0270836455609	1.33103079324757	-1.27171153490594	-0.00482576022043435	0.00250382368129703
0.41	-1.99268762116646	1.52470494893956	762.367484750325	7.0929358574415	-34.8861694717784	1.30672869203131	-1.25548902138139	-0.00475371789195089	0.00269925627194401
0.42	-2.42898924202311	1.45254393498811	762.774663933634	7.16218108597352	-34.7774786940482	1.28224731133286	-1.23895562822843	-0.0046675043663158	0.00286276355677939
0.43	-2.91132610984655	1.40836877041958	763.340337124401	7.24367950780934	-34.7046994909742	1.25814871512487	-1.22198987787869	-0.00456744794221964	0.00298856543467568
0.44	-3.38237162320312	1.39577319997245	764.032060932469	7.33616981365401	-34.6712584834387	1.23459969498873	-1.20404739351135	-0.0044548685132686	0.00307031440419747
0.45	-3.78132302124744	1.41676048137339	764.799232403347	7.43762772919628	-34.6792416111195	1.21169730017898	-1.18452810602002	-0.00433180254098386	0.00310236184264301
0.46	-4.05359161368081	1.47187432497142	765.573527661339	7.54565238598847	-34.7281239234489	1.18987301591157	-1.16326972575046	-0.00420049538472478	0.00308141011707697
0.47	-4.15972355731128	1.55946688417603	766.272934007928	7.65790061340895	-34.8137917113318	1.17017847467027	-1.14096230757779	-0.00406288645231678	0.00300799777874955
0.48	-4.08175552767586	1.6743752211919	766.809664923715	7.77237035387941	-34.9282777939989	1.15429762125286	-1.11929628290298	-0.0039203495526875	0.00288729347249972
0.49	-3.8257576100718	1.80667514077412	767.101042576956	7.88740107506595	-35.0603929017523	1.14423947638383	-1.10075151657076	-0.00377384734966202	0.00272891224203065
0.5	-3.4202019114887	1.94129543319358	767.081380106961	8.00140333645572	-35.1971223191282	1.14179573697875	-1.08806849097611	-0.00362445652826149	0.00254581206184074
0.51	-2.91074445574353	2.05905333238736	766.712426081425	8.1124803732659	-35.3254023657027	1.14794511706313	-1.0835608570657	-0.0034740174060407	0.00235262791723667
0.52	-2.35272849368815	2.13920679535513	765.990238661737	8.21818342218216	-35.4338020592309	1.16241355479297	-1.08848568998003	-0.00332556268422357	0.00216392948853311
0.53	-1.80301754505714	2.16309844448817	764.947294596909	8.31560494692524	-35.5137371282876	1.18354785149109	-1.10266453398463	-0.0031832411253474	0.00199280637987237
0.54	-1.31262205371829	2.11807986152641	763.649806538136	8.40187242140967	-35.5600705514808	1.2085528945127	-1.12445835210432	-0.00305165174680155	0.00184995609237792
0.55	-0.921128068489565	2.00076783828341	762.191164383434	8.47492334516084	-35.5711851235572	1.23402251696481	-1.15108192797812	-0.00293475405982546	0.00174320650921789
0.56	-0.653382629999476	1.81880662301399	760.682837915663	8.53430233871156	-35.5487382156225	1.25660617550794	-1.17914464577023	-0.00283470842470768	0.0016772735772666
0.57	-0.518426585681788	1.59062397297253	759.243968662285	8.58168493276032	-35.4972837252499	1.27362653477361	-1.20525846321461	-0.00275104746052202	0.00165358985009673
0.58	-0.510380714224428	1.34307803246006	757.990489197467	8.62091245557589	-35.4238150379752	1.28349888292735	-1.22656771245617	-0.00268047158108198	0.00167019522564021
0.59	-0.610866648099675	1.1073136225284	757.024298643816	8.65748018543997	-35.3371470944817	1.28587993504936	-1.24111059984897	-0.00261735325733348	0.00172184382553286
0.6	-0.792502164238093	0.913520609933044	756.423057588116	8.69759113882417	-35.2470140958962	1.28155712647225	-1.2479871167168	-0.00255481414479797	0.00180053605895969
0.61	-1.02298175073796	0.785562500652331	756.231546982066	8.74701004485444	-35.1628506264787	1.27215052359077	-1.2473550032245	-0.00248608530297068	0.00189658289716216
0.62	-1.26922167390406	0.736561682647297	756.455981123161	8.80999468699713	-35.0924038458386	1.25972450800495	-1.2402938468309	-0.00240581046946642	0.00200009332501655
0.63	-1.50104961761708	0.766427892051227	757.062755974632	8.88854715258058	-35.0404902957396	1.24639950567855	-1.22857490532928	-0.00231099720680683	0.00210255762202427
0.64	-1.69400240253067	0.861967138402025	757.98255262027	8.98214005633193	-35.0082591467744	1.23402958354904	-1.21436721435086	-0.00220142529925471	0.00219809830107026
0.65	-1.83098014125842	0.999648428374905	759.119537441161	9.08796206535823	-34.9932078562148	1.22398399766042	-1.19991144474885	-0.00207944875740473	0.00228404102681068
0.66	-1.90275402735111	1.15046199620989	760.364009388656	9.20161689312704	-34.9899537777016	1.21704719260591	-1.18720261127243	-0.00194925235236065	0.00236069420336155
0.67	-1.90755581177952	1.28576140664474	761.60583227544	9.31811788094281	-34.9914999913709	1.21343281492134	-1.1777317249311	-0.00181573126614987	0.00243051646994991
0.68	-1.8501052066085	1.38271952511053	762.745841173889	9.4329616093795	-34.9905643911151	1.21289106900466	-1.1723335953022	-0.00168323952669192	0.0024970678688998
0.69	-1.74041592828345	1.42813821931777	763.703253597313	9.54305171997589	-34.9805453410618	1.21487531887712	-1.17116864249331	-0.00155448308702433	0.00256418784661894
0.7	-1.5925864839215	1.41980423473467	764.418634315208	9.64728295620933	-34.9558762457697	1.21872633380572	-1.17383581644838	-0.00142980503943069	0.00263570053205031
0.71	-1.42360408927061	1.36524085722113	764.85352771727	9.74667547009357	-34.91180113873	1.22383438468762	-1.17958254531375	-0.0013070267787183	0.00271567438019193
0.72	-1.25205822813176	1.27837401642326	764.988814450851	9.84404770763741	-34.8438672326642	1.22975065172054	-1.18755638211463	-0.00118189042666927	0.00280897276871395
0.73	-1.09663716694286	1.1751287333124	764.823768411786	9.94330670859149	-34.7475671321101	1.23623584105737	-1.19703674989488	-0.0010490234831726	0.00292164701770525
0.74	-0.974379917972962	1.06917239493564	764.376749322154	10.0484998974059	-34.6185113328501	1.24324914866986	-1.20759335953368	-0.000903241703704261	0.00306072894621567
0.75	-0.898839033100589	0.968886658312201	763.686975778037	10.1628076735594	-34.4532826475505	1.25089012068719	-1.21913692898333	-0.000740935774201978	0.00323319166490332
0.76	-0.878497926360003	0.87623387969216	762.815607981853	10.287664707892	-34.2508012813064	1.25930909688828	-1.23185353512519	-0.000561258780656826	0.00344419920969541
0.77	-0.915886780338369	0.787618666950075	761.844023068772	10.42218273873	-34.0137381173253	1.26860184774316	-1.24604175088748	-0.000366849929757884	0.00369512817488438
0.78	-1.00777792139082	0.696302207947689	760.86787427375	10.5630066488204	-33.7493773568663	1.27870438664814	-1.26189618224837	-0.000163900267446171	0.00398206690039249
0.79	-1.14659187647812	0.595562210236942	759.986988110245	10.7046647351126	-33.4694202462834	1.28930626877452	-1.27929605710767	3.85126257830271e-05	0.00429546667064767
0.8	-1.32276306250301	0.481689973476499	759.292743510454	10.8403763345464	-33.1885275620211	1.2998035121425	-1.2976585515642	0.000229736939958425	0.00462131202259752
0.81	-1.52742856542532	0.356066728532267	758.855639839568	10.9631722560655	-32.9218213302453	1.3093122957702	-1.31590284503241	0.000399262509420462	0.00494368353104974
0.82	-1.75458194512665	0.225872353292732	758.715904884369	11.0670955088803	-32.6819533238631	1.31675850687397	-1.33254611417343	0.00053848053040606	0.00524808344978123
0.83	-2.00191229266583	0.10333122831319	758.879225778169	11.1482134910703	-32.4765509021765	1.32104421829053	-1.34592285871862	0.000642095515409613	0.00552457828646086
0.84	-2.26995645461243	0.0037001231972995	759.318353069799	11.2052073299744	-32.306786084855	1.32127113546161	-1.35448998359911	0.000708869053033578	0.00576981476729976
0.85	-2.55981183495187	-0.0575859767832374	759.979925401056	11.2394054602665	-32.1674978807531	1.31697752433508	-1.35715671794168	0.000741534719792325	0.00598729598219738
0.86	-2.87024983886556	-0.0680672386672061	760.794811739346	11.2542692587794	-32.048841766231	1.30832744604547	-1.35356526302491	0.000745927811912295	0.00618584306076031
0.87	-3.19537262189431	-0.0211126322344001	761.689777219164	11.2544774910308	-31.9390039286427	1.29618900352713	-1.34424989403452	0.000729564530760785	0.00637671625285668
0.88	-3.52380835020216	0.0821050161566385	762.598320843003	11.2448536843904	-31.8272459950762	1.28205794292459	-1.33062254358055	0.000700031295386649	0.00657023487795849
0.89	-3.83987816560727	0.231973853726879	763.468935185339	11.2294110251367	-31.7065124094083	1.26782195901283	-1.31477011302332	0.000663576398112209	0.0067728087621845
0.9	-4.12642107181629	0.411381572744272	764.26960872906	11.2107482941633	-31.5750196582855	1.25540723430128	-1.29909416316483	0.000624231192129621	0.00698508465162156
0.91	-4.36834916670043	0.598147665456251	764.988018967304	11.1899315487723	-31.4365645781739	1.24638496433763	-1.28586361193076	0.000583646986537456	0.00720152986978584
0.92	-4.55577596003206	0.768534524143452	765.62753571816	11.1668652174661	-31.2996232030755	1.2416285204154	-1.27677326284597	0.000541650453466325	0.00741137246717272
0.93	-4.68577927264728	0.90115645812712	766.199894520871	11.1410236204221	-31.1755697937692	1.24109874768481	-1.27260019662136	0.000497333842792935	0.00760051616145663
0.94	-4.76238766827874	0.980489808507484	766.716175588236	11.1123112842794	-31.0764843660621	1.24380384604933	-1.27302949527402	0.000450348087621788	0.00775390622330419
0.95	-4.79496073987135	0.999265879773412	767.178367340138	11.0817761334207	-31.0130384183627	1.247944039619	-1.27668817535518	0.000401996706045571	0.00785782800195345
0.96	-4.79553646586905	0.959291901265675	767.574012582475	11.0519313041383	-30.9928780054346	1.25121929017048	-1.2813886141089	0.000355764618933607	0.00790172380327669
0.97	-4.77584001193418	0.870628952996168	767.875930293717	11.0265469664945	-31.0197865063171	1.25125339232214	-1.28454439677725	0.000317061945261932	0.00787926574118009
0.98	-4.74453794881095	0.749452434447377	768.047666041729	11.0099278603906	-31.0937248314253	1.24606831299724	-1.28368592744761	0.000292188163248053	0.00778859120707182
0.99	-4.7051241285528	0.615207907966999	768.053404095867	11.0058523420882	-31.2116355568002	1.23452799575276	-1.27697642266646	0.00028676659878013	0.0076317797825286
1	-4.65467724432401	0.487756330377436	767.869223518381	11.0164668357036	-31.3686988201382	1.21666474023503	-1.26361999034134	0.000304088917849943	0.00741381008015157
1.01	-4.58368725464495	0.385049527949282	767.491641272769	11.041467231149	-31.5596022163934	1.19381026603644	-1.24407000292337	0.000343878056713098	0.00714134945257111
1.02	-4.47715107854685	0.321554004611416	766.940001680557	11.0778384662101	-31.7793962201191	1.16848228075086	-1.21998827225462	0.000401890226434332	0.0068217532032025
1.03	-4.31706618681002	0.307293203117865	766.251482302458	11.1202762164707	-32.023677227978	1.14402394546221	-1.19396375116316	0.000470544809082707	0.00646255001297708
1.04	-4.08620565378009	0.347172677579131	765.47054687467	11.1622204749338	-32.288131655433	1.12404874806064	-1.16905626095481	0.00054046063331159	0.00607147787956158
1.05	-3.77264490681605	0.440298298242576	764.637277147348	11.1972498405641	-32.5677783135894	1.11179297212689	-1.14826855499315	0.000602490839584413	0.00565687847214957
1.06	-3.37406472228339	0.579278828862706	763.779856892848	11.2204774582319	-32.8564255190942	1.10950815121057	-1.1340587129468	0.000649689398132258	0.00522806422731104
1.07	-2.90059593971681	0.749871969695004	762.914935031808	11.2295907991262	-33.1468127645314	1.11802671439538	-1.12798503526476	0.000678670272288628	0.00479523983220592
1.08	-2.37509538216937	0.931569729478513	762.056105606603	11.2252844128964	-33.431625419038	1.13660249435022	-1.13053685698355	0.000690023649988825	0.00436872590708948
1.09	-1.83031175720694	1.09964964701503	761.226725735699	11.2110066339901	-33.7051552625062	1.16306920063128	-1.14116042696421	0.000687753526203316	0.00395754786529784
1.1	-1.30328468214801	1.22880798660108	760.470552749004	11.1921190107623	-33.965004378803	1.19428738418344	-1.15845094575142	0.000677986188895474	0.00356779226468673
1.11	-0.828228748804991	1.29787480082409	759.853607574558	11.1746992164399	-34.2130704756357	1.22678158499022	-1.18045659272731	0.000667375226055422	0.00320134669182753
1.12	-0.429748122761369	1.29454008565054	759.453579835785	11.1642774154814	-34.4552049800608	1.25742201383412	-1.20502884656008	0.000661653050269218	0.00285561795771067
1.13	-0.11825770945646	1.218752525922	759.338018923771	11.1647820674506	-34.6993709391556	1.28399234980936	-1.23015331722037	0.00066466819765465	0.00252454937903968
1.14	0.111096646796228	1.08363795481793	759.537610856547	11.1778999553325	-34.9526928336455	1.3055122696369	-1.25420449954023	0.000678058157533967	0.00220081886704526
1.15	0.275753901536677	0.913401194855118	760.023958442097	11.2029478788299	-35.2182671705793	1.32224595926181	-1.27608593182771	0.000701506265915364	0.0018786574045711
1.16	0.400164180253461	0.73853240586539	760.701070537923	11.2372316627967	-35.4927961539635	1.33541198939723	-1.29524392024193	0.000733374014346699	0.00155645439519114
1.17	0.509074502643553	0.589450320827974	761.416072365223	11.2767563271237	-35.765924637781	1.34669289213596	-1.31157453512647	0.000771422985675341	0.001238324250943
1.18	0.621733637300124	0.490201500082481	761.9886272432	11.3170772533112	-36.0216524151999	1.35769824889236	-1.32527105065004	0.00081335879285771	0.000934103191799374
