Time [s]	GRFml [N]	GRFap [N]	GRFv [N]	Mml [N.m]	Map [N.m]	Mv [N.m]	Mfree [N.m]	COPml [m]	COPap [m]
0.01	1.0942525525243	1.35263406554777	611.356133485878	2.65748264695835	13.9663864118765	0.798242254554646	-0.824494952624012	-0.00652337709157225	0.00982708920508329
0.02	1.11658534452211	1.17467433924301	609.478976588369	2.63254015140914	13.9375552220347	0.78807773739429	-0.810022688545559	-0.00655884252339545	0.00985233532298596
0.03	1.08366654494048	1.02790541022038	607.574197992336	2.60956090181402	13.9256613414255	0.77523476928706	-0.79387108878563	-0.00659058865224327	0.00990693322131025
0.04	0.95100789799827	0.939539784508486	605.613611362353	2.59076819130548	13.9442233655073	0.757306803764946	-0.774508389347863	-0.00661439794449525	0.0100147160384757
0.05	0.697621054948131	0.924775550162256	603.613579031062	2.5812748987986	14.0026413986834	0.733368082012647	-0.751510366102077	-0.00662162074211714	0.0101909600423357
0.06	0.330306368367901	0.984128607014132	601.642560121912	2.58914670117106	14.1051312476136	0.704324059806044	-0.725823197207933	-0.00659917239333596	0.0104402524701044
0.07	-0.118732666952436	1.10394930545078	599.813852586234	2.62397090215201	14.2503500041201	0.672822610214173	-0.699681750894279	-0.00653191247651219	0.0107560506609328
0.08	-0.599730335573308	1.25963699131661	598.267458516453	2.69432793729564	14.4317601626988	0.642770410955556	-0.676215102166983	-0.00640676148809627	0.0111218936186233
0.09	-1.05627912375325	1.42048785728026	597.146455974404	2.8049765431948	14.6386901137576	0.618579034297802	-0.658835690420131	-0.00621722756042808	0.011514030901871
0.1	-1.43665289524146	1.5549471573178	596.572640187682	2.95471881322363	14.8579604095413	0.60430651479598	-0.650545349166966	-0.00596675429864146	0.0119051009903081
0.11	-1.70327410149132	1.63526228303114	596.62480478747	3.13574468146135	15.0758604919205	0.602862259774396	-0.65329850142581	-0.00566957646865507	0.0122683797718652
0.12	-1.83887427554513	1.64097481815591	597.321957315138	3.33480356603706	15.2801864450864	0.615413945507024	-0.667542906394737	-0.00534852815545583	0.0125820078640551
0.13	-1.84874944063726	1.56112321048534	598.613377366585	3.53595247105879	15.462004048559	0.641086468569222	-0.692017958210904	-0.00503025615209562	0.0128325183031912
0.14	-1.75918115729471	1.39528312045574	600.377388191718	3.72408940371795	15.6168079458254	0.676988006704467	-0.723839424185355	-0.00473920122583271	0.0130169874779327
0.15	-1.61252320030603	1.15359870562419	602.430339014598	3.88819923482727	15.7448282090705	0.718548216563377	-0.75884943204309	-0.00449217795774493	0.0131432874697545
0.16	-1.45972438507216	0.855828117692483	604.54607129547	4.02333159065273	15.8503926679585	0.760115943231854	-0.792172059268114	-0.00429521260654886	0.0132282491091725
0.17	-1.35129577909843	0.529290685810518	606.484094650572	4.13077096384314	15.9404620110448	0.795739416810211	-0.81889303527691	-0.00414353371281018	0.0132940015689564
0.18	-1.32800345789903	0.205613691617287	608.022435514943	4.21648159092861	16.022663539597	0.820035068318379	-0.834773839000398	-0.00402453840678885	0.0133632172882731
0.19	-1.41282478537041	-0.0835892216740076	608.989528203381	4.28847344311073	16.1032946882326	0.829034154695431	-0.836907718297015	-0.00392259086594182	0.0134543116185639
0.2	-1.60578863850638	-0.31156500877154	609.289287664928	4.35403027450844	16.1857946131977	0.820877760436449	-0.824222125607843	-0.00382400800665694	0.0135777037287266
0.21	-1.88304693747446	-0.460833666572359	608.914783354285	4.41767547883765	16.2700686535903	0.79622077733375	-0.797732366269692	-0.00372070460705998	0.0137339974240497
0.22	-2.20080854969592	-0.526015411419041	607.948273989697	4.48038783640593	16.3528188327233	0.758223618025154	-0.760467712442202	-0.00361159914130016	0.0139144481203348
0.23	-2.50369987926868	-0.514138349350307	606.547976795361	4.540089646284	16.4287490655154	0.712072783783425	-0.717036734627542	-0.00350172710681185	0.0141034905460243
0.24	-2.73597693608757	-0.442135735228702	604.924105105692	4.59301131548217	16.4922649816668	0.664075771811591	-0.67287371654739	-0.00339973450240938	0.0142825904220938
0.25	-2.85317006954517	-0.332123407118157	603.308044610315	4.63532605279249	16.5391564419404	0.620495318136227	-0.633294757202335	-0.00331479785298872	0.0144344025977132
0.26	-2.83150147085416	-0.205829801211234	601.919090101545	4.66447970623923	16.5677790264244	0.586379578146721	-0.602559441482673	-0.00325398134950439	0.0145462366628925
0.27	-2.67288655132702	-0.0798933093287254	600.933200164842	4.67985513155836	16.5794266775166	0.56466892679668	-0.583152228334273	-0.00322069493558408	0.0146121163671193
0.28	-2.40438042621211	0.0365348806987736	600.457977810613	4.68270053088428	16.5778480945094	0.555799850265667	-0.575453784696623	-0.00321443818930989	0.014633157147585
0.29	-2.07224998247623	0.141267082090083	600.517563520898	4.6755095587955	16.5681159448551	0.557896353674264	-0.577876100202536	-0.00323158073034313	0.0146164310642254
0.3	-1.73208409450004	0.236086303301582	601.05014147063	4.66119216946708	16.5552313407527	0.567479227942135	-0.587414834489556	-0.00326666358066674	0.0145728191923145
0.31	-1.43721593937339	0.322641330792257	601.9191060359	4.64238791208503	16.542893400371	0.58048313090113	-0.600464148002947	-0.00331365809955553	0.0145145064444703
0.32	-1.22806492216562	0.398983397937169	602.936650267353	4.62116010725754	16.5327861830342	0.5932933787462	-0.613675014974712	-0.00336677167408039	0.0144527524677616
0.33	-1.12477027298317	0.458232881622016	603.896040675995	4.59911908669602	16.5245674117366	0.603521576010184	-0.624636101378024	-0.00342066817037556	0.0143964116969422
0.34	-1.12473010624533	0.490031692374104	604.606855209098	4.57782778383067	16.516535457748	0.610329101190165	-0.632217104361776	-0.00347026654069282	0.0143514251491011
0.35	-1.20550725221081	0.484340644059572	604.926705292127	4.55921782967867	16.5067556245541	0.614252670199183	-0.636520180942489	-0.00351047877944088	0.0143212196116255
0.36	-1.33224336567579	0.436182298104742	604.783789489632	4.54573907836075	16.4942916358519	0.616642006262776	-0.638504034766098	-0.003536269184929	0.0143076895685066
0.37	-1.46755491395493	0.349463276180141	604.186797219642	4.54008394234743	16.4801501523452	0.618936651773927	-0.639440369094542	-0.00354325024147362	0.0143122756286823
0.38	-1.58121297673252	0.238219319648892	603.221447985899	4.54452171599689	16.4676208834027	0.622048339750439	-0.640402665149938	-0.00352874621518562	0.0143366511010486
0.39	-1.65698032674926	0.124459389820076	602.035411276982	4.56006426373945	16.4618671802034	0.626062375981847	-0.641958230947777	-0.003492979557284	0.014382701952417
0.4	-1.69482498222424	0.0329688483150266	600.814872753667	4.58578116455824	16.4688444166343	0.630342617984423	-0.644145129928164	-0.00343989546296375	0.014451784709935
0.41	-1.70812068596039	-0.015439790044833	599.756488099723	4.61854625443542	16.4938290851292	0.633964553385385	-0.646697445260958	-0.00337720747137593	0.0145435653738987
0.42	-1.71695669825429	-0.0100713023140049	599.038266338204	4.65334376184124	16.5399665037088	0.636268947592111	-0.649380090585512	-0.00331550125486868	0.0146549568065367
0.43	-1.73983683393223	0.0462170504600745	598.792586361149	4.68405743878951	16.6072503750736	0.637277249432079	-0.652249905498815	-0.00326657059914026	0.0147796929682791
0.44	-1.78648990073895	0.137601896101	599.084416200194	4.70449763313963	16.6922314893966	0.637763984894329	-0.655694575241097	-0.00324143735481852	0.0149088877515182
0.45	-1.85411036705968	0.239929737687493	599.897823568058	4.70935835856437	16.7885508304511	0.6389242444487	-0.66020461461667	-0.00324860934955362	0.0150325857995697
0.46	-1.92823152431373	0.328089395200909	601.133658059868	4.69485976216274	16.8881646322569	0.641751461328764	-0.665964948660066	-0.00329301754327638	0.0151419417012263
0.47	-1.98794556444969	0.383876331423232	602.62039965234	4.6589846231565	16.9829423191988	0.646379312510065	-0.672454496830475	-0.00337580170253737	0.0152313951206809
0.48	-2.0137698409628	0.401905120210623	604.138372369992	4.60138536742591	17.0662254774667	0.651681063791415	-0.678266191228716	-0.00349480677865366	0.0153001415247895
0.49	-1.99553932645978	0.391717957183056	605.45496694324	4.52314330088592	17.1339599080998	0.655338350958434	-0.681288952245405	-0.00364544292421654	0.0153523616488556
0.5	-1.93757574033914	0.375402929375278	606.365726721029	4.42656242910019	17.185140635083	0.654417816867057	-0.679251752386901	-0.00382152909612954	0.0153960206962323
0.51	-1.85912798131912	0.381381053229428	606.733880761815	4.31508797525509	17.2214996158458	0.64629630979417	-0.670475475796261	-0.00401587404187032	0.0154404740561347
0.52	-1.78952753616917	0.436126116546494	606.519930201973	4.19331029824828	17.2465624762278	0.629632588046489	-0.654576816618305	-0.00422056411912242	0.0154934905421663
0.53	-1.75924814857334	0.556139691179813	605.793782854193	4.06691775864575	17.2643527463511	0.605052107760217	-0.632864852023937	-0.00442711236877269	0.0155585144248724
0.54	-1.78954552947813	0.742397051180927	604.724862041216	3.94244581310335	17.2780957534952	0.575302046502608	-0.608268534025932	-0.00462669371031277	0.015632969498643
0.55	-1.88404737340626	0.9787801448903	603.550218593801	3.82674062551984	17.2892574924743	0.544808611978786	-0.584792956622153	-0.00481062785104824	0.0157081606947145
0.56	-2.02525675986683	1.2349360491628	602.526000670092	3.72617776191625	17.2971552526761	0.518760406340264	-0.566660427520108	-0.00497112178125436	0.0157709120374807
0.57	-2.1774840417127	1.47283409349638	601.872308636941	3.64579111688211	17.2992224866022	0.501981746379942	-0.557389465963051	-0.00510213184970876	0.0158066029596736
0.58	-2.29568137623575	1.65534040492172	601.724032665203	3.58852139387593	17.2918390322014	0.497905106078916	-0.559069210489217	-0.00520012766929268	0.0158028607759164
0.59	-2.33771308969373	1.75462724336311	602.099695365363	3.5547660635814	17.2714943286613	0.507897166465195	-0.572004902997216	-0.00526456629018013	0.0157529584391253
0.6	-2.27643868929855	1.75831541303983	602.896402926363	3.54232309669072	17.2359761957074	0.531068538052273	-0.594780596500913	-0.00529798594522857	0.0156580285669751
0.61	-2.10802499240911	1.6718871582546	603.912605829995	3.54671647743075	17.185292696852	0.564553158079492	-0.624660070888148	-0.00530573651003241	0.0155275310005142
0.62	-1.85411324645161	1.51692119379889	604.893249223535	3.56182101637233	17.1221306339322	0.604128993342908	-0.658169891875506	-0.0052954154209619	0.0153779033144043
0.63	-1.55739232304669	1.32579348801385	605.586191851466	3.58068898063102	17.0517917649648	0.64499775565604	-0.691698663863256	-0.00527605557968369	0.0152298162717411
0.64	-1.27207270454886	1.13433726680132	605.796253283429	3.59650455508814	16.9816725527829	0.682551317765051	-0.721993368539379	-0.00525705753444683	0.0151047781521813
0.65	-1.05205917370563	0.974331264231598	605.42462514901	3.60361074791292	16.9204219995205	0.713005495534183	-0.746505349506232	-0.00524684768817718	0.0150218803861181
0.66	-0.939918645005494	0.867523493245004	604.486029125085	3.59852779542127	16.8769145730605	0.733845042870188	-0.763598171533779	-0.00525133463188587	0.014995265588188
0.67	-0.959081382442566	0.822317577286206	603.102217230091	3.58080807333812	16.8591373939806	0.744068610230517	-0.772652790709219	-0.00527241726616812	0.0150325507530545
0.68	-1.11049162240885	0.833486937059296	601.476100040299	3.5534915541369	16.8730579560129	0.744237532438532	-0.774090397922841	-0.00530698293107457	0.0151341238916417
0.69	-1.37366318844253	0.884585381496137	599.854309447413	3.52290697082952	16.9215473098417	0.736326581459158	-0.769299622186703	-0.00534689269537258	0.0152930864650381
0.7	-1.7112114670101	0.952250398948525	598.486728319712	3.49766348724954	17.0034890169239	0.723370553512578	-0.760432114949941	-0.00538028671284929	0.0154956716747671
0.71	-2.07557299849097	1.0113842331114	597.589931323048	3.48689937409039	17.1132744053418	0.708919147956586	-0.750042062818476	-0.00539415588847703	0.0157221534196363
0.72	-2.41667082241449	1.04019529635635	597.318778587043	3.49813180666823	17.240915373923	0.696360167628581	-0.740594330521337	-0.00537763964491689	0.0159484275221254
0.73	-2.68949149958148	1.02421685988309	597.747870366662	3.53526994187457	17.3729485503612	0.688231887720394	-0.733932811789309	-0.00532512753780479	0.0161484584737339
0.74	-2.86070688119366	0.958650940406118	598.863015008064	3.59739854249305	17.4941447319787	0.68568763849153	-0.730850435292257	-0.00523815955044049	0.0162975845235145
0.75	-2.91354896007963	0.84870317476976	600.5623739162	3.67875903434245	17.5898099085755	0.688267784062887	-0.730902986724082	-0.0051254218776039	0.0163763185604383
0.76	-2.85021875910721	0.707960601976566	602.667024056498	3.76999227846684	17.6482442501153	0.69406437972504	-0.732548833806278	-0.00500074253401306	0.0163739217850146
0.77	-2.69131338847626	0.555256338529466	604.94060963557	3.86029208081036	17.6628004702707	0.70024977666394	-0.733593393559642	-0.00487968028128838	0.0162908374451785
0.78	-2.47215861931175	0.410763095916054	607.117040267178	3.93981387097046	17.6330149876689	0.703824736519896	-0.731811456497362	-0.00477579480993651	0.0161391743240351
0.79	-2.23649102203799	0.292169906735625	608.933804636264	4.00161402323215	17.5644832455362	0.702371624094659	-0.72555723039052	-0.00469777954482509	0.015940834675839
0.8	-2.0285027616748	0.211692345892758	610.166850205361	4.04259112603004	17.4674636955651	0.69460327890296	-0.714178723771056	-0.00464828942633344	0.0157234798396733
0.81	-1.8846761677615	0.174395027447885	610.661816942472	4.06327989118174	17.3545299306465	0.680575425680662	-0.69812694328882	-0.00462464882226399	0.0155151308868529
0.82	-1.82696990112493	0.177970538321081	610.356302830141	4.06675537737207	17.2378438459049	0.661547040039422	-0.678759885079535	-0.00462094572646077	0.0153386144340876
0.83	-1.85872818885266	0.213828662134077	609.289018310237	4.05717840150893	17.1267162197516	0.639582054280238	-0.657941713844426	-0.00463057793048693	0.0152071488732187
0.84	-1.96419907794522	0.269166236454917	607.593944519697	4.0385550794781	17.0260270580444	0.617047757669207	-0.637591108412354	-0.00464827331890216	0.0151220924558648
0.85	-2.11185093079735	0.3296105158902	605.480391402999	4.01409833291662	16.9358274839087	0.596164282128951	-0.619324232966792	-0.00467094626922882	0.0150733223944871
0.86	-2.26089030936962	0.382011632446792	603.202470055764	3.98626296364754	16.8521167005023	0.578706896109503	-0.604278346218912	-0.00469730789474199	0.0150420467808722
0.87	-2.36966365562061	0.416953530928107	601.023337029569	3.95721934808311	16.7684820429462	0.565887957914097	-0.593121345902137	-0.00472667904845681	0.0150052624580141
0.88	-2.40414606500795	0.430545687921893	599.180240146664	3.92935862110632	16.6780967824864	0.558380685164777	-0.586184128863161	-0.00475775036388659	0.014940726687191
0.89	-2.34464268867251	0.425089559384766	597.855788768701	3.9054448409464	16.5755391926139	0.556413912389198	-0.583620276356484	-0.00478799149068498	0.014831294749618
0.9	-2.18923076796631	0.408350998160048	597.159193111783	3.8882247446321	16.4580232491312	0.559870016794589	-0.585507685240283	-0.00481407092101183	0.0146677720101273
0.91	-1.95329051712002	0.391453949492311	597.118951147742	3.87958292242288	16.3258610747055	0.568346262395663	-0.591848771814633	-0.00483316315787918	0.0144499230610494
0.92	-1.6654933156192	0.385805266164343	597.686246991188	3.87957045026804	16.1822240435884	0.581174613620965	-0.602478656539148	-0.0048445957461718	0.0141857997908625
0.93	-1.36152150179006	0.399838675281044	598.74675054171	3.88573849075231	16.0324479971423	0.597420220025038	-0.616932189315476	-0.00485109686181195	0.013889924599302
0.94	-1.0772892705449	0.43655441162138	600.137896596979	3.89313318516985	15.8831847897477	0.615886641011738	-0.634336547384425	-0.00485901833441327	0.013580989333308
0.95	-0.84336073505809	0.49269535694893	601.66900861603	3.89508457989932	15.741634941176	0.635149162991836	-0.6533847053735	-0.00487727913080849	0.0132796025033177
0.96	-0.681665414829479	0.559926786512194	603.142420535993	3.88463834955504	15.6149514093836	0.653625466475308	-0.672415822220854	-0.00491525117455016	0.0130063329355389
0.97	-0.604724388381814	0.62771171340669	604.37451265505	3.85624356131894	15.5097563213101	0.669684303063913	-0.689595865539197	-0.00498020752246831	0.0127800054903741
0.98	-0.616745778147392	0.686942695082948	605.215899681875	3.80720891077652	15.4316294636365	0.681790446759566	-0.703167093985648	-0.00507512539567478	0.0126160393005146
0.99	-0.715421938283985	0.733060105924612	605.569745474114	3.73850541284661	15.3844449878367	0.688683254407681	-0.711722246607087	-0.005197529322709	0.0125246497996715
1	-0.893231493069051	0.767513106812406	605.406478811087	3.65469446806574	15.3695416632103	0.689578853961997	-0.714455563805486	-0.00533972502214641	0.0125089423563717
1.01	-1.13751112727156	0.796985757839486	604.772413530058	3.56302004500367	15.3848641791479	0.684368599362837	-0.71134358875298	-0.0054903420133815	0.0125632121398504
1.02	-1.4293406336732	0.830620940681592	603.789397784618	3.47193302484072	15.4243421273975	0.673764488042319	-0.703213055092415	-0.00563672359274636	0.0126720001337163
1.03	-1.74208958339141	0.876224944239765	602.643061817973	3.38944563745179	15.4778195587392	0.659328967437442	-0.691664405420488	-0.00576749376862185	0.0128105187786719
1.04	-2.04098359169179	0.936833924399967	601.558754136963	3.32171718729587	15.5317792404975	0.643335547595333	-0.678841661810272	-0.00587463877062888	0.0129468865566952
1.05	-2.28501704289718	1.00891060046633	600.766775816568	3.27216609636528	15.5709289727064	0.628443239721451	-0.667072403637428	-0.0059546368892015	0.0130462135224226
1.06	-2.4319002406072	1.08285603197103	600.461542290266	3.24123539912452	15.580478161154	0.617224608572157	-0.658438979852469	-0.00600847198512067	0.0130760574582727
1.07	-2.44564907482917	1.14569147346265	600.761950981361	3.2267655522777	15.5487029609913	0.61164552902461	-0.654372230810873	-0.00604067295843802	0.0130122805806447
1.08	-2.30527307667732	1.1850048816292	601.681513665752	3.2247950323968	15.4692537816046	0.612631181956108	-0.655369042073776	-0.00605775061152913	0.0128440489104675
1.09	-2.01223578321829	1.19284447798655	603.115978827741	3.23053962682116	15.3426550417984	0.619847995057426	-0.660915408566726	-0.0060665085309648	0.0125767525697303
1.1	-1.5942878053761	1.16831090627396	604.853086453626	3.23929869428745	15.1765974743833	0.631778533765964	-0.669646033486814	-0.00607267926074428	0.0122320105651795
1.11	-1.10399410650293	1.11809336329097	606.60439462025	3.24709044143671	14.9848923475705	0.646078054356486	-0.679700895147394	-0.00608020406587728	0.0118445685068685
1.12	-0.611585567697503	1.05490345424172	608.054032531281	3.25091153384461	14.7852695092349	0.660107891339344	-0.689172125852897	-0.00609127335181758	0.0114566228678662
1.13	-0.193248079677195	0.994415276186986	608.915198826317	3.24862879188588	14.5964674424066	0.671480192294009	-0.696499546783199	-0.00610702262836493	0.0111107026313391
1.14	0.0828293345225605	0.951703859916951	608.983357229835	3.23861780087175	14.4352098098389	0.678449540945152	-0.700690769232739	-0.00612858740278999	0.0108425434495129
1.15	0.169715678524104	0.938193950342316	608.175822106045	3.21933706586061	14.3136554677472	0.680053495662526	-0.701311449343768	-0.0061581102840903	0.0106753325233956
1.16	0.051477004305423	0.959834366745497	606.55042951971	3.18904224225744	14.2377624427876	0.676009904328194	-0.69828770914994	-0.00619930213411501	0.0106163285659108
1.17	-0.252713480427888	1.01674730669686	604.300314186621	3.14579310324358	14.2067753559384	0.666478330017058	-0.691644813786368	-0.00625729259292584	0.0106563019347395
1.18	-0.691063224847144	1.10414631639246	601.726295972942	3.08779988239119	14.2138023679655	0.651841517577485	-0.681335628370436	-0.00633772816268363	0.0107716610416924
