Time [s]	GRFml [N]	GRFap [N]	GRFv [N]	Mml [N.m]	Map [N.m]	Mv [N.m]	Mfree [N.m]	COPml [m]	COPap [m]
0.01	10.3172444916824	-15.0809796522325	640.832183632029	-48.8462964507273	4.64027536598249	1.06682541688416	1.96250465911068	-0.00041015103671816	-0.000141992286461556
0.02	11.0411363801506	-14.9426882532817	639.686461194832	-48.847701920251	4.51007689592807	0.976626250941431	1.92518027078264	-0.000599725821156271	-3.03762937792218e-06
0.03	11.7515091583487	-14.80788933755	638.585047460979	-48.8515538902477	4.3819263827838	0.888333440258528	1.88902404897759	-0.000786844425090013	0.000134221506516527
0.04	12.4352707749456	-14.6797817084885	637.553808957097	-48.8584963954355	4.25812123377456	0.803686285773924	1.85480411416999	-0.00096816688447456	0.000267705056679127
0.05	13.0802461479216	-14.5615236838054	636.615521704191	-48.8688570360124	4.14087691398659	0.72432399119234	1.82323992857945	-0.00114042945679131	0.000395224897649274
0.06	13.6756475047331	-14.4561116546913	635.788690861802	-48.8825920797072	4.03225262686635	0.651721311721287	1.7949747036772	-0.0013005502118037	0.000514539426481581
0.07	14.2124726172277	-14.3662554761088	635.086596457954	-48.8992640742172	3.93408152767309	0.587130755945189	1.77055047521187	-0.00144573220670527	0.000623430101969011
0.08	14.6838116691943	-14.2942558455705	634.516629490371	-48.9180561421914	3.84790828786236	0.531534080533747	1.75038685961431	-0.00157356038582997	0.000719798804322727
0.09	15.0850496275793	-14.2418895405535	634.07996566153	-48.9378239406074	3.77493665315216	0.48560535904684	1.73476433564519	-0.00168208799114929	0.000801782229357798
0.1	15.4139576431241	-14.2103088401535	633.771603350288	-48.9571829356968	3.71598931904324	0.449687331024681	1.72381269695429	-0.0017699081340774	0.000867877100076075
0.11	15.6706736727136	-14.1999615520167	633.580769373268	-48.9746254614223	3.67148198520174	0.423782077693308	1.71750511581201	-0.00183620638892702	0.000917067979163577
0.12	15.8575787315394	-14.2105377215256	633.491672126423	-48.9886592581268	3.64141286071485	0.407556362924686	1.715658063367	-0.00188079090448118	0.000948948075037995
0.13	15.9790805636647	-14.2409482702482	633.484558432186	-48.9979570536495	3.62536820549375	0.400361261556117	1.7179371561467	-0.00190409760124375	0.000963822780584739
0.14	16.0413207796066	-14.2893394892408	633.537009484243	-49.0015054248869	3.62254374867393	0.401265009986169	1.72386883949291	-0.00190716945374145	0.000962785852786197
0.15	16.0518244746105	-14.3531455400462	633.625394217539	-48.998740773319	3.63178106844983	0.409097391146204	1.7328576634788	-0.00189161050119193	0.000947759170640369
0.16	16.019112948214	-14.4291789788379	633.726386556935	-48.9896608033201	3.65161729698646	0.422503437572992	1.74420873758035	-0.00185951688984437	0.000921488879249949
0.17	15.9523004339177	-14.513756946939	633.818447309951	-48.9749013743899	3.68034587435252	0.44000382633019	1.75715475067302	-0.00181338872114651	0.000887493354703339
0.18	15.8606948430579	-14.6028582288092	633.883172547477	-48.9557709047933	3.71608555654383	0.460059065125495	1.77088670541048	-0.0017560275873922	0.000849961650448622
0.19	15.7534206198837	-14.6923040543837	633.906418263364	-48.9342374684762	3.75685451566946	0.481134440316789	1.7845872476983	-0.00169042530956316	0.000813604685321878
0.2	15.6390791268912	-14.7779535114478	633.879125515833	-48.9128671324297	3.80064617560564	0.501762717800569	1.79746519614413	-0.0016196495198	0.000783465124792368
0.21	15.5254587793543	-14.8559029201064	633.797790233287	-48.8947156755593	3.84550341247967	0.520601753498053	1.80878963053135	-0.00154673140206187	0.000764695377047805
0.22	15.419303670467	-14.9226776612568	633.664546075323	-48.8831793436613	3.88958791297669	0.536484471385352	1.81792172797183	-0.00147456023084883	0.000762316059809767
0.23	15.3261458973878	-14.9754048549512	633.486855486311	-48.8818134629741	3.93124181036302	0.548459087919461	1.82434248501069	-0.00140578847649798	0.000780969409848217
0.24	15.2502034047001	-15.0119560051382	633.276831445071	-48.8941303152582	3.96903918444232	0.55581798111443	1.82767456771275	-0.00134275032675934	0.000824683185733782
0.25	15.1943420568512	-15.0310502509669	633.050238397173	-48.9233894708395	4.00182558606143	0.558114194624765	1.82769680520966	-0.00128739563144393	0.000896660523857409
0.26	15.1600979450327	-15.0323111105396	632.825243525917	-48.9723946402192	4.02874439281776	0.555165202487567	1.82435027736982	-0.0012412405843998	0.00099910991974711
0.27	15.147753697232	-15.0162724269295	632.621007169394	-49.0433109657437	4.04924948129992	0.547044206573623	1.81773551199844	-0.00120533593073705	0.00113312710040821
0.28	15.1564608283534	-14.9843324329872	632.456212483317	-49.1375155324531	4.06310437352399	0.534059863018241	1.80810094858774	-0.00118025308832539	0.00129863720881282
0.29	15.1843989469277	-14.9386582098792	632.347638515978	-49.2554918057898	4.07036864459021	0.51672590308924	1.79582347820888	-0.00116608822478665	0.00149440170226735
0.3	15.2289619100391	-14.8820460771475	632.308877382822	-49.3967758461279	4.07137293284674	0.495722597473098	1.78138246308609	-0.00116248394667821	0.00171808999338713
0.31	15.2869607563051	-14.8177463768455	632.34928545936	-49.5599587069152	4.06668434709981	0.471852384281029	1.76532911150964	-0.00116866776601318	0.00196641148315858
0.32	15.3548334046216	-14.7492634836229	632.473241264352	-49.742745638524	4.05706439926534	0.445992219518682	1.74825338601261	-0.00118350588232179	0.00223529959020356
0.33	15.4288516337297	-14.680143512224	632.679760284919	-49.9420688628224	4.04342179522558	0.419045301035214	1.73075072853336	-0.00120557008269997	0.00252013597050368
0.34	15.5053167007702	-14.6137629863889	632.962491094051	-50.1542470286313	4.02676248994637	0.39189475828465	1.71339079306124	-0.00123321479673038	0.00281600058536843
0.35	15.5807360607747	-14.5531316267528	633.310089674849	-50.3751812658208	4.0081393616437	0.365361694918567	1.69669010444974	-0.00126466066147111	0.00311793176996331
0.36	15.6519749582343	-14.5007214263467	633.70694194004	-50.6005752527645	3.98860369759973	0.340169632725264	1.68109015064749	-0.00129808047390995	0.00342118005113648
0.37	15.7163781215354	-14.4583323919247	634.134180003755	-50.8261650756182	3.96916043038811	0.316916955663565	1.66694191521083	-0.00133168323005384	0.00372144014856987
0.38	15.7718583464671	-14.4270028750337	634.570917595468	-51.0479440035609	3.95072874080426	0.296058420847198	1.65449732209885	-0.00136379211817364	0.00401504728052074
0.39	15.816950351532	-14.4069694793415	634.995615525337	-51.2623676765249	3.93410927744506	0.277896223792848	1.64390754620513	-0.00139291283575177	0.00429912643806055
0.4	15.8508298706044	-14.3976783188105	635.387480286519	-51.4665265724278	3.91995885704669	0.262580515494121	1.63522768210201	-0.00141778936681281	0.00457168649915504
0.41	15.8732994627829	-14.3978461343978	635.727798165832	-51.6582748898601	3.90877312663731	0.250118706654823	1.62842688838159	-0.00143744528182988	0.00483165470645033
0.42	15.8847439111046	-14.4055666693775	636.001113539223	-51.8363079864168	3.90087730699113	0.240392394969652	1.62340285045923	-0.00145120958637673	0.00507885089475382
0.43	15.8860592995368	-14.4184549496911	636.196172739303	-52.0001840379556	3.89642481099364	0.2331803449111	1.61999923347127	-0.00145872703929739	0.00531390468662718
0.44	15.8785608544235	-14.4338198791148	636.306572920619	-52.1502893802521	3.89540324967162	0.228185659154993	1.61802472291136	-0.00145995360989928	0.00553812244521816
0.45	15.8638753728472	-14.4488539628509	636.331077266706	-52.2877507952079	3.89764710739597	0.225065121013594	1.6172722629187	-0.0014551383109199	0.00575331386873904
0.46	15.8438245070304	-14.460828095938	636.273581985164	-52.4143015451084	3.90285618655517	0.223458663135064	1.61753718811998	-0.00144479303404013	0.00596159054644234
0.47	15.8203053147703	-14.4672792265881	636.142745015968	-52.5321109984463	3.91061878799261	0.223017025005428	1.61863309286314	-0.00142965226205962	0.00616515042717579
0.48	15.7951743196301	-14.4661793156182	635.951309457587	-52.6435900265778	3.92043850170915	0.223425887545054	1.62040448146502	-0.00141062468656668	0.00636606288373606
0.49	15.7701408655855	-14.4560753057948	635.715174784599	-52.7511858319395	3.93176342675855	0.22442509708338	1.62273548586993	-0.00138873887164741	0.00656606885097454
0.5	15.7466748287144	-14.4361916963827	635.452284659907	-52.8571804082127	3.94401661403039	0.225821987416484	1.62555421393276	-0.00136508520856662	0.00676640939481889
0.51	15.7259328066504	-14.4064896652062	635.181410575639	-52.9635064103935	3.95662652593767	0.227498248208246	1.62883259170134	-0.00134075651665553	0.0069676941144011
0.52	15.7087057990398	-14.3676793468563	634.920915156292	-53.0715928747352	3.96905632997056	0.229410240118503	1.63258187279354	-0.0013167897505245	0.00716981812579076
0.53	15.6953901805196	-14.3211847005291	634.687577637551	-53.1822510830342	3.98083088799072	0.231583092063711	1.63684428985933	-0.0012941113414523	0.00737193320320084
0.54	15.6859825163134	-14.2690632180377	634.495557135218	-53.2956080728127	3.99156037170971	0.234099307147476	1.64168159681667	-0.00127348868845552	0.00757247517260402
0.55	15.6800975431157	-14.2138853692414	634.355557561701	-53.4110920538242	4.000959530659	0.237082928762787	1.64716147446429	-0.00125549017984114	0.00776924608914481
0.56	15.6770074937455	-14.1585810089046	634.274242460447	-53.5274705252408	4.00886176690466	0.240680560596015	1.65334292606207	-0.00124045583905119	0.0079595463076913
0.57	15.6756999348855	-14.1062618476732	634.253929853667	-53.6429384281663	4.01522733554477	0.245040683587923	1.66026185791125	-0.00122848024039968	0.00814034848233573
0.58	15.6749504552683	-14.0600304208739	634.29257779118	-53.7552504381907	4.02014519497808	0.250292765740896	1.66791801460937	-0.00121940874667407	0.00830850298237874
0.59	15.673405918126	-14.0227867064363	634.384052013462	-53.8618887037026	4.0238282764953	0.256527619680676	1.67626432059355	-0.00121284742005882	0.00846096232625652
0.6	15.6696735962398	-13.9970436184551	634.518649278652	-53.9602551341985	4.02660222522903	0.263780336287082	1.6851994798676	-0.00120818620485724	0.00859501110246666
0.61	15.6624113487626	-13.9847620440833	634.683834559799	-54.047875861653	4.02888797522153	0.272016923173215	1.69456442441938	-0.00120463423566414	0.00870848751193992
0.62	15.6504140736258	-13.987214942393	634.865138367585	-54.1226048102563	4.03117884641824	0.281125520210879	1.70414290517023	-0.00120126544493727	0.00879998312747492
0.63	15.6326919656272	-14.004888359887	635.047152487802	-54.1828134366171	4.03401317209225	0.290912768486571	1.71366621652917	-0.00119707207496553	0.00886900867811483
0.64	15.608536607681	-14.0374251397916	635.214558733906	-54.2275546141644	4.03794375933917	0.301105592520852	1.72282176461651	-0.00119102327139601	0.00891611554731306
0.65	15.577571593671	-14.0836147317125	635.353125895571	-54.2566902557166	4.04350572898991	0.311358336367614	1.73126495275536	-0.00118212566383599	0.00894296510917478
0.66	15.5397851927798	-14.1414299773834	635.450614630562	-54.2709744810647	4.05118445142071	0.321264889080373	1.73863368080639	-0.00116948272645128	0.00895234087737939
0.67	15.4955434797169	-14.2081091946463	635.497538079172	-54.2720867951728	4.06138537143555	0.330375158738853	1.74456464304181	-0.0011523497531253	0.00894810154861246
0.68	15.4455833326403	-14.2802794408957	635.487736774797	-54.2626126796736	4.07440748454655	0.338215019053778	1.74871055935756	-0.00113018146949029	0.00893507621770115
0.69	15.3909856986955	-14.3541146358962	635.418739155807	-54.2459720381706	4.09042208225181	0.344308668063616	1.75075747655562	-0.00110266962936825	0.0089189061536683
0.7	15.3331305033504	-14.4255203746148	635.291892769805	-54.2262988974668	4.10945812805495	0.34820221132133	1.75044131601831	-0.00106976839746869	0.00890584038896408
0.71	15.2736354919988	-14.4903358564806	635.112265221936	-54.2082784859393	4.13139527119095	0.349487216140522	1.74756290661087	-0.00103170589405547	0.00890249483698696
0.72	15.2142821003467	-14.5445424673616	634.888327232768	-54.196950140257	4.15596507234758	0.347822980106732	1.74200081504102	-0.000988980957283333	0.00891558658712269
0.73	15.1569321165635	-14.5844682163149	634.631442119846	-54.1974863130109	4.18276053336186	0.342956314769283	1.73372136320156	-0.000942344944418342	0.00895165633316894
0.74	15.10343939007	-14.606977462999	634.355196017784	-54.2149591799176	4.21125352404698	0.334737760437287	1.72278530238561	-0.000892769213705243	0.00901679250678281
0.75	15.0555611317516	-14.6096361553369	634.074610777893	-54.2541069256463	4.24081921905373	0.323133314374974	1.70935070251812	-0.000841399762576168	0.0091163705877874
0.76	15.0148734180125	-14.5908440827767	633.805286477123	-54.3191117091387	4.27076622997592	0.308230964599229	1.69367171929628	-0.000789501293242088	0.00925482026271289
0.77	14.9826953446324	-14.5499273636175	633.562522714816	-54.4134005961966	4.30037077273962	0.290241565529116	1.67609303285502	-0.000738393674453084	0.00943543165476486
0.78	14.9600258742244	-14.4871864281747	633.360467429828	-54.5394794561684	4.32891297117601	0.269493859326308	1.65703991533014	-0.000689384307861548	0.00966020983963874
0.79	14.9474967932037	-14.4038970195012	633.211339004271	-54.6988080364007	4.35571327985519	0.246423726493153	1.63700408313323	-0.000643700234284216	0.00992978440790798
0.8	14.9453443634014	-14.3022640872115	633.124762213382	-54.8917222607333	4.3801670188926	0.221558029339281	1.61652571712445	-0.000602423888298082	0.0102433780733242
0.81	14.9534012560636	-14.185330773491	633.107251495598	-55.1174073701073	4.40177514742155	0.195493680402373	1.59617227649848	-0.000566436209080639	0.0105988354082231
0.82	14.9711092413017	-14.0568468654599	633.161866471944	-55.3739229658335	4.42016964905532	0.16887281317866	1.57651496965178	-0.000536370347333869	0.010992709868692
0.83	14.9975519349648	-13.9211030092424	633.288055095403	-55.6582784618062	4.43513224290921	0.142355143486049	1.55810395309787	-0.000512578506308319	0.0114204045065576
0.84	15.0315057467753	-13.7827385607291	633.481689732954	-55.9665550279581	4.44660554294381	0.116588776177025	1.54144348287416	-0.000495113578299202	0.0118763592945987
0.85	15.0715061020673	-13.6465321198618	633.735291352581	-56.2940679293085	4.45469623815454	0.0921808246309501	1.52696832088833	-0.000483726263960898	0.0123542759385527
0.86	15.1159250970664	-13.5171845161835	634.038427272057	-56.6355613327946	4.45967032647267	0.0696692619451187	1.51502268774367	-0.000477877376578435	0.0128473695113273
0.87	15.1630560596707	-13.3991042636392	634.378259071493	-56.9854262475959	4.46194087660653	0.0494974075206192	1.5058429500182	-0.000476764120784961	0.0133486352867951
0.88	15.2112000763143	-13.2962052848558	634.740209690547	-57.3379313412531	4.46204918731129	0.0319923678954321	1.4995450404822	-0.000479358365816816	0.0138511188030944
0.89	15.2587494446221	-13.211726042637	635.108712791106	-57.6874559665224	4.46064053979631	0.0173485964114355	1.49611735041805	-0.000484454356868538	0.0143481774427887
0.9	15.3042632332463	-13.148078150714	635.468003474099	-58.0287148503419	4.45843597886449	0.00561751635162677	1.49541952688358	-0.000490722948912146	0.0148337226389788
0.91	15.3465306630451	-13.1067311241115	635.80290762518	-58.356964519026	4.45620170126952	-0.00329612590853889	1.49718728045516	-0.000496769305155308	0.0153024331308491
0.92	15.3846188331983	-13.0881382418781	636.09958766331	-58.6681826210475	4.45471767211842	-0.0096308360494155	1.5010429861917	-0.000501191056314427	0.0157499314023525
0.93	15.4179023471945	-13.091706611383	636.346205301559	-58.9592127963379	4.45474703536159	-0.0137578902246696	1.50651156408793	-0.000502634132704463	0.0161729174293193
0.94	15.446073575937	-13.1158125306707	636.533466995668	-59.2278695453127	4.45700774224584	-0.0161641821508405	1.51304087120352	-0.000499843818672147	0.0165692560095714
0.95	15.469133546892	-13.1578612337416	636.655024811283	-59.4729995726886	4.46214760698473	-0.0174291482268107	1.52002563558262	-0.000491708999192285	0.0169380161334055
0.96	15.4873646829675	-13.2143881632894	636.707714106277	-59.6944982110724	4.47072373049093	-0.0181968561150168	1.52683381574364	-0.000477298038502124	0.017279462951427
0.97	15.5012877480372	-13.2811971327635	636.691619195123	-59.893281653151	4.48318693160535	-0.0191446291736526	1.5328341782623	-0.000455885225288784	0.0175950048111903
0.98	15.5116063108305	-13.3535291933555	636.609968431288	-60.071217727009	4.49987151213729	-0.0209497973826043	1.5374238466904	-0.000426967219999116	0.0178870994816101
0.99	15.5191427516714	-13.4262547787631	636.468870240215	-60.231019733261	4.52099037750077	-0.0242562985601631	1.54005458407011	-0.000390269433371627	0.0181591250067324
1	15.5247702615014	-13.4940808134299	636.276910873373	-60.3761093371729	4.54663525683541	-0.0296428899876013	1.54025662572208	-0.000345742738090097	0.0184152215957786
1.01	15.5293453952043	-13.5517639724641	636.044642386423	-60.5104556064395	4.57678153002344	-0.0375946642006473	1.53765897726315	-0.000293551352095612	0.018660111557252
1.02	15.533645539873	-13.5943211878119	635.783995022082	-60.6383979636605	4.61129698479772	-0.0484793945543491	1.53200523449672	-0.000234053113589483	0.0188989045372378
1.03	15.5383151647685	-13.6172287991645	635.507651399689	-60.764461067398	4.64995370167902	-0.0625299741460581	1.52316416657565	-0.000167773672450686	0.0191368952612212
1.04	15.5438239760749	-13.6166024232209	635.228420467779	-60.8931694608336	4.6924421998606	-0.0798338704760533	1.51113453002407	-9.53763292520756e-05	0.0193793606547976
1.05	15.5504391667761	-13.5893506169857	634.958647065939	-61.0288692728813	4.73838697123071	-0.100330118403033	1.49604384440453	-1.76293443560479e-05	0.0196313626906753
1.06	15.5582129036378	-13.5332966803815	634.709688389311	-61.1755633864404	4.78736257660717	-0.123813940546555	1.47814115228446	6.4627492385675e-05	0.0198975626399044
1.07	15.5669851097568	-13.4472644100921	634.491482075691	-61.3367653829395	4.83890956904895	-0.149948644989248	1.45778409388257	0.000150515392053767	0.0201820516546756
1.08	15.5764005629128	-13.3311252030128	634.312222627347	-61.5153763225997	4.8925496327591	-0.178284033232265	1.43542093339289	0.000239146811518063	0.0204882018318413
1.09	15.585938410806	-13.1858055347173	634.178154133421	-61.7135871200674	4.94779947037993	-0.208280183665183	1.41156845950439	0.00032965235469084	0.0208185411433287
1.1	15.5949514652471	-13.0132554292886	634.093478515215	-61.9328080146556	5.00418312399583	-0.239335180693184	1.38678692592982	0.000421203638337055	0.0211746549016988
1.11	15.6027121222597	-12.8163800217873	634.060370494042	-62.1736254910575	5.06124256421326	-0.270815155402274	1.36165337885973	0.000513031798112983	0.0215571157721152
1.12	15.6084614876674	-12.5989376340226	634.079083809327	-62.4357860400849	5.11854651711782	-0.302084902227961	1.33673482073403	0.000604441645986845	0.0219654437483696
1.13	15.6114582714366	-12.3654088916876	634.148128380021	-62.7182053979332	5.17569761268485	-0.332537342530104	1.3125626727333	0.00069482176858983	0.0223980969710357
1.14	15.6110242332751	-12.1208422747097	634.264495408567	-63.0190013809031	5.23233802485372	-0.361620218131782	1.28960991811505	0.000783651062811971	0.0228524937617388
1.15	15.6065833853559	-11.8706820966457	634.423906973496	-63.3355481306792	5.28815383016333	-0.388858606830937	1.26827213876093	0.000870502335847157	0.0233250657543276
1.16	15.5976927425177	-11.6205852519524	634.621068339596	-63.664549471815	5.34287833835257	-0.41387214272879	1.24885340921369	0.000955043655694128	0.023811341494069
1.17	15.5840631057143	-11.376233164355	634.849904743171	-64.0021291092686	5.3962946466305	-0.436386177186994	1.23155770350334	0.00103703813330868	0.0243060593232408
1.18	15.5655691179715	-11.1431452389899	635.103769343131	-64.3439354995087	5.44823764307319	-0.456236508124279	1.21648612223817	0.00111634275907448	0.0248033077530516
