Time [s]	GRFml [N]	GRFap [N]	GRFv [N]	Mml [N.m]	Map [N.m]	Mv [N.m]	Mfree [N.m]	COPml [m]	COPap [m]
0.01	-0.788449430721793	0.0892024486524238	641.768538677616	-3.87429920683368	40.5482340682666	0.35101656260058	-0.35196009371868	0.000920048782442784	-0.00544619174926636
0.02	-0.644571940330438	-0.0763379158260588	641.987731158587	-3.89565696198672	40.35227919165	0.349060857923467	-0.340491248986599	0.000889210538406404	-0.00577541484822375
0.03	-0.505992919401803	-0.210613685951759	642.218063841991	-3.91194876732407	40.1674894029129	0.339243106890672	-0.323074531162438	0.000866067788916181	-0.00608811780069768
0.04	-0.37943030202433	-0.289002793109412	642.471817423927	-3.91565781718374	40.0049305084101	0.315025853105022	-0.2946695434866	0.000862176257973468	-0.00636809535053268
0.05	-0.273012163614556	-0.300051654498701	642.755024669841	-3.89572234788301	39.8751092832571	0.273320544912254	-0.25286382297663	0.000894637926841524	-0.00659949596470222
0.06	-0.195975080194185	-0.24719803028401	643.066655827558	-3.83882961514493	39.7867950776325	0.215171114325779	-0.198451093967371	0.000984102525216191	-0.0067685900673235
0.07	-0.157230397643095	-0.146545830440726	643.399025454516	-3.73302176201395	39.7453640511491	0.145470261605776	-0.135291002733734	0.00114916352559713	-0.00686637215108538
0.08	-0.162965040687478	-0.0218209156559806	643.738359617696	-3.57235009433713	39.7512642749333	0.0718657440357491	-0.0695369310263668	0.001399106807626	-0.00689096910218384
0.09	-0.213876553590308	0.101655694082154	644.064712746529	-3.36077400185907	39.7992164851459	0.00319498569032256	-0.00845415206242594	0.00172781577507808	-0.00684883088167076
0.1	-0.302972726275659	0.202175701701674	644.351254530836	-3.1136964557604	39.8785285534627	-0.0521523451580467	0.0408870438795048	0.00211134066279417	-0.00675412961748501
0.11	-0.414935972506552	0.264874767495002	644.563952275714	-2.85634265771449	39.9745687868	-0.0876015185000675	0.0727763235184935	0.00251038104483403	-0.0066264061295534
0.12	-0.527761412185927	0.282731254158875	644.663318607697	-2.61927747126592	40.0711548232058	-0.0992828709901657	0.0836979744820853	0.00287724117180765	-0.00648700982065725
0.13	-0.616750353457511	0.255842153632594	644.609732342682	-2.43230229825919	40.1534352951608	-0.086391233734194	0.0727503319324115	0.00316534515685907	-0.00635513744783012
0.14	-0.660144280763099	0.189842852825041	644.372727821455	-2.31844276983753	40.2107613046378	-0.0510782641645425	0.0416572738978315	0.00333865579013459	-0.00624428988722325
0.15	-0.644983552361935	0.0942339105702999	643.942862285629	-2.28960636983183	40.2390274004555	0.00200339400134624	-0.00556181365521972	0.00337852937558847	-0.0061598173996027
0.16	-0.571444785004901	-0.0190234776963947	643.342958919741	-2.34485674384577	40.2419914521124	0.0663847908877418	-0.0631732952408845	0.00328650532011254	-0.00609799963106894
0.17	-0.454132226072457	-0.136707485550003	642.634478855549	-2.47139442284742	40.231181481437	0.134600588834926	-0.124470189481368	0.00308285215325899	-0.0060468492857072
0.18	-0.31957383264791	-0.245608395641375	641.915128391471	-2.64757997065931	40.2242016703433	0.199071908048328	-0.182586452994394	0.00280186688942652	-0.00598854301836743
0.19	-0.200297953224236	-0.334067061658357	641.305744953694	-2.84693388698742	40.2415673419684	0.252981154582037	-0.231300637948869	0.00248556671502498	-0.00590307693054676
0.2	-0.126980172619294	-0.393682917442027	640.927628778707	-3.04207803708341	40.3025775283742	0.291054319408121	-0.265744672773592	0.00217739212587043	-0.00577246120008706
0.21	-0.120856146184233	-0.42079875290458	640.874871477223	-3.20794548134762	40.4210648177407	0.310155923694697	-0.282938326117839	0.00191700618760104	-0.00558458903366249
0.22	-0.188616044288891	-0.417249588396568	641.188693249859	-3.32406318206612	40.6020184508226	0.309612196944525	-0.282087172991579	0.00173655118810778	-0.00533592068404914
0.23	-0.321284669612376	-0.389996252364921	641.841311160563	-3.37607993543691	40.8399679571039	0.291214426378077	-0.264612553624012	0.00165815376504264	-0.0050323512311003
0.24	-0.497368497496913	-0.349593636968749	642.734974681976	-3.35683286713672	41.119632857162	0.258906932848709	-0.23391920543431	0.00169226366289355	-0.00468804661586281
0.25	-0.689228800969413	-0.307822772477871	643.717901615953	-3.26711742411712	41.418777648684	0.21821471138187	-0.194939277241316	0.0018365784391452	-0.00432253227575874
0.26	-0.87067276921301	-0.275088756597522	644.614077263995	-3.11606356858013	41.7126229846109	0.175498906243289	-0.153512398318498	0.00207567755117732	-0.00395676097019848
0.27	-1.02346999778986	-0.258256582674764	645.259790462549	-2.92079438986721	41.9787376711331	0.13713907293718	-0.115669782787453	0.00238181303131912	-0.00360913765374432
0.28	-1.14098029343298	-0.25945548667162	645.537760612687	-2.70499613818416	42.201213643803	0.108735900560404	-0.0868921944609248	0.00271736671164069	-0.00329245876061579
0.29	-1.22812663788051	-0.276094146666896	645.400459190065	-2.49621532959699	42.3731546900233	0.0944177115263406	-0.0714146445226759	0.0030392038764897	-0.00301243062008594
0.3	-1.29817379702969	-0.301993278623947	644.877468887785	-2.32206227389862	42.4970201854175	0.0963257268931902	-0.0716575919298612	0.00330461412746375	-0.00276795078656034
0.31	-1.3677410279974	-0.329255971661741	644.066288227473	-2.20589886742969	42.582990113433	0.11434518608305	-0.0878695483053998	0.00347794327851736	-0.00255281387569151
0.32	-1.45186547855358	-0.350331310259418	643.110283411085	-2.16285688447292	42.6460470429485	0.146133352177572	-0.118057801672868	0.003536630193271	-0.00235810850651907
0.33	-1.56064989754566	-0.359719727025059	642.170132825126	-2.19705633281492	42.7027278768484	0.187462459049971	-0.158251882595893	0.00347534024082008	-0.00217444035298037
0.34	-1.69823545473416	-0.354915457554513	641.395488725765	-2.30065568920576	42.7684086957234	0.232844505018523	-0.203086686686812	0.00330725556304368	-0.00199330076394333
0.35	-1.86387658846178	-0.336437679414125	640.902033034587	-2.45495207683629	42.8556098646753	0.276345714432784	-0.246620512315149	0.0030622137430788	-0.00180733996953708
0.36	-2.05413562723341	-0.307088348837252	640.756654411171	-2.63330187997928	42.9733176883615	0.312450878652174	-0.283240659553401	0.00278206731896724	-0.00160983258184394
0.37	-2.26492643036909	-0.270798211549148	640.971261797764	-2.80528467179898	43.1269254500876	0.336821870557115	-0.30848095115275	0.00251416558373507	-0.00139402392332288
0.38	-2.49238283823252	-0.231507165941836	641.50447030796	-2.94135897985925	43.3182611887307	0.34682081904486	-0.319596777889638	0.00230412573771455	-0.00115313666862105
0.39	-2.73216853706173	-0.192444016870137	642.270045662486	-3.01725621608658	43.5453303078829	0.341730193068643	-0.315809797428149	0.00218906229435778	-0.000881535740190287
0.4	-2.97760809180569	-0.155960368354874	643.151028256703	-3.01747752521814	43.8017584866054	0.322677014641458	-0.29822223767857	0.00219225729377226	-0.000576992773070995
0.41	-3.21761187309046	-0.123822451235991	644.018225051636	-2.93743672182314	44.0762856211761	0.292328509130477	-0.269476548645082	0.0023199702357366	-0.000243386719739391
0.42	-3.43557807925283	-0.0976771828415242	644.750945505363	-2.78399282782624	44.3528467106976	0.254451996978105	-0.233273484320604	0.00256076522252691	0.000107212633200793
0.43	-3.61021051502328	-0.0793599873477636	645.256714276527	-2.57432816371562	44.6116813203746	0.213421397859487	-0.193854049219532	0.00288739319428022	0.000454121455539302
0.44	-3.71856867998665	-0.0708164657212116	645.485910005821	-2.33335310485396	44.8315726030119	0.173722990173955	-0.155513464880549	0.00326091446651422	0.000769886850310486
0.45	-3.74086395021536	-0.0736171220380038	645.437609240718	-2.09004304667218	44.9928765151224	0.139487602367509	-0.122175194084057	0.00363640629831385	0.00102429288621042
0.46	-3.66579241811574	-0.0882611349222621	645.154716998403	-1.87329723607885	45.0806533791527	0.114070775161572	-0.0970320045103279	0.00396933321558979	0.00118968474644854
0.47	-3.49480416721177	-0.113596532965742	644.709413100061	-1.70799736241528	45.0871091624215	0.0997148781061851	-0.0822639725024409	0.00422154504695282	0.00124628351058592
0.48	-3.24381899579791	-0.146672188779866	644.183056171428	-1.61189195096642	45.0127411694997	0.0973407894162949	-0.0788574587296334	0.00436596883610019	0.00118611310385797
0.49	-2.94152683885539	-0.183183841870135	643.64670849412	-1.5937364055118	44.8659885581004	0.106511725914973	-0.0865545257334238	0.00438937404141126	0.00101456615728146
0.5	-2.62439349098731	-0.21844178708594	643.148398485354	-1.65282673115787	44.6616477136779	0.12557971138383	-0.103946422673174	0.00429303571920459	0.000749348147640827
0.51	-2.3295193724066	-0.248564871725586	642.710906588245	-1.77976745959968	44.4186397569943	0.151976236017708	-0.128691407970819	0.00409156007144273	0.000417294163840676
0.52	-2.0872169729279	-0.271483894805655	642.339959114697	-1.95810847071355	44.1577842645121	0.182567302655228	-0.157804531819307	0.00381042740206761	5.0074436164671e-05
0.53	-1.91531536083874	-0.287370570984294	642.038661168797	-2.16643407994452	43.9000280468698	0.213983820225794	-0.187956001026134	0.00348286223939953	-0.000320077444254885
0.54	-1.81669953113635	-0.298292190585872	641.821379221224	-2.38058849959491	43.6652139175768	0.242870322728357	-0.2157348571518	0.00314647232394172	-0.000663760537607749
0.55	-1.78061357540658	-0.307165767796679	641.720220757097	-2.5759040689001	43.4711402863573	0.266054369506662	-0.237876212688785	0.00283982143948935	-0.000956581424722769
0.56	-1.78714003726646	-0.316350214857717	641.779948173416	-2.72945372404938	43.332532529381	0.280694370535965	-0.251488466435618	0.0025988826866612	-0.00118024739936667
0.57	-1.81339635754843	-0.326370468458232	642.04174568671	-2.82238190884707	43.2596933281502	0.284482687266803	-0.254326082835768	0.00245329877522871	-0.00132297594627195
0.58	-1.83963749807569	-0.335249862400916	642.521078289173	-2.84224743532621	43.2569480001717	0.275948766832742	-0.245122862839982	0.00242259159816993	-0.00137958886234618
0.59	-1.85368601881607	-0.338735604135045	643.188072927844	-2.78509345763917	43.3213628489646	0.254835754716689	-0.223942097129492	0.00251281782349533	-0.00135143746720212
0.6	-1.8527760173174	-0.331401326683006	643.959036320316	-2.65676588617503	43.4423779005817	0.2224475072359	-0.192443293750836	0.00271446473720649	-0.00124607399498683
0.61	-1.84271819774533	-0.308306702572416	644.704595125892	-2.47296242076843	43.6028386562186	0.181820425545245	-0.153942500848932	0.00300241955448444	-0.00107649936019233
0.62	-1.83499585677284	-0.266696015330061	645.274474579973	-2.25767920909681	43.7814743373762	0.137590989963761	-0.113172283084496	0.00333852563735004	-0.000859919768642858
0.63	-1.84281358692498	-0.207196519674529	645.533058004221	-2.04009619325565	43.9563389980732	0.0955039702627628	-0.0757220738785876	0.00367662590594542	-0.000616148728756705
0.64	-1.87719957257785	-0.134140010370457	645.395745792223	-1.85037443203052	44.1083470502348	0.0616115340432786	-0.0472329996644355	0.0039693018120921	-0.000365951289569066
0.65	-1.94406272724816	-0.0549167349345904	644.855263418033	-1.71515946404657	44.2239698062492	0.0413106992253638	-0.0324983743220508	0.00417501540690046	-0.0001296336893154
0.66	-2.04272767195923	0.0214252355618275	643.989730097101	-1.65366538687854	44.2964398375173	0.0384208850988864	-0.0346542850645984	0.00426425193690749	7.39748122758344e-05
0.67	-2.16602679363435	0.0859089673970531	642.949509385102	-1.6750281847149	44.3253097122915	0.0544976531349242	-0.0546245636239977	0.00422357636896709	0.00022822793763827
0.68	-2.30163340867262	0.131209271495057	641.925853600903	-1.77725208400305	44.3147244685425	0.0885188628619002	-0.0909216568061277	0.00405711375729634	0.000319298615520991
0.69	-2.43407640907831	0.152727404386594	641.109283480729	-1.94768900703104	44.27110426435	0.136989364093155	-0.139823803885039	0.00378558445522381	0.000336987657100052
0.7	-2.5468490281079	0.149030288428338	640.648197921761	-2.16474083040975	44.2010000898337	0.194420922231568	-0.195876069395095	0.00344342888333382	0.000275777358000051
0.71	-2.62420380906735	0.121756559527553	640.617886094563	-2.40042605834701	44.1097013965022	0.25408065229555	-0.252616186428549	0.00307463340292802	0.0001359490598275
0.72	-2.65251906899654	0.0752227140237959	641.007203150296	-2.62355920889921	44.000843829036	0.308874965317645	-0.303409808508046	0.00272769254613436	-7.56213948035489e-05
0.73	-2.62138439717188	0.0159381564228049	641.725536666263	-2.80341934740998	43.876917971301	0.3522423804751	-0.342285430465223	0.00244992254227594	-0.000345422764207959
0.74	-2.52465613140205	-0.0479134373875408	642.627524375913	-2.91379413560098	43.7403212172715	0.37895278029203	-0.364674039588521	0.00228129777789121	-0.000654306256224479
0.75	-2.36163163590483	-0.10714309466653	643.548560954345	-2.93711663107535	43.5944791644868	0.385737020416329	-0.367973562610871	0.00224821637154105	-0.00097951551973291
0.76	-2.13823971124347	-0.152562137420509	644.341574875735	-2.86812410228205	43.4445949156079	0.371690472804539	-0.35187289008546	0.00235802762486681	-0.00129742185682313
0.77	-1.86787066154805	-0.176401535533924	644.905578700894	-2.71621796297652	43.2977338365774	0.338408054228532	-0.318390496277262	0.00259553661517697	-0.00158641090751449
0.78	-1.57131039039219	-0.173966327897038	645.199170130461	-2.50566751083803	43.1621685846268	0.28982409779394	-0.271613914478702	0.00292277015240583	-0.00182931639719658
0.79	-1.27529124891771	-0.145075336244723	645.236799473683	-2.27308406497622	43.0461385175655	0.231755719006798	-0.217167780635673	0.00328287609971412	-0.00201493450151169
0.8	-1.00944973521773	-0.0947120219559319	645.070866557945	-2.06217581118227	42.9563630843496	0.17118533345562	-0.16148164033411	0.00360815796959968	-0.00213842082591098
0.81	-0.801934482374844	-0.0324354552389966	644.766899346307	-1.91652615790783	42.8967424683046	0.115361533576361	-0.110962632239616	0.00383114051541611	-0.00220066882480435
0.82	-0.674419150034756	0.0295482794905553	644.380775286556	-1.87178668112579	42.8676513179616	0.0708368125366779	-0.0711931175036648	0.00389656926224424	-0.00220698969161581
0.83	-0.637680533257415	0.0793051912527018	643.945557409226	-1.94900511939208	42.8660836999554	0.0425831209450849	-0.0462655986956064	0.00377172542077808	-0.00216549419477047
0.84	-0.689031786316018	0.108363933552453	643.47152106787	-2.15066819679272	42.8866752444677	0.0333223655880998	-0.0383391542021065	0.00345262471282959	-0.00208551387701467
0.85	-0.812634437636751	0.114306459940814	642.957810216276	-2.4604237450455	42.9233751351318	0.0431761410343973	-0.0474600498132209	0.00296458271307853	-0.00197624912948607
0.86	-0.983044468128824	0.102001824568093	642.409785883209	-2.84651668452044	42.971338436503	0.0696838762540909	-0.0716442648802703	0.00235703789486186	-0.00184568274791636
0.87	-1.17141958362368	0.0830625166724626	641.854120290052	-3.2680123629859	43.0285173994591	0.108175690249127	-0.107182740770923	0.0016940008938604	-0.00169972670877744
0.88	-1.35289937273351	0.0735564807539062	641.344741584004	-3.68220072887931	43.0964776610699	0.152432476569144	-0.149110416542216	0.00104256670237635	-0.00154160553754534
0.89	-1.51309085159534	0.0904571250249996	640.956375479591	-4.05139889381152	43.1801430716504	0.195532844297716	-0.191779983911751	0.000462235543532863	-0.00137158632968226
0.9	-1.65160822663905	0.1476486554429	640.76723007568	-4.34773993804862	43.2864383000133	0.230776080948898	-0.22949373477964	-2.74049361637108e-06	-0.00118726021334298
0.91	-1.78131330672864	0.25244312022471	640.836508514578	-4.55529282904718	43.4220852168475	0.252574545180119	-0.257157944580703	-0.000326904280761875	-0.000984574334311705
0.92	-1.92313527306657	0.403465176142161	641.184404258021	-4.66970580903703	43.5910445942871	0.257217387108854	-0.270920849615963	-0.000503252198198023	-0.000759660870632006
0.93	-2.09775807370555	0.590430142435116	641.781397594028	-4.69619497425377	43.7922182967384	0.243414794788672	-0.268734049850643	-0.000540211804737289	-0.000511235188640269
0.94	-2.31658683311868	0.795855065542615	642.550459078087	-4.64691700912422	44.0180060582652	0.212541334055917	-0.250748526401487	-0.00045751941631289	-0.000243032920426267
0.95	-2.57483042028114	0.998236606212414	643.381454511836	-4.53856178895335	44.2541478510363	0.16851754352969	-0.219440720205042	-0.000282309246753543	3.44457726602632e-05
0.96	-2.84906586859169	1.17586493904643	644.15323779053	-4.39053959191647	44.4810142127992	0.117308763452632	-0.179381197951268	-4.60495671460448e-05	0.000303605417474206
0.97	-3.10038558500739	1.31034593692027	644.756918451753	-4.22366427950995	44.6761932197669	0.0660795090947017	-0.136616683318344	0.000217754888755417	0.000541289860905458
0.98	-3.28255844789457	1.38910478582955	645.114141910647	-4.0589595175418	44.8179342420681	0.022110903727185	-0.0977261828329809	0.000475608071563771	0.000722157077507057
0.99	-3.35310014224242	1.40655144255089	645.186554404613	-3.91622911538773	44.8888095051811	-0.00834920338071156	-0.0687079550777716	0.000696335382813329	0.000823319074055973
1	-3.28424194803384	1.36402390867984	644.975882619965	-3.81227856447384	44.8788894287354	-0.0210978686404318	-0.0539229423330422	0.000853838510592952	0.000829228273709959
1.01	-3.07078833400648	1.26890947470924	644.516962261287	-3.75899675794767	44.7878117806465	-0.0146507828306218	-0.0553332338642815	0.000929997273129257	0.000735612237094396
1.02	-2.73273637841854	1.13338565580202	643.867612906186	-3.76173366699412	44.6253389696475	0.00956666055988886	-0.0722182852931466	0.000917085178680832	0.00055141916895507
1.03	-2.31199336147081	0.973059890671146	643.099112338408	-3.81843574774222	44.4102924953331	0.0475577948622017	-0.101436960582989	0.000819019834304435	0.000298201137765519
1.04	-1.86411481021596	0.805556025691065	642.289480307846	-3.91982576737984	44.1680599852539	0.0935495679980162	-0.138162017170322	0.000651021873981583	6.9939777865291e-06
1.05	-1.44723468682876	0.648945727840433	641.519627671578	-4.05062978416813	43.9271202048368	0.141061690923338	-0.176889721287269	0.000437673437956643	-0.000286634322265444
1.06	-1.1109502033686	0.519936521313289	640.870605515618	-4.19159245291741	43.7151772807794	0.184003726632082	-0.212461645852835	0.000209756145158502	-0.00054827396508661
1.07	-0.887749877430432	0.43188781838944	640.419460761196	-4.32188729894274	43.5555217310105	0.217557572246472	-0.240850329905428	4.53696920588165e-07	-0.000749885574179876
1.08	-0.788749999729803	0.392939125203904	640.231882355156	-4.42155242410724	43.4641580605581	0.238675931594579	-0.259550339026907	-0.000158521499626585	-0.000873501840763236
1.09	-0.804309675336481	0.404685353019649	640.351642740748	-4.47371489928951	43.4480896802508	0.246148136507129	-0.26755126462521	-0.000240503223086885	-0.000912803004920637
1.1	-0.908874726140239	0.461835170941168	640.789033861716	-4.46651119973563	43.50496532927	0.240314722973489	-0.265004276171497	-0.000226975235770088	-0.000872469178931468
1.11	-1.0684713131507	0.553108658533873	641.512070261646	-4.39467469866989	43.6240892152833	0.22260881659655	-0.252783214446324	-0.000110117922086372	-0.000765694365919778
1.12	-1.24883474172543	0.663306669324251	642.444377905617	-4.26070772440379	43.7885910570556	0.195132407992286	-0.23215305542755	0.000105367433064996	-0.00061058853579965
1.13	-1.4222671027969	0.776116086025016	643.472172464517	-4.07542456061232	43.9783561537512	0.160427001483509	-0.204686717176218	0.00040150548889939	-0.000426346313996462
1.14	-1.57186925506945	0.876941169078932	644.460050775719	-3.85754234672954	44.1731622735912	0.121486347109215	-0.172439977780575	0.000747854783520352	-0.000230022064266366
1.15	-1.69258665561472	0.954999649559936	645.272518771969	-3.6320194534809	44.3554127247621	0.0819245367491074	-0.138253060469205	0.00110430588866128	-3.45466514731219e-05
