Time [s]	GRFml [N]	GRFap [N]	GRFv [N]	Mml [N.m]	Map [N.m]	Mv [N.m]	Mfree [N.m]	COPml [m]	COPap [m]
0.01	4.55731462665921	8.86949883251429	830.80341187854	-11.072650666462	-2.54785526058418	2.47339507044691	2.56132264576397	0.00268239371283978	0.0012286424376589
0.02	4.7182395291289	8.58934708410091	829.234443122179	-11.019425185893	-2.73826860930178	2.49340660839868	2.5844796277234	0.0024442344350775	0.00118958167049975
0.03	4.87724187370848	8.31216535595009	827.67043296716	-10.9626574977568	-2.92576707042522	2.51359362309553	2.60759933825144	0.00220979017165187	0.00114639184126248
0.04	5.03214655479675	8.04208269544541	826.131206274859	-10.9014430870687	-3.10761610260306	2.53384159758194	2.63052317831856	0.00198244692306155	0.00109764547784576
0.05	5.18094138128602	7.78305597681733	824.637025643417	-10.8351998497258	-3.28132797795968	2.5540193051119	2.65308844692009	0.0017652799970885	0.00104227762103468
0.06	5.32183987347436	7.5387541569526	823.208250055861	-10.7637647350017	-3.44475196355752	2.57397493001585	2.67512547933678	0.00156094702242738	0.000979715540596705
0.07	5.4533328297906	7.31245344564059	821.86492485346	-10.6874580879417	-3.59614769179931	2.59353418201029	2.69645596296806	0.00137160230634479	0.000909972393805594
0.08	5.57422661449307	7.10694682988643	820.626303035873	-10.6071090413653	-3.73423830789948	2.61250086498758	2.71689290288388	0.00119883606011056	0.000833695259170262
0.09	5.68366690445375	6.9244707558359	819.510307803047	-10.5240386996914	-3.85824123113674	2.63066011381625	2.73624251912305	0.00104364044288399	0.000752161853424535
0.1	5.78114746639744	6.76665104057887	818.532955664515	-10.4400014296668	-3.96787570414707	2.6477842546672	2.7543081512603	0.000906402787184079	0.000667224624196308
0.11	5.86650435673024	6.63446929618877	817.707767301817	-10.3570880156835	-4.06334763157927	2.66364099992269	2.77089604168578	0.000786924886015559	0.000581205401237571
0.12	5.93989668949214	6.52825034157767	817.045198925426	-10.2775974817258	-4.14531343465374	2.67800347736865	2.78582268263677	0.000684465938881597	0.000496747985028098
0.13	6.00177575762159	6.44767029591254	816.552129663532	-10.2038868134692	-4.21482569525064	2.69066142972221	2.79892325538237	0.000597805736686103	0.000416639586799911
0.14	6.0528447839415	6.39178432803009	816.231440386528	-10.1382094788435	-4.27326417579015	2.70143281409431	2.81006057243818	0.000525323946781154	0.000343614609728701
0.15	6.09401189981974	6.35907240962817	816.081716395018	-10.0825544546054	-4.32225634556582	2.71017498618079	2.81913386212362	0.000465090941868892	0.000280155673693347
0.16	6.1263390938575	6.34750090662761	816.09710088314	-10.038497396563	-4.363591809356	2.71679467052971	2.82608671346891	0.000414965478618875	0.000228306945676543
0.17	6.15098984568102	6.35459745328439	816.267318502854	-10.0070746806877	-4.39913503008652	2.72125599166137	2.83091352989143	0.000372694635903121	0.000189513773440961
0.18	6.16917797759006	6.37753628771746	816.577879282775	-9.98868938584594	-4.43074049170369	2.7235859631415	2.83366392040963	0.000336011722581971	0.000164500470559598
0.19	6.18211994489651	6.41323107730044	817.010463244227	-9.98305602713431	-4.46017400206387	2.72387699231107	2.83444458210783	0.000302728313856685	0.000153195094284601
0.2	6.19099237585942	6.45843221340861	817.54347596802	-9.98918815752517	-4.48904323755275	2.72228614492661	2.83341838820754	0.000270817130285364	0.000154706481559434
0.21	6.19689619917537	6.50982558949428	818.152755730306	-10.0054300321011	-4.51873993351363	2.71903111335661	2.83080058041332	0.000238483097949332	0.000167354976111608
0.22	6.20082819676473	6.56412997616657	818.812404213182	-10.0295305787302	-4.5503953783131	2.71438303121122	2.82685215795491	0.000204220591946087	0.000188754498261185
0.23	6.20366032621818	6.61819025598039	819.495705683614	-10.0587551407397	-4.58485012006178	2.7086564642407	2.82187074382186	0.000166855543875382	0.000215940153368441
0.24	6.20612670117055	6.66906396744906	820.176094292829	-10.0900280313634	-4.62263808234088	2.70219707142357	2.8161793765972	0.000125571766508723	0.000245532667921518
0.25	6.20881772417197	6.7140988262805	820.828126028976	-10.1200970171006	-4.66398463879972	2.69536756275986	2.81011381164978	7.99214967140494e-05	0.000273928746018703
0.26	6.21218055395997	6.75099914135657	821.428410988799	-10.145709539999	-4.70881763733345	2.68853267502396	2.80400900912648	2.98207633503732e-05	0.000297505051641908
0.27	6.2165248688419	6.77787932739331	821.956463031206	-10.1637898656873	-4.75678990564829	2.68204393961688	2.79818553304688	-2.44692664873635e-05	0.000312822981429758
0.28	6.22203276421417	6.79330304217671	822.395427438105	-10.1716064265854	-4.80731141733557	2.67622502602856	2.79293658482489	-8.23733372656487e-05	0.000316821682563057
0.29	6.22877159199788	6.79630685096758	822.732652737665	-10.166919393913	-4.85958905167824	2.67135841082801	2.78851634847455	-0.000143043540840611	0.000306987828851876
0.3	6.23670860350724	6.78640774950879	822.960080058323	-10.1480998908686	-4.91267173805267	2.66767404813852	2.78513023939716	-0.000205408842195463	0.000281492395208013
0.31	6.2457263803228	6.76359436140982	823.074431924053	-10.114214148717	-4.96549873123523	2.6653406076746	2.78292753190451	-0.000268230218024057	0.000239286936123947
0.32	6.25563821170297	6.72830216102271	823.077191863264	-10.0650681744454	-5.01694880991882	2.66445970671571	2.78199670157655	-0.000330158858213734	0.00018015452431685
0.33	6.26620278143863	6.68137364766848	822.974376137671	-10.0012109903612	-5.06588831900953	2.66506340038499	2.78236366655099	-0.000389794914212292	0.00010471337264752
0.34	6.27713774098745	6.62400499208165	822.776108834055	-9.92389706031109	-5.11121617758033	2.66711501894297	2.78399295590977	-0.000445744413688423	1.43740697764339e-05
0.35	6.28813194967496	6.55768126488026	822.496021026838	-9.83501097291549	-5.15190423830602	2.67051326093425	2.78679168167441	-0.000496672188563804	-8.87458667041298e-05
0.36	6.29885633996247	6.48410290739453	822.150503252568	-9.73695965925719	-5.18703169884712	2.67509927673186	2.79061605071748	-0.000541348970459942	-0.000201943940248471
0.37	6.30897350347171	6.40510658089406	821.757847711204	-9.63253925083477	-5.21581261721178	2.68066631795951	2.79528003018351	-0.00057869117757699	-0.000322082914090426
0.38	6.3181461836071	6.32258389328932	821.337322049221	-9.5247850307932	-5.23761595594686	2.68697139340048	2.80056567970295	-0.000607792330901456	-0.000445759644165815
0.39	6.32604490036009	6.23840171659644	820.90821998517	-9.41681372796683	-5.25197795689202	2.69374826905219	2.80623458959682	-0.000627945474305394	-0.000569481963859666
0.4	6.33235492443358	6.15432784285001	820.488935200509	-9.31166761580131	-5.25860701116158	2.70072108494562	2.81203981914719	-0.000638656410460972	-0.000689842899277921
0.41	6.3367827680099	6.07196555841887	820.096103736493	-9.21216951054691	-5.25738152024712	2.70761783804059	2.81773771448958	-0.000639647980756435	-0.000803681976883784
0.42	6.33906227889249	5.99270033647186	819.743856630511	-9.12079685465725	-5.2483415274424	2.71418300030271	2.82309900225238	-0.00063085599243073	-0.000908224481673322
0.43	6.33896032658443	5.91766125895639	819.443218836045	-9.03958169351533	-5.23167512081135	2.72018860275094	2.82791860197713	-0.000612417712807025	-0.00100119114688817
0.44	6.33628196760839	5.84769900358466	819.201682866966	-8.97004160435721	-5.20770076027514	2.72544321607838	2.83202367554867	-0.000584654095799684	-0.00108087278805873
0.45	6.33087488735122	5.78338130546696	819.022976470582	-8.91314463296229	-5.17684675756276	2.72979839030459	2.83527953194688	-0.000548047071772384	-0.00114616669568324
0.46	6.32263284973351	5.72500578025215	818.907033443757	-8.869309165192	-5.13962913947681	2.73315227177377	2.83759312589099	-0.000503213315718458	-0.00119657402132823
0.47	6.31149785414555	5.67262894149754	818.850166013505	-8.83843753871518	-5.09662905805133	2.73545028618762	2.83891402347351	-0.000450875913385172	-0.00123215977961604
0.48	6.29746070780074	5.6261092327545	818.845426599609	-8.8199802119967	-5.04847078613838	2.73668295095949	2.83923284979371	-0.00039183527804802	-0.00125347930045058
0.49	6.28055977315783	5.58516099929539	818.883136858544	-8.81302556683682	-4.99580116766426	2.73688104856218	2.83857737536515	-0.000326940543875831	-0.00126147687615071
0.5	6.26087774211546	5.5494156149193	818.951553237929	-8.81640902225181	-4.9392711942896	2.73610854482559	2.83700653190023	-0.000257062489804684	-0.00125736385500652
0.51	6.23853641471947	5.51848551309572	819.037631340128	-8.82883415195085	-4.87952017116943	2.73445376359128	2.83460276636707	-0.000183068846675071	-0.00124248446281628
0.52	6.21368960975064	5.49202668812228	819.127846589206	-8.84899796832491	-4.81716272977494	2.73201942469067	2.8314632380133	-0.00010580262631452	-0.00121817814517931
0.53	6.18651449440441	5.4697953482473	819.20902627285	-8.87571247704068	-4.75277875899076	2.72891221085215	2.82769043047248	-2.60638992794007e-05	-0.00118564720585824
0.54	6.15720177512244	5.45169481224907	819.269148097977	-8.90801500386231	-4.6869061674676	2.72523254806125	2.82338278567894	5.5404749259043e-05	-0.001145837991725
0.55	6.1259453257796	5.43780941389815	819.298062910142	-8.9452606088118	-4.62003626723864	2.72106526256923	2.81862596544365	0.00013792902907669	-0.0010993428925204
0.56	6.09293192810193	5.42842306472953	819.288103988702	-8.98719106952122	-4.55261148367793	2.71647171783384	2.81348530950341	0.00022091010670485	-0.0010463290579551
0.57	6.05833184999966	5.42402115850407	819.23455201703	-9.03397635581348	-4.48502504901136	2.71148393986938	2.80799998709794	0.000303828317646249	-0.000986498078249997
0.58	6.02229098175205	5.42527560467345	819.135933008713	-9.0862261402601	-4.41762232162321	2.70610111527137	2.80217923627094	0.000386243708100471	-0.000919079031810226
0.59	5.98492518378323	5.43301387381688	818.994135642204	-9.14497059894587	-4.35070338481057	2.70028869960396	2.79600095683494	0.000467793739938983	-0.000842855385183233
0.6	5.94631737474367	5.44817394940845	818.814344076883	-9.21161145828348	-4.28452660852168	2.69398021318187	2.78941277683528	0.000548188526889241	-0.000756224343767445
0.61	5.90651771211064	5.47174794072187	818.604791852358	-9.28784584918934	-4.21931289770718	2.68708163572426	2.78233555737487	0.000627203990255701	-0.000657285496755547
0.62	5.86554700221671	5.50471776878005	818.376351405686	-9.37556696156858	-4.15525039354811	2.67947815053216	2.77466914664125	0.000704673335200129	-0.000543954062866118
0.63	5.82340323947761	5.54798675640818	818.141981638915	-9.47674668584242	-4.09249943272061	2.67104284230159	2.76630005085663	0.000780477258462654	-0.000414092793367024
0.64	5.78007093532285	5.60231111965115	817.916062481174	-9.59330633576022	-4.03119760067579	2.66164682933014	2.75711056693716	0.000854533308243016	-0.000265655674481672
0.65	5.73553267642979	5.66823527562665	817.713650266395	-9.72698213600066	-3.97146473551416	2.65117021834844	2.74698882678801	0.000926784827242429	-9.68360202075729e-05
0.66	5.68978216852537	5.7460345735985	817.549690847461	-9.87919241350148	-3.91340774942366	2.63951321433338	2.73583914224776	0.000997189918794173	9.37886338942626e-05
0.67	5.6428378921452	5.83566855833927	817.438228651008	-10.0509133530563	-3.85712513666948	2.62660670198355	2.72359201617329	0.00106571088000853	0.000307122246526402
0.68	5.59475643124585	5.93674723429561	817.391649397319	-10.2425697796549	-3.80271103392994	2.6124216410207	2.71021319987191	0.00113230454035078	0.000543433495201263
0.69	5.54564453924653	6.04851206714089	817.419992096332	-10.4539467389134	-3.75025869425048	2.59697668239677	2.69571122835814	0.00119691392442978	0.000802262602872852
0.7	5.49566907816336	6.16983268735483	817.530362370129	-10.6841266998042	-3.69986323404855	2.58034351251954	2.68014294880944	0.00125946162024901	0.00108235680620032
0.71	5.44506409699337	6.2992194953451	817.726474368315	-10.9314560462397	-3.65162351708978	2.56264956118151	2.66361666836779	0.00131984517664983	0.00138163825354543
0.72	5.39413449227833	6.43485164827612	818.008342778423	-11.1935432078713	-3.60564305305666	2.54407785765054	2.64629267803877	0.00137793477616749	0.00169720672383221
0.73	5.3432559002899	6.5746192642412	818.372139936251	-11.4672893622867	-3.56202981313589	2.52486397891367	2.62838105207716	0.00143357333426645	0.00202537806708892
0.74	5.29287068867862	6.71617812827034	818.810226053201	-11.7489511800038	-3.52089490171483	2.50529019453148	2.61013676888987	0.00148657906716795	0.00236175773573718
0.75	5.24348012871941	6.85701473582084	819.311353331753	-12.0342336407545	-3.48235007138585	2.48567706447191	2.59185234232015	0.00153675045393819	0.00270134725451772
0.76	5.19563302318618	6.99451916410559	819.861037459891	-12.3184095843651	-3.44650412643571	2.46637288113542	2.57384828396169	0.00158387340063705	0.00303868001929977
0.77	5.1499112291465	7.12606301622365	820.442082879221	-12.5964614295064	-3.41345832517013	2.44774145752342	2.5564618314838	0.00162773030162325	0.003367981475285
0.78	5.10691264392208	7.2490795319822	821.035241528718	-12.8632394517693	-3.38330096010521	2.43014884492006	2.54003446944467	0.00166811059146937	0.0036833475587361
0.79	5.06723231486299	7.36114289765866	821.619978700654	-13.1136302056807	-3.35610136269018	2.41394961231057	2.52489883349474	0.00170482229527978	0.0039789343483127
0.8	5.03144239178068	7.4600438123871	822.175314437812	-13.3427281418519	-3.33190364059553	2.3994733348006	2.51136562324315	0.00173770401934619	0.00424915121412786
0.81	5.0000716696026	7.54385848219202	822.680704785748	-13.5460032387728	-3.31072050515942	2.38701192014966	2.49971115173201	0.00176663678083433	0.00448884941951596
0.82	4.97358547377442	7.61100841735214	823.116924419855	-13.7194575553777	-3.29252757889614	2.37680835347604	2.49016613020947	0.00179155505660091	0.00469349815577451
0.83	4.95236662756968	7.66030870900792	823.466910905263	-13.8597640188714	-3.27725858324485	2.36904736390657	2.48290622696976	0.00181245643874716	0.00485934039197523
0.84	4.93669821287211	7.69100285926183	823.716531292622	-13.9643814818125	-3.26480179143977	2.36384841821311	2.47804485122052	0.00182940931911946	0.00498352169961086
0.85	4.92674879632852	7.70278273343657	823.855234022185	-14.0316410878832	-3.25499808878146	2.36126133087219	2.47562850153887	0.00184255808714898	0.00506418634340977
0.86	4.92256074106326	7.69579278458341	823.87655324196	-14.0608002373428	-3.24764091319197	2.36126465358695	2.47563488920252	0.00185212541492801	0.00510053637114452
0.87	4.92404215858681	7.67061835104055	823.778438586202	-14.0520618872185	-3.24247825570029	2.36376687642903	2.47797390646624	0.00185841131895104	0.00509285112164536
0.88	4.93096297309624	7.62825852110187	823.563391041388	-14.0065584919289	-3.23921678876921	2.36861034367078	2.48249136653506	0.00186178882679787	0.00504246641813216
0.89	4.94295546770088	7.57008475999129	823.238394465123	-13.9263015116348	-3.23752806749758	2.37557766609587	2.48897530386139	0.00186269623482045	0.00495171462609025
0.9	4.95951955651702	7.4977871630535	822.814642224086	-13.8140990063557	-3.23705662346097	2.38440030361093	2.4971644986705	0.00186162611340973	0.00482382862576421
0.91	4.98003287694908	7.41331079277449	822.307068786276	-13.6734453101399	-3.23742965260666	2.39476890212922	2.5067587857825	0.0018591113916739	0.00466281447205889
0.92	5.00376562403958	7.31878503492902	821.733706372808	-13.5083880608644	-3.23826789617746	2.40634490081833	2.51743063097601	0.0018557090238277	0.00447329898819775
0.93	5.02989985755936	7.21644923538256	821.114896337039	-13.3233788755296	-3.23919723487847	2.41877288263123	2.52883741252227	0.00185198189462984	0.00426035967591628
0.94	5.05755280949771	7.10857802760642	820.472393185871	-13.1231146496317	-3.23986046726161	2.43169312402657	2.54063383295961	0.00184847974967012	0.00402934505588913
0.95	5.08580351450088	6.99740971756023	819.828405526509	-12.9123767817039	-3.23992872699898	2.44475380902457	2.552483906018	0.00184572002733136	0.00378569383410854
0.96	5.11372189047751	6.88508085673786	819.204622238571	-12.6958755610202	-3.23911201112962	2.45762240697805	2.56407201277997	0.0018441695131632	0.00353476110831536
0.97	5.14039922425938	6.77356971949541	818.621273494869	-12.4781065115782	-3.23716834071532	2.46999577013398	2.57511259459632	0.00184422772678227	0.00328165919883988
0.98	5.16497888134933	6.66465083419796	818.096274708167	-12.263224686135	-3.23391115259774	2.48160858258209	2.58535814145367	0.00184621288218525	0.00303111965531346
0.99	5.18668597190583	6.5598620373986	817.644497078523	-12.0549417995933	-3.22921462028599	2.49223988200122	2.59460523619083	0.00185035113485755	0.00278738162591476
1	5.20485467748608	6.46048477260903	817.277201365942	-11.8564497496495	-3.22301671633107	2.50171747455912	2.60269851997369	0.00185676964880425	0.00255411017120359
1.01	5.21895198164867	6.36753759120672	817.001662216571	-11.6703725767817	-3.21531995006088	2.50992016590557	2.60953254622491	0.00186549379463006	0.00233434636588018
1.02	5.22859665509321	6.28178208411556	816.820999395766	-11.4987473563884	-3.20618983527804	2.51677783193171	2.61505158339497	0.00187644854212455	0.00213048926998203
1.03	5.23357252075985	6.20373982695196	816.734220327299	-11.3430329863698	-3.19575125482535	2.52226944670861	2.61924750765646	0.00188946385731819	0.00194430817382736
1.04	5.23383525973022	6.133718398811	816.736466185029	-11.2041444226533	-3.18418298599318	2.526419267307	2.62215599246062	0.00190428367625041	0.00177698202500169
1.05	5.22951230403928	6.07184416571387	816.819442235625	-11.0825087018423	-3.17171072703354	2.52929144255251	2.62385125202045	0.00192057782647917	0.00162916170981704
1.06	5.22089568314456	6.01809932116026	816.972002954429	-10.9781381378297	-3.15859901663015	2.53098336288822	2.62443963048123	0.00193795611993952	0.00150104994284368
1.07	5.20842802960053	5.97236065166192	817.180854299832	-10.890715432346	-3.14514246296732	2.5316181003932	2.62405234897082	0.00195598375870175	0.00139249294892797
1.08	5.1926822876321	5.93443763442113	817.431329952811	-10.8196851213202	-3.1316566969024	2.53133630192086	2.62283773056826	0.00197419718296008	0.00130307791085976
1.09	5.17433598657041	5.90410775511245	817.7081956342	-10.7643457911451	-3.11846943642488	2.53028789570665	2.62095322037856	0.00199211954522621	0.00123223028834334
1.1	5.15414122111725	5.88114732395178	817.996435913459	-10.7239378223288	-3.10591200053542	2.5286239550074	2.61855750623027	0.00200927510651443	0.00117930555670871
1.11	5.1328917057676	5.86535652934377	818.28198110662	-10.6977220152017	-3.09431154477388	2.52648903434075	2.61580302673689	0.00202520200447732	0.00114367061828397
1.12	5.11138842812959	5.85657795911708	818.552337604801	-10.6850452713764	-3.08398421377973	2.52401425790324	2.61282912906748	0.00203946302217559	0.00112477104630744
1.13	5.09040550592152	5.85470829954646	818.797092775726	-10.6853904833077	-3.0752293250038	2.5213113988343	2.60975610996557	0.00205165417090243	0.00112218136535225
1.14	5.07065785015103	5.85970335660182	819.008274802217	-10.6984088548837	-3.0683246186671	2.51846814473746	2.60668034124504	0.00206141107400206	0.00113563668627478
1.15	5.052772152169	5.8715769044419	819.18055774921	-10.7239339700664	-3.06352253857349	2.51554470107269	2.60367064575609	0.00206841328663081	0.00116504513246958
1.16	5.03726254937846	5.89039413514031	819.311312053161	-10.7619779794272	-3.06104745184981	2.51257184055672	2.60076605188346	0.00207238679860547	0.00121048155778881
1.17	5.02451209207876	5.91626065380289	819.400509816847	-10.8127112287548	-3.06109367717417	2.50955046347269	2.59797501391151	0.00207310503809186	0.00127216401297357
1.18	5.01476084458276	5.94930803793788	819.450502177353	-10.8764274630406	-3.063824172857	2.50645268994487	2.59527614170275	0.00207038872168338	0.00135041522515635
1.19	5.0081011224991	5.98967697165777	819.46569214284	-10.9534973691149	-3.06936973851042	2.5032244594847	2.592620435608	0.00206410488438027	0.00144561198399472
