Time [s]	GRFml [N]	GRFap [N]	GRFv [N]	Mml [N.m]	Map [N.m]	Mv [N.m]	Mfree [N.m]	COPml [m]	COPap [m]
0.01	-0.764750756721041	2.67892171641515	880.11284328547	-6.02033870309092	1.99269009941677	1.23979426558887	-1.24058171987669	0.00787711195077279	-0.00294885535241735
0.02	-0.803946301357328	2.97576203300364	877.630284571343	-6.34991501696401	2.00196828958837	1.2130863883738	-1.21402674031951	0.00747233824087123	-0.00293168214236239
0.03	-0.836437802268701	3.26770637754929	875.251843554569	-6.66293890064669	2.01574010399391	1.18762078903418	-1.18878972485736	0.00708707759346772	-0.00290955218814914
0.04	-0.859546122521575	3.54944517569778	873.064662388776	-6.94531538810503	2.03753130266414	1.16423999352781	-1.16574879972902	0.00673794908036218	-0.00287857962446886
0.05	-0.87754866835331	3.80957623343868	871.160825822488	-7.18711120395583	2.06973819529144	1.14363009852631	-1.14554219090351	0.00643701863220603	-0.00283623154757429
0.06	-0.901284134586563	4.03073202093337	869.634341301903	-7.3835834451734	2.11323232347524	1.12633404500515	-1.1285821926056	0.00619062138467963	-0.00278178169059717
0.07	-0.944787921417981	4.19254927234447	868.571349718144	-7.5351479968603	2.16716552217644	1.11280162397399	-1.11514041886137	0.00599928512421233	-0.00271650267460399
0.08	-1.02025936648133	4.27631163243097	868.036759655499	-7.64633079304071	2.22908509385016	1.10345688979196	-1.10547157363208	0.00585874461710112	-0.00264348289705224
0.09	-1.13327587219937	4.26966701862893	868.061433980879	-7.72407482994954	2.29539538372921	1.09874863739834	-1.09992085406608	0.00576167908565095	-0.00256704267113256
0.1	-1.28002346249488	4.17003241465601	868.633490806496	-7.77597681434293	2.36208785389324	1.09915186085249	-1.09896323841119	0.00569957359545614	-0.00249185332442015
0.11	-1.44752895956186	3.98591795683408	869.695827012872	-7.80900194542665	2.42556019786235	1.10510752240643	-1.10315001974303	0.00566411606434203	-0.00242197388449816
0.12	-1.61678718241093	3.73611041889272	871.150263695011	-7.82899053086165	2.48330075851338	1.1169131962425	-1.11297434786972	0.00564778375903008	-0.00236006435438224
0.13	-1.76768125659076	3.44718915604209	872.867224276969	-7.84093375996491	2.5342446723634	1.13459437372633	-1.1286952600391	0.00564363186683514	-0.00230699486786645
0.14	-1.88403185872394	3.15007945506106	874.698864415931	-7.84969737801528	2.57870097054456	1.15778850735136	-1.15016832165961	0.00564461968481622	-0.00226196077350865
0.15	-1.9571464845844	2.87630391104308	876.493192552722	-7.8607213123294	2.61787451525807	1.18566479371155	-1.17672239505659	0.00564297536474268	-0.00222307026275276
0.16	-1.98682344575573	2.6543993089101	878.106949357118	-7.88026364571761	2.65312600842728	1.21689199622113	-1.20710636843751	0.00563005922743987	-0.00218823542781971
0.17	-1.97966582057147	2.50677534716563	879.415748464999	-7.91495881320438	2.68519391016979	1.24966183144203	-1.23951666538926	0.00559696978144542	-0.00215610698144436
0.18	-1.9454549294757	2.44720155833678	880.320999584774	-7.9707394126752	2.71362099266563	1.28177618510001	-1.27170868389025	0.00553583529414525	-0.00212677263207023
0.19	-1.89292321588954	2.47912700180377	880.754115097407	-8.05142641831022	2.73657812067988	1.31080546017591	-1.30118854035728	0.00544145724819456	-0.00210199700531255
0.2	-1.82638042570353	2.59508912668661	880.679096577307	-8.15743852295468	2.75117011676568	1.33431529057366	-1.3254697939673	0.00531281219349378	-0.00208490384402249
0.21	-1.74428582245781	2.77745157718255	880.094577032698	-8.28506558619454	2.75417203437487	1.3501390140419	-1.34236253333394	0.00515392107778245	-0.00207915652484836
0.22	-1.64017886775649	3.00056261498908	879.035766402837	-8.42660368456924	2.7430175068406	1.35665173784653	-1.35024604714338	0.00497375043089332	-0.00208783727951128
0.23	-1.50562085147681	3.23416222115964	877.575786476372	-8.57141278259466	2.71678050082372	1.35299068701861	-1.34827142763164	0.00478506301107906	-0.00211231795255901
0.24	-1.33419356819205	3.44757373356899	875.825023574555	-8.70770642431492	2.67688001230046	1.33917390232086	-1.33645307687948	0.00460240943918744	-0.00215143040303373
0.25	-1.12530428204003	3.61400532123298	873.926782996664	-8.82468681896382	2.62729566421042	1.31609353480884	-1.31563518166764	0.00443967202627882	-0.00220118034940281
0.26	-0.88660836270157	3.71423521317742	872.04790772803	-8.91454711526734	2.57419381099133	1.28539029547769	-1.2873495923294	0.00430768398107706	-0.0022551231159566
0.27	-0.634237053907763	3.73907443018331	870.364060433464	-8.97389303203737	2.52500135302865	1.24923945847321	-1.2536027260898	0.00421242956238821	-0.00230536387554359
0.28	-0.390601465488948	3.69024231809701	869.04076656859	-9.00427428625878	2.48709952508772	1.21008949944764	-1.21663507150921	0.00415419438381892	-0.0023439910787541
0.29	-0.180198146939502	3.57957491494321	868.21266948445	-9.01172393783984	2.46641713182221	1.17039405457692	-1.17869069760199	0.00412781752065183	-0.00236462917517627
0.3	-0.0244173536019622	3.42674548124758	867.96437054247	-9.00542932717907	2.46625902984842	1.13237335538634	-1.14182416577801	0.0041239516618331	-0.00236373229558617
0.31	0.0632948788077001	3.25587523129246	868.316462922017	-8.99584948335994	2.48668916160833	1.09783728051517	-1.10776460972989	0.00413102094750262	-0.00234125949465264
0.32	0.0805646649128673	3.09154728541154	869.219841504976	-8.99270818843514	2.5246824826602	1.06809669956525	-1.07785092573734	0.00413742688391139	-0.00230049198216026
0.33	0.0365403411303936	2.954816685018	870.560173613977	-9.00330381410106	2.57507050173539	1.04397662705223	-1.05304246893357	0.00413352222219088	-0.00224696848021716
0.34	-0.050585358103779	2.85983212356527	872.172746547907	-9.0314830115542	2.63206778672691	1.02592049665157	-1.03399250948572	0.00411295836845371	-0.00218678364144842
0.35	-0.158370419453334	2.81163169564791	873.866022357715	-9.07744642141229	2.69095306517976	1.01414498123432	-1.02115047895584	0.00407319302784037	-0.0021247345699526
0.36	-0.265889865856352	2.80552337905188	875.450418955978	-9.13833582045734	2.7493747108489	1.00878252647597	-1.01484426999325	0.00401517304220611	-0.00206291379025947
0.37	-0.358777163013023	2.82821161822971	876.76743568808	-9.2093547638239	2.80782047917041	1.0099477580755	-1.0152964396476	0.00394241613017365	-0.00200026151274801
0.38	-0.432030091357804	2.86052282895375	877.71361918813	-9.28505917998367	2.86903964446829	1.0176891184101	-1.02255144413176	0.00385983936285172	-0.00193330252175439
0.39	-0.48976015897729	2.88128218971303	878.254343575517	-9.36045747565335	2.93656090999255	1.03183084132123	-1.03632756729882	0.00377268333596259	-0.00185788670617748
0.4	-0.542042332946276	2.87166926807786	878.424097170147	-9.43167757745547	3.01278414991112	1.05175597650385	-1.05584238573605	0.00368576587577241	-0.00177137399783506
0.41	-0.599957906034588	2.81927217937331	878.312746348247	-9.49614457409156	3.09730530985072	1.07621111236405	-1.07968024100451	0.00360311946992886	-0.00167450607244118
0.42	-0.670495633592786	2.7210780945879	878.040528500995	-9.55239521457012	3.18608245840268	1.10321696349491	-1.10576690769145	0.00352789865160197	-0.00157227739025922
0.43	-0.752992093652884	2.58477320161828	877.727457393885	-9.59976507969514	3.27177924443835	1.13014511475589	-1.13149177599767	0.00346235626721902	-0.00147343992476273
0.44	-0.838258636938022	2.42796834995176	877.464493793336	-9.6381814167675	3.3452299928125	1.15397726527818	-1.1539791220857	0.00340771412221685	-0.00138873111124432
0.45	-0.910656140804802	2.27530874663399	877.293599201156	-9.66818590483095	3.39760333020694	1.17171144329598	-1.17046796192923	0.00336387749862121	-0.0013283345453346
0.46	-0.952445288435117	2.15384093790378	877.201562508132	-9.69114792623084	3.42262774846733	1.18083372060255	-1.17872539496032	0.00332910404411091	-0.0012993193343705
0.47	-0.949060192205602	2.08743331315715	877.128833962731	-9.70948640994098	3.41824671964583	1.17974704659841	-1.17740088470481	0.00329985483060469	-0.00130378569681255
0.48	-0.89372560564057	2.09137313384895	876.990581718021	-9.72666657625211	3.38727301609173	1.16805052513072	-1.16623535475883	0.00327106268893806	-0.00133819820696218
0.49	-0.790105337468148	2.16837773657171	876.704000930557	-9.74680746777318	3.33692503320243	1.14659537364568	-1.14607056394556	0.00323693099958766	-0.00139401792541838
0.5	-0.652315122833444	2.30707947231804	876.214465705783	-9.77390113209476	3.27743868395476	1.11730084292756	-1.11865442969283	0.00319216694197011	-0.00145938398238704
0.51	-0.502424673931471	2.48356851178768	875.513748746572	-9.8108316981163	3.22016059619503	1.08277809514112	-1.08629263546738	0.00313334526340536	-0.00152135537359083
0.52	-0.366243649756641	2.66589051476096	874.645924383483	-9.85850558349174	3.17559354345434	1.04586130662378	-1.051438087354	0.00305998757985448	-0.00156815878467348
0.53	-0.268530015179941	2.82065598930641	873.69992369928	-9.91540374899149	3.15179140078552	1.00916513517266	-1.01632263335401	0.00297498541571528	-0.00159098567471022
0.54	-0.228710377182086	2.92031735313141	872.791059491649	-9.97774043375185	3.15334052122073	0.9747691184368	-0.98271456146009	0.00288418336791729	-0.0015850781928764
0.55	-0.257850185047072	2.94938563034675	872.036349061352	-10.0402135181261	3.18098720768054	0.944080098996682	-0.951838190150587	0.00279520001372346	-0.0015500555239169
0.56	-0.357150826662123	2.90800427270029	871.529632323665	-10.097141849278	3.23183590897829	0.917863103524939	-0.92443648222241	0.00271579774731534	-0.00148959059892506
0.57	-0.517880594154882	2.81187961561494	871.32220283195	-10.1436764282324	3.29997757699764	0.896383030428752	-0.90091569648857	0.00265223479857957	-0.00141061982691509
0.58	-0.722480205195555	2.68846612840792	871.413165221251	-10.1767766315381	3.37740427453493	0.879581484537552	-0.881498357460657	0.00260800999628219	-0.00132226580975719
0.59	-0.946604862051113	2.57028905609809	871.7514382883	-10.1957434099367	3.45509302374386	0.867228259424598	-0.866329609719067	0.00258326706589496	-0.00123461288904508
0.6	-1.16195561496332	2.48707387958382	872.248750258771	-10.2022498862006	3.524164552999	0.859022762787813	-0.855519932881892	0.00257492232433743	-0.0011574393769252
0.61	-1.33977230266969	2.45869488082522	872.800615775228	-10.1999491866536	3.57702150767583	0.854655601172179	-0.84914328824437	0.00257738858294176	-0.001099002709613
0.62	-1.45473242404259	2.49073416618013	873.310565877275	-10.19382603977	3.60834835285205	0.853855737809225	-0.847225579143391	0.00258364435359393	-0.00106499319266884
0.63	-1.48876180986168	2.5737154207347	873.712143806912	-10.1894738167188	3.61583175545114	0.856438222614983	-0.849747785054817	0.002586367246598	-0.0010577964913947
0.64	-1.43404724489926	2.68606493505645	873.983563879213	-10.1924310869089	3.60046195235144	0.862341540344116	-0.85666076105957	0.00257890684236661	-0.00107620500369465
0.65	-1.2945048206893	2.79986475604343	874.151452413144	-10.207633339563	3.56632152903721	0.871621817566395	-0.867883643715385	0.00255597971133537	-0.00111567177581307
0.66	-1.0851908687354	2.88778753517202	874.282507738984	-10.2389687124071	3.51985913762655	0.884370753071781	-0.883252455439648	0.00251407690746686	-0.00116910561535094
0.67	-0.829611716245718	2.92941413643453	874.464748244937	-10.2889048962776	3.4687608832839	0.900549668649304	-0.90240531810537	0.00245163808045779	-0.00122808496589699
0.68	-0.55544455888383	2.91544744647072	874.782608914514	-10.3581841659426	3.42063446487825	0.919772647832381	-0.924626438116296	0.00236905039366253	-0.00128426095856288
0.69	-0.28962394346643	2.84901420772765	875.291822165146	-10.4456384654215	3.3817734572485	0.94110746639167	-0.948704472618842	0.0022684948547218	-0.00133066703303125
0.7	-0.0539145082022824	2.74406331577031	876.000280077216	-10.5482119237809	3.35625139633554	0.962975633617845	-0.972874642980878	0.00215363040980043	-0.00136267451598732
0.71	0.138074811098162	2.62158115122092	876.8597810872	-10.6612584098673	3.34551417640304	0.983214232446748	-0.994899621735437	0.00202911439356224	-0.0013784221140179
0.72	0.281907824868945	2.50476900410072	877.771007914114	-10.7791041061464	3.3485232177896	0.999317365179949	-1.01230538865866	0.00190001231687464	-0.00137867040978917
0.73	0.381374860716949	2.4143904809742	878.600917186496	-10.895764545897	3.36238571495737	1.00881928938003	-1.02273839507145	0.0017712189580763	-0.00136615247933791
0.74	0.446049959197672	2.36524334918787	879.208755273739	-11.0056364220021	3.38331706884341	1.0097343242335	-1.02436733514175	0.00164704591402753	-0.00134458318863417
0.75	0.488083298697071	2.36427421161979	879.474879902564	-11.1039898862458	3.40772367374423	1.0009467961517	-1.01623224029118	0.00153109045509381	-0.00131754522094046
0.76	0.518996744489628	2.4103987335203	879.325932324845	-11.1871734793687	3.43317147079467	0.982455215434723	-0.998453304176238	0.00142638787130478	-0.00128749209611229
0.77	0.547109824205442	2.49574489193643	878.750789505811	-11.252574363851	3.45901857390358	0.955414578689524	-0.972248933733158	0.00133571021039158	-0.00125509675449598
0.78	0.575999685353064	2.60785799744159	877.803892218453	-11.2984868705798	3.48654628677134	0.921975364132801	-0.93976441745945	0.00126177957475648	-0.00121911939042624
0.79	0.604172260610974	2.73237195892057	876.595455310398	-11.3240725416771	3.51852771046868	0.884969011273519	-0.903761612135597	0.00120717469276921	-0.00117686111047927
0.8	0.625927242040336	2.85569312600085	875.271007516382	-11.3295216285428	3.55831659656053	0.847521225179972	-0.867249922575041	0.00117384033199341	-0.0011251190101278
0.81	0.633228367499311	2.96729749293908	873.984974949708	-11.3163789569753	3.60868637238196	0.812678089863775	-0.833140865220201	0.00116231441554682	-0.00106139986531728
0.82	0.618225010558675	3.06129051709869	872.874110022083	-11.2878479716946	3.67074857904461	0.78310822144583	-0.803984808995684	0.00117097637221331	-0.000985040885197519
0.83	0.575918854464572	3.13695185536271	872.036297544348	-11.2488157304056	3.74328518648896	0.760908810816322	-0.781811097534042	0.00119569728105984	-0.000897879088065212
0.84	0.506375412260025	3.19813058098292	871.518801960383	-11.2053969491549	3.82272521288295	0.747510067504121	-0.768058221544052	0.0012301851820643	-0.000804224030946321
0.85	0.415904867847895	3.25158296627532	871.317761254016	-11.1639676519609	3.90381052096536	0.743653691763068	-0.763562445214715	0.00126708532629527	-0.000710091702045001
0.86	0.31681652447921	3.30460890162662	871.38820582156	-11.1298827119472	3.98078972990547	0.749420249001843	-0.768575437606983	0.00129959964167903	-0.000621882243606486
0.87	0.225667145392633	3.36255450565817	871.661604853453	-11.1062511511677	4.04882149439354	0.764291786418666	-0.782797619842493	0.00132315018370877	-0.000544854114782667
0.88	0.160299142371381	3.42681892779666	872.0663597033	-11.0931941912971	4.10520749670996	0.787248315113662	-0.805431390200843	0.0013365308426796	-0.000481808639292258
0.89	0.136293164363178	3.49389249171418	872.546087354644	-11.0878977113537	4.15012433204566	0.816899699198507	-0.83526534269553	0.00134211502784065	-0.000432338611150052
0.9	0.163643938912407	3.55568989129925	873.071118784908	-11.0855231548545	4.18666052764071	0.851644811186022	-0.870792563801093	0.00134498082519174	-0.000392838916835003
0.91	0.24445207742861	3.60110936800244	873.640328447253	-11.0807458582349	4.22014716442475	0.889833143626005	-0.910348196830457	0.00135117816452002	-0.00035727595596341
0.92	0.372206338982508	3.61844696379614	874.272922817614	-11.0694571903735	4.25694929831308	0.92989198747759	-0.95223560106436	0.00136566456873533	-0.000318520895112639
0.93	0.532860465433352	3.5981028320175	874.992599485771	-11.0500862431318	4.30301859262821	0.97038584499616	-0.99480859155801	0.00139056730982712	-0.000269914802981497
0.94	0.707474336053013	3.53496974393387	875.808800360402	-11.0241018090495	4.36256672353604	1.00999747222582	-1.03649424432988	0.00142434179899131	-0.000206679763535944
0.95	0.875798022989348	3.4299851638083	876.700876253887	-10.995511761201	4.43719192981088	1.04745431294466	-1.07577042141015	0.00146211791505213	-0.000126828427355397
0.96	1.01993254277288	3.2905222961184	877.610387077209	-10.9694969361271	4.52568225006008	1.0814540229038	-1.11113962993106	0.00149715161992625	-3.13465294661253e-05
0.97	1.12717742272218	3.12954502812685	878.444538315816	-10.9505925517668	4.62454981553588	1.11065164616938	-1.14115019998272	0.00152295234393884	7.63957321193165e-05
0.98	1.19139627477255	2.96370723524796	879.090537342991	-10.9409726870855	4.7291574878046	1.13375076702795	-1.16449912530179	0.00153544816390072	0.000191845054602235
0.99	1.21265423101362	2.81079083874005	879.437457100618	-10.9393597703044	4.83513000116994	1.14969741155814	-1.18021333243878	0.00153454367224692	0.000310745920480637
1	1.19539393241279	2.68700616040715	879.400030504809	-10.9408861904604	4.93964729447677	1.15792651197036	-1.18786399782524	0.00152461706198137	0.000430472780908464
1.01	1.14586103325857	2.60468970103097	878.938295090682	-10.9379436337922	5.04223653220336	1.15857851132272	-1.18774189636286	0.00151382866493788	0.000550810500127064
1.02	1.06970629909007	2.57081665428913	878.068210773223	-10.9217604821529	5.1448198968769	1.15260420312405	-1.18092467493983	0.00151246771088365	0.000673934799619302
1.03	0.970581789534889	2.58651955018932	876.860804217925	-10.8842413759991	5.25100368452162	1.14171100858782	-1.16920011077427	0.0015308347092946	0.000803592579563417
1.04	0.850131949847386	2.64752973573783	875.430288724432	-10.8195496198833	5.36483840192645	1.12815945185732	-1.15485910496668	0.00157725973753597	0.000943745027637277
1.05	0.709204754414513	2.74522105289026	873.914209424484	-10.7250256425219	5.48945310610503	1.11447045016668	-1.14041630448635	0.00165676583945606	0.00109711952969987
1.06	0.549604195238631	2.86781961478872	872.45040582052	-10.6012695653487	5.62600472634796	1.1031292857972	-1.12833502988115	0.00177064310791852	0.00126414769502209
1.07	0.375491124318222	3.00139779791465	871.156153965419	-10.4514871831614	5.7732691426039	1.09636013351013	-1.120818801219	0.0019168963453976	0.00144263060233152
1.08	0.193716678296126	3.1304799092475	870.114163207235	-10.2804103201482	5.92797786397469	1.09600260358095	-1.11969223273034	0.00209127624328809	0.00162821857036755
1.09	0.0128705041431271	3.23837217653647	869.368280459316	-10.0931858679297	6.08575528444986	1.10346990838963	-1.12634925801208	0.00228848188345765	0.00181551697058185
1.1	-0.158576095443946	3.30757110120992	868.929148249389	-9.89456715110408	6.2423262524994	1.11973203913925	-1.14171848740477	0.00250315494188735	0.00199943364381716
1.11	-0.31422769405921	3.32068591867587	868.787262213575	-9.68857621991093	6.394603050517	1.1452640246168	-1.16619745838038	0.00273043700268738	0.00217633429566078
1.12	-0.450966093008022	3.26216979473627	868.928645449733	-9.47861016710683	6.54133544653055	1.17993045610965	-1.19953841664409	0.00296605695141094	0.00234467665747201
1.13	-0.568884631112222	3.12081542886943	869.347450847814	-9.26781365322927	6.68317732644828	1.22282831083312	-1.24071308628908	0.0032060789228584	0.00250499977904262
1.14	-0.670027975431499	2.8925514772465	870.050669880455	-9.05947983917197	6.82221850893914	1.2721565670612	-1.28782096954903	0.0034465239720719	0.00265936570336472
1.15	-0.756556512714029	2.58275080142616	871.052670509344	-8.85727646746357	6.96118165962977	1.32520029913562	-1.33811634992162	0.00368307305601057	0.00281050621520323
1.16	-0.829207283922022	2.20719124857353	872.360790194951	-8.66518981691587	7.1025504930067	1.37849722696261	-1.38820572696725	0.00391099211668255	0.00296097415016555
1.17	-0.886765825271062	1.79106619544742	873.956526491039	-8.48718815285733	7.24787341429606	1.42820084800758	-1.43441661019182	0.0041253327648918	0.00311254229359365
1.18	-0.926774254418398	1.36596227317601	875.778832266615	-8.32668871276508	7.39740251794708	1.4705857126717	-1.47327874469637	0.00432138610610266	0.00326597409591994
