Time [s]	GRFml [N]	GRFap [N]	GRFv [N]	Mml [N.m]	Map [N.m]	Mv [N.m]	Mfree [N.m]	COPml [m]	COPap [m]
0.01	1.55649376443064	1.61044631414132	887.052199816391	-4.18950314791622	20.151857094223	1.13378440271967	-1.17773043556563	-0.000580584177889532	0.00153089622659774
0.02	1.40859247018392	1.40312853091512	887.318456478224	-4.11030143194943	20.0042167896621	1.16006193330588	-1.19833805561826	-0.000491323867704563	0.00135603390169542
0.03	1.27443675766893	1.22815891886506	887.504180015814	-4.03871508521696	19.8643990466925	1.18525664947896	-1.21866847302644	-0.000411109034227142	0.00119179490470628
0.04	1.16898724253757	1.11338165108823	887.540863027237	-3.98176429682386	19.7369719879924	1.20830886659075	-1.23836599778464	-0.000348242467766324	0.00104486700129847
0.05	1.10095346232739	1.07298314725235	887.384945892398	-3.94238748201912	19.6248589708322	1.2282444453699	-1.25682266919678	-0.000306265794524752	0.000919544588583732
0.06	1.06975442529006	1.10424074245051	887.021306272202	-3.91848623400335	19.5299189458206	1.24433505408053	-1.273253274191	-0.0002828556335015	0.000818316704144839
0.07	1.06416361320776	1.18826335014405	886.461635292708	-3.90328516589811	19.4540717768221	1.25627220443221	-1.28688216334979	-0.000270240408480005	0.000743172008627613
0.08	1.06334770324809	1.29444903754787	885.740492400663	-3.88687639348373	19.4004132317963	1.26426129876527	-1.29714369158685	-0.000256978310115286	0.000696925415837435
0.09	1.0405657493255	1.38748441571117	884.911709657928	-3.85850424662497	19.3736751591664	1.2689652005475	-1.30379924125737	-0.000230579073127068	0.000683779630281711
0.1	0.969061217212288	1.43515827641382	884.046068269655	-3.80896406835215	19.379631760443	1.27128955134149	-1.30692171052922	-0.000180251923323937	0.00070865983620666
0.11	0.828860028353854	1.41519561133538	883.228919584669	-3.73249321420138	19.4235285474471	1.2720708442902	-1.30676334408731	-9.90757185693747e-05	0.000775454322055558
0.12	0.61260364932828	1.31970787867773	882.555062896492	-3.62771673030547	19.5080894410718	1.27177089737096	-1.30357265932304	1.48974679072822e-05	0.000884866547966212
0.13	0.328507026414357	1.15652489808903	882.118627605424	-3.49751138633785	19.6319083050801	1.27028137025864	-1.29744127578825	0.00015875305717139	0.00103285188864249
0.14	-0.000816958925529095	0.947388399645644	881.997883195155	-3.34797072227911	19.7889305164586	1.26690341014708	-1.2882408998389	0.000325832284573058	0.00121043790356523
0.15	-0.343706845926588	0.723560029613721	882.237832736033	-3.18688914724913	19.9693165276366	1.26050953832881	-1.27566925099748	0.000507394761363855	0.00140518002789475
0.16	-0.667621711128813	0.519752710363138	882.835701986144	-3.02226410920584	20.1614314634196	1.2498406220796	-1.25938181332557	0.000694277542928612	0.00160382425006073
0.17	-0.947722212151173	0.367462156824245	883.734816451738	-2.86122383065852	20.3542584745649	1.23385724892964	-1.23916021976959	0.000878106844023008	0.00179523256096031
0.18	-1.17317435459082	0.288821535446276	884.830449249194	-2.70956449929496	20.5393778263939	1.21205830042506	-1.21506428356476	0.00105186360125564	0.00197250046264819
0.19	-1.34913619497662	0.292059080121266	885.987587093757	-2.57181187121361	20.7118510237498	1.18469646661805	-1.18752968272693	0.00120989472563138	0.00213351492157143
0.2	-1.49377654200558	0.369474850885722	887.066518158365	-2.45151249276858	20.8698124259066	1.15285143534452	-1.1573971835811	0.0013476851584282	0.00227983284572952
0.21	-1.63132987618708	0.498506116350656	887.94924731366	-2.35139337522434	21.0131030584187	1.11835545347944	-1.12588059373682	0.00146177219924426	0.00241444090764509
0.22	-1.78353448779713	0.645896618968556	888.559179293854	-2.27313558618402	21.141660421315	1.08359349514164	-1.0944908812803	0.00155006329751473	0.00253940397763441
0.23	-1.96235609637913	0.774295974981217	888.868632496039	-2.21674628776718	21.2544479866819	1.05121608651298	-1.06493085594839	0.00161255784510694	0.00265443489362938
0.24	-2.16646078638086	0.84996765569312	888.89289728345	-2.17978634564279	21.3494415585418	1.02380698209788	-1.03896347992578	0.00165218115218702	0.00275700871054158
0.25	-2.38260224034297	0.849898484533998	888.674251927685	-2.15689641191531	21.4246980152165	1.00354515212294	-1.01824730225113	0.00167524525075491	0.00284396473079646
0.26	-2.5913617754294	0.766649871232844	888.262813743651	-2.14006970505975	21.4800197104514	0.991897560438929	-1.00413465302337	0.00169105641721268	0.00291386823511808
0.27	-2.77512145597838	0.609806015977678	887.70193698308	-2.11991772856493	21.518410723555	0.989380217914649	-0.997445928617452	0.00171041958461371	0.00296902230597995
0.28	-2.92532288903896	0.403725524470317	887.023657876096	-2.08782144659843	21.5465386680593	0.995428553902001	-0.998260613842943	0.00174318155369479	0.00301609759892824
0.29	-3.04629373961302	0.182233159857017	886.255229977429	-2.0384769888486	21.5737719372528	1.00841723747342	-1.00578837538777	0.0017953730743121	0.00306486802315104
0.3	-3.15416171618557	-0.0183893603260944	885.432842600854	-1.97207822693647	21.6099199281951	1.02585556558422	-1.01838567263168	0.00186679446570481	0.00312530144702688
0.31	-3.27118556601487	-0.166449005758934	884.615196010245	-1.89534616747587	21.6623381019088	1.04475313281842	-1.03375595888198	0.00194991369048247	0.00320394850451622
0.32	-3.41753460129342	-0.240424754027835	883.889179915791	-1.82086008726188	21.7333516086098	1.06210631053899	-1.04931905769561	0.00203066553554965	0.0033009124066084
0.33	-3.603482138979	-0.232118660688729	883.362730924473	-1.76461424989965	21.8188811744737	1.07541282151014	-1.0626754313371	0.00209121735310647	0.00340852600840064
0.34	-3.82478062636316	-0.147082495328535	883.144953689314	-1.74227770575266	21.9087540100306	1.08309756253749	-1.0720483383364	0.00211415541896731	0.00351227313221386
0.35	-4.06275236741959	-0.00262939684790021	883.318793996168	-1.76509064818424	21.9886149160901	1.08474250698317	-1.07658202175734	0.00208704729302667	0.00359370870124076
0.36	-4.28887460512441	0.175882713105646	883.914882871096	-1.83652563658175	22.0428406420426	1.08106046224646	-1.07641392601618	0.00200612837118985	0.00363446403838608
0.37	-4.47206830778079	0.359685549778587	884.895341574112	-1.95069245396523	22.0575884234711	1.07362486985428	-1.07251162982599	0.00187803472481674	0.00362011378556676
0.38	-4.58611024191768	0.521399006063745	886.153349146503	-2.09300453516455	22.0231539492098	1.06444119268489	-1.066343365027	0.00171902051966766	0.00354281595507377
0.39	-4.61482034345101	0.639361914669857	887.529351334347	-2.2429957085604	21.9351253217629	1.05549163771772	-1.05950284948967	0.00155179720347254	0.00340212697250292
0.4	-4.55375040218895	0.700963344429932	888.839799995038	-2.37858110077125	21.7942562574895	1.04838463694635	-1.05341265788205	0.00140078857703729	0.00320402702319483
0.41	-4.40852034672027	0.704507727654573	889.910966997633	-2.48068257179683	21.6053737680339	1.04419253835754	-1.04918393105049	0.00128700441107565	0.0029587271101485
0.42	-4.19112860822236	0.659234182208687	890.609588952633	-2.53709021804731	21.3758501306644	1.04348417828636	-1.04763437949771	0.00122378273483847	0.00267809186906964
0.43	-3.91606401555666	0.583302531574268	890.863760615114	-2.54469522308055	21.114155488539	1.04648471902372	-1.04939506074221	0.00121435268345815	0.00237344704882975
0.44	-3.59773742528816	0.499901435412891	890.670697305405	-2.50969489764423	20.8288084234132	1.05325379287181	-1.05500133490048	0.00125165028105123	0.0020542216521377
0.45	-3.24983857587512	0.432089025017747	890.091506329764	-2.44588134719196	20.5277681945548	1.06378099872928	-1.06488050658586	0.00132025335589236	0.00172746273166879
0.46	-2.8861484678122	0.39741501391386	889.235894429121	-2.37153895122125	20.2180929614378	1.07795025554385	-1.07921007089258	0.001399845886078	0.00139793205856437
0.47	-2.52158381678875	0.403620362885701	888.241218578924	-2.3057085095913	19.9056142625884	1.09539728383616	-1.0976978723415	0.00146936850166179	0.00106836811062383
0.48	-2.17214282717888	0.446619459283343	887.250416603509	-2.26461274520936	19.5944651181761	1.11534474084531	-1.11939262295154	0.00151097520465626	0.000739593284854068
0.49	-1.85299526824473	0.511494689115799	886.392478596762	-2.25891701684519	19.2864860954737	1.13652022481882	-1.14264224747155	0.00151305281513447	0.000410385455263784
0.5	-1.57495020501763	0.576465637907585	885.767754096137	-2.29228066689806	18.980715894561	1.15723396090419	-1.16527148992278	0.00147180206371533	7.72814737746153e-05
0.51	-1.34049607742827	0.618945336865763	885.439009542346	-2.36139248446759	18.6732543367284	1.17562735217451	-1.18496630757409	0.00139116827764585	-0.000265384874279184
0.52	-1.14110534843749	0.622128414193674	885.428069121674	-2.45741474811484	18.3577224967991	1.19002864110393	-1.19976490817932	0.00128120622163252	-0.000624945216971373
0.53	-0.957288787017914	0.58030162379186	885.717208639109	-2.56850928380441	18.0263621630974	1.19929963263275	-1.20850062396418	0.00115524144729773	-0.00100927881650675
0.54	-0.762022688938265	0.501341931061761	886.25419015559	-2.68291320972444	17.6715923039498	1.20305024938342	-1.21104423698758	0.00102641986199081	-0.00142527820957655
0.55	-0.526972231088821	0.405622941770598	886.959805141141	-2.79190802782441	17.2876663938423	1.20163929043675	-1.20825417337097	0.000904377286423452	-0.00187725703485841
0.56	-0.229850682531111	0.321576272437241	887.73690556939	-2.89202245871461	16.87201979074	1.19595391140544	-1.2016401687688	0.000792767122825389	-0.00236572429921267
0.57	0.139293646580024	0.279135220352311	888.480054753945	-2.98595104149613	16.4259803126485	1.18703840826379	-1.19284358815106	0.000688228815792558	-0.00288686051850962
0.58	0.574856925348165	0.302904657576603	889.08508743071	-3.08194775781732	15.9547046892696	1.17569611937724	-1.18310032567719	0.000581071936644806	-0.00343282431298886
0.59	1.05659661773494	0.406942432509445	889.458034298484	-3.191814585897	15.4664288670745	1.16219886243589	-1.17285903063365	0.000457548099634941	-0.00399277203858561
0.6	1.55443909421611	0.592483029515415	889.523041215034	-3.3279599847029	14.971301879412	1.14620469568863	-1.16167791105244	0.000303184509648502	-0.00455427769199662
0.61	2.03568511597996	0.848970674026571	889.229062166409	-3.50024923403598	14.4801512770634	1.12691983421406	-1.14843586467835	0.000106373260913228	-0.00510476248007896
0.62	2.47238535794647	1.15773079186409	888.5551585868	-3.71342550866385	14.0034835992885	1.10346538813646	-1.13179704534597	-0.000138658749955334	-0.00563260282530836
0.63	2.84668450998953	1.49685733795532	887.51414488723	-3.96572026633611	13.5508826424133	1.07534626876967	-1.11079151647474	-0.000430201796606466	-0.00612774955767736
0.64	3.15268815608121	1.84568178999679	886.154116838616	-4.24893867745285	13.1307914683328	1.04288526769089	-1.08533965647267	-0.000759073329578808	-0.00658189026934985
0.65	3.39460061267416	2.18756416234775	884.557227176796	-4.54990655059621	12.750519707307	1.00748862140066	-1.05656267042673	-0.00111017853612105	-0.00698834475843485
0.66	3.58208670150356	2.51053138506772	882.83511466547	-4.85282893547152	12.4162556562764	0.971649051042808	-1.02677987600505	-0.00146513597160258	-0.00734194672912286
0.67	3.72462762567342	2.80616005097825	881.12075900502	-5.14193899858807	12.1328967102342	0.938657658660125	-0.999177580722882	-0.00180528365369481	-0.0076391213632826
0.68	3.82683888942371	3.06772058991675	879.557175771058	-5.40384287639324	11.9036181765211	0.912070104609279	-0.977220562006237	-0.00211440016014175	-0.00787824690485989
0.69	3.88628898670765	3.28874981842249	878.284079372787	-5.62914974566805	11.7292331708246	0.895036700051421	-0.963943043124811	-0.0023806683667138	-0.00806024139367928
0.7	3.89448727304806	3.46287808549265	877.424158086199	-5.81322422872931	11.6075082183356	0.889645591342214	-0.961286970044956	-0.00259767710305525	-0.00818919424765885
0.71	3.84068869980283	3.58507697705154	877.070711910486	-5.95611513957574	11.5326606033288	0.89643477336201	-0.96964684297302	-0.0027644945416534	-0.00827279754285548
0.72	3.71728890630673	3.65379538371368	877.278052022173	-6.06184326395717	11.4952657714338	0.914200548531266	-0.987736458507041	-0.002884993787999	-0.00832233134156463
0.73	3.52508606211319	3.67299225120877	878.055403706496	-6.13726812250521	11.4827500436565	0.940171078445176	-1.01282315259731	-0.00296666113273325	-0.00835201660400109
0.74	3.27668970178754	3.65302310054558	879.364398418791	-6.19073644446088	11.4805415321276	0.970532888440267	-1.04129214180979	-0.00301910885472112	-0.00837766287213609
0.75	2.99685985641795	3.60970443756884	881.119900642156	-6.23068893528185	11.473807672559	1.00121042490568	-1.06942271128379	-0.00305249425588272	-0.0084147001468054
0.76	2.7194301911786	3.56152429680864	883.194038285234	-6.26439180219135	11.4495392939481	1.02872438475356	-1.09419709380351	-0.00307603968142556	-0.00847587580638726
0.77	2.48146389443762	3.5256547699166	885.423751027196	-6.29695932735674	11.3985875613862	1.05091606787817	-1.1139397919975	-0.00309684739322524	-0.00856907241272176
0.78	2.31611443829019	3.51391102594004	887.622541540909	-6.33081781498394	11.3171784318702	1.0673403159531	-1.12861251181588	-0.00311918194541394	-0.00869579240810492
0.79	2.24605679109472	3.52991927995891	889.596946739413	-6.36570632832471	11.2074739087733	1.07920361234509	-1.13966876379295	-0.00314432925123231	-0.00885079538725919
0.8	2.27919101144907	3.56845479073453	891.167275935691	-6.39921213337158	11.0769424389162	1.08884299740318	-1.14948744519214	-0.00317103505775462	-0.00902313675752042
0.81	2.4076528256266	3.61727795668732	892.190521952894	-6.42771725355313	10.9366098409983	1.09887456479797	-1.16052668716895	-0.00319639737467103	-0.00919848358197473
0.82	2.61020926606621	3.66102832245391	892.581588640597	-6.44751970891627	10.7986006635303	1.11124783341684	-1.17443196656561	-0.00321697119016273	-0.00936218020340435
0.83	2.85716891314067	3.68607679455778	892.327880829814	-6.45582514363388	10.6736335322225	1.12648924366014	-1.19136556733114	-0.00322977491593213	-0.00950224190487753
0.84	3.11627800230215	3.6848990769002	891.492584616168	-6.45131235998837	10.5692023650308	1.14338570923469	-1.20978333934913	-0.00323289570440488	-0.00961139052570903
0.85	3.35789477285758	3.65863054739961	890.203947895513	-6.43407561422685	10.4890108804617	1.15925069416223	-1.22677488326677	-0.003225490312037	-0.00968746699641465
0.86	3.55808749303057	3.61696832025836	888.631274913359	-6.40492767576364	10.4338581189628	1.17075447433628	-1.23892874062772	-0.00320716026449963	-0.00973202518596544
0.87	3.69908997762307	3.57534694845618	886.952288450789	-6.3642676807789	10.403697771542	1.17512605633218	-1.24352188695647	-0.00317690220675659	-0.00974750308195754
0.88	3.76753948526402	3.55010419544515	885.319706114417	-6.31090463231002	10.4001613230196	1.17139337227924	-1.23970606826977	-0.003132023687065	-0.00973389707032812
0.89	3.75179138068961	3.55294694273766	883.836036316983	-6.24130137629764	10.4285972619761	1.16126624461415	-1.22931370271485	-0.00306748975269577	-0.0096861431340009
0.9	3.64002164342236	3.58626346558574	882.543923368059	-6.14961265727622	10.4987446246033	1.14931575662305	-1.21696222637133	-0.00297607255484245	-0.00959330204167841
0.91	3.42057204149992	3.64064725047033	881.434973051815	-6.02864177087461	10.6235482111925	1.14227052597438	-1.20930222821422	-0.00284942194818094	-0.0094401347649859
0.92	3.08506889856177	3.69544740655894	880.474063602788	-5.87151063740142	10.8162403528915	1.1475048199747	-1.21350124121003	-0.0026798392068067	-0.00921086431169965
0.93	2.63353819054816	3.72238021897543	879.630698409881	-5.67355150738182	11.0864645942921	1.17106777716607	-1.23531601002138	-0.00246224552096486	-0.00889410203054297
0.94	2.07954953234961	3.69142208374654	878.906110848042	-5.43380477936787	11.4366607029997	1.21580605825787	-1.27729414261344	-0.00219571446751732	-0.00848737333458299
0.95	1.45289416281219	3.57756808469468	878.345944287328	-5.15560814149628	11.8599739938921	1.28017867950227	-1.33768054844929	-0.00188404532888087	-0.00799965047373014
0.96	0.79778734444075	3.36676167896002	878.033303705315	-4.84605949988579	12.3405346659012	1.35820904835846	-1.41044544924389	-0.00153516201553539	-0.00745085591389905
0.97	0.166044037146653	3.05947555989736	878.064138233422	-4.51452099042519	12.8561924366246	1.44069110160724	-1.48652677696641	-0.00115951784395851	-0.00686827989987215
0.98	-0.393369915554697	2.67102760326136	878.513593315927	-4.17065901340001	13.3829545151788	1.51736198344469	-1.55598752967699	-0.000768021260218577	-0.00628091561923166
0.99	-0.845327799911765	2.22859470861977	879.405559441382	-3.82266585644132	13.8997747840153	1.57941405742427	-1.61046544656084	-0.000370150138508274	-0.00571345646774152
1	-1.17633046963953	1.76578882070334	880.696699152696	-3.47623470323214	14.3922108681815	1.62157531652141	-1.64516370733545	2.71545414198826e-05	-0.00518183422719604
1.01	-1.3961062607756	1.31630620632839	882.281097577764	-3.13459930851723	14.8538560664974	1.64310511556355	-1.6597576256858	0.000419491782939985	-0.0046916485823818
1.02	-1.53203772055497	0.908345987154046	884.014330755846	-2.79960045409865	15.2852181009959	1.64740035095935	-1.65793924692031	0.000803934043483556	-0.00423984505021741
1.03	-1.61798064403423	0.561158305316839	885.748948675997	-2.47341711843266	15.6905742659583	1.64036628626244	-1.64577041098255	0.00117725842099647	-0.00381890600236384
1.04	-1.68117608581815	0.284341951668253	887.369562103783	-2.16038984054719	16.0739798088191	1.62811408861593	-1.62940691324353	0.00153406381709453	-0.00342201416411575
1.05	-1.73183199103828	0.0796155515844605	888.816108520656	-1.86831197846745	16.4358322247893	1.6147613665429	-1.6129550523949	0.00186542422741931	-0.00304739218541933
1.06	-1.75918051190736	-0.0559681967444369	890.088090814894	-1.6086751817267	16.7711476539484	1.60106217149331	-1.59716205610461	0.00215862412898149	-0.0027003700604788
1.07	-1.73562916302923	-0.126765285021364	891.228987713111	-1.39560266353601	17.0700990237786	1.58430303638686	-1.57935097946716	0.00239827276930238	-0.00239253071428092
1.08	-1.62778948233898	-0.136510615261704	892.296398263971	-1.24354031696988	17.3206201788254	1.5594766959281	-1.55459406635599	0.00256874385796979	-0.00213824407179375
1.09	-1.41071550862209	-0.0882087618489569	893.327791700186	-1.16413295675451	17.5122409307827	1.52133014712804	-1.51771854046616	0.00265750463632197	-0.00194970749007911
1.1	-1.08051600041669	0.0141838332356501	894.312812264145	-1.16300398244992	17.6399712162909	1.46661217944912	-1.46548392373929	0.00265857684969317	-0.00183203123201026
1.11	-0.661039414023659	0.163188594351031	895.180862476833	-1.23729098520611	17.7070746936012	1.39579648729362	-1.39823359674251	0.0025752131452349	-0.00177985099475675
1.12	-0.202343439136891	0.34568953836355	895.808072875616	-1.37470214618128	17.7259207394516	1.31373331028671	-1.32050405942121	0.00242095220409322	-0.00177647688398364
1.13	0.228624927643283	0.542543004919618	896.042259455036	-1.55454044074024	17.7166483272147	1.22901785017957	-1.24040381747715	0.0022185492914214	-0.00179587226823619
1.14	0.562298776993659	0.730598355949118	895.739630460136	-1.75065957480542	17.7039496067482	1.15224623496982	-1.16794029846983	0.00199679927722174	-0.00180701190320431
1.15	0.741569331147382	0.886911686615919	894.804005811497	-1.93579478796971	17.712736826027	1.09364271677311	-1.11276569493002	0.00178583884396188	-0.00177958661970468
1.16	0.733657460570581	0.994030038385989	893.218714848929	-2.0863074382931	17.7636984110988	1.06069928182726	-1.0819519745934	0.00161196384092366	-0.00168972238718462
1.17	0.536063460523864	1.04465404981134	891.063091022953	-2.18622622359804	17.8697467811441	1.05643912539559	-1.0783660142281	0.00149317959152306	-0.00152440425162759
1.18	0.175728116792983	1.04398387941214	888.509067413324	-2.22962229368385	18.0341336157575	1.0787238457443	-1.10002712224785	0.00143654435264962	-0.00128361147570505
