Time [s]	GRFml [N]	GRFap [N]	GRFv [N]	Mml [N.m]	Map [N.m]	Mv [N.m]	Mfree [N.m]	COPml [m]	COPap [m]
0.01	23.5952688896273	-4.96625834865816	659.058353970905	-34.4321821141295	3.68439670227067	0.679395807959688	1.94079589865089	0.00742080366145926	-0.0192754173682083
0.02	23.8637275124531	-5.1524367422583	659.167278280547	-34.1306557321328	3.72125424333938	0.730009968394174	1.99559195253644	0.00747796211644079	-0.0197457624811026
0.03	24.1265786051672	-5.34692205903476	659.147029276044	-33.8103686342259	3.75370737152465	0.781596843949891	2.05034748951629	0.00752911994316251	-0.0202372431270032
0.04	24.3785051093045	-5.55092764913715	658.938060490591	-33.4672685128544	3.7796211622145	0.833846796942869	2.10441958508471	0.00757159636262085	-0.0207516853706918
0.05	24.6145026674632	-5.76509829548161	658.487020316398	-33.098476318121	3.79719003450221	0.886371801291404	2.15714419309256	0.00760314458261478	-0.0212895164694263
0.06	24.830073044103	-5.98929822748072	657.750611192507	-32.7027719426672	3.80506928977906	0.938689463022484	2.20784327362434	0.00762211544844404	-0.0218492997880148
0.07	25.0213923138788	-6.22244334586734	656.699007760021	-32.2809922944929	3.80247938897144	0.990212415853055	2.25583333406143	0.00762758714652126	-0.0224273708354205
0.08	25.1854454531837	-6.46239271570449	655.318609240839	-31.8363085623607	3.78927559586135	1.04024481983733	2.30043534132206	0.00761945178654155	-0.0230176100138591
0.09	25.3201210117294	-6.7059099514396	653.613941323791	-31.3743578609234	3.76597829320786	1.08798718141615	2.34098582510772	0.00759845291127816	-0.0236113782988357
0.1	25.424261877592	-6.94870004941919	651.608573014721	-30.9032143128728	3.73376219440746	1.13255011770629	2.37684892753026	0.00756617144762212	-0.0241976309456594
0.11	25.4976706239522	-7.18552191817425	649.344970978764	-30.433195255857	3.69440558663542	1.17297705113969	2.40742915877143	0.00752496103904619	-0.024763212227705
0.12	25.5410703855159	-7.41037168477092	646.883274551529	-29.9765089558498	3.6502034381889	1.20827518405112	2.43218466706526	0.00747783687133855	-0.0252933219007934
0.13	25.5560245180115	-7.61672714511857	644.299035526724	-29.5467603220446	3.60385050486694	1.23745350432874	2.45064088877614	0.00742832487221308	-0.0257721322585128
0.14	25.544820327331	-7.79783975364076	641.680024884793	-29.1583400808656	3.55830234180703	1.25956604647205	2.46240447376188	0.00738028044642208	-0.0261835239523054
0.15	25.5103238241956	-7.94705752823321	639.122260901806	-28.8257302002542	3.51662327904339	1.27375820630462	2.46717735349676	0.00733768766146404	-0.0265118998144656
0.16	25.455813702626	-8.05816032732809	636.725457012109	-28.5627636894631	3.48183091006356	1.27931360570049	2.46477072028274	0.00730445100260518	-0.0267430293185337
0.17	25.3848035212732	-8.12568821322253	634.588121277079	-28.3818799825136	3.45674647852781	1.27569884331993	2.45511851920602	0.00728419243498164	-0.0268648725618922
0.18	25.3008613775572	-8.14524405402532	632.802560739247	-28.2934178190458	3.44385977772843	1.26260345883982	2.43828984209899	0.00728006647598473	-0.0268683321869911
0.19	25.2074362201486	-8.11375307140698	631.45005229592	-28.3049858655225	3.44521588578676	1.23997258419287	2.41449939075881	0.00729460518797138	-0.0267478847339522
0.2	25.1076993788357	-8.02966458628478	630.596436601435	-28.4209473972465	3.46232936145486	1.20803005055603	2.38411498966923	0.00732960333589726	-0.0265020495483067
0.21	25.0044089492735	-7.89308457019087	630.288373120959	-28.6420494269893	3.49612955495104	1.16729015086836	2.34766102257252	0.0073860513498315	-0.0261336632250749
0.22	24.8998034098767	-7.70583155598309	630.550463648392	-28.965219060166	3.54693858973766	1.11855680351632	2.30581668257814	0.00746412023765345	-0.0256499399450374
0.23	24.795529330962	-7.47141275046549	631.383409791342	-29.3835410037748	3.6144814888493	1.06290949579488	2.259408088891	0.00756319843009727	-0.0250623118956977
0.24	24.6926063264811	-7.19492156446715	632.763319077957	-29.8864205426703	3.69792598829241	1.0016760727496	2.20939364154508	0.00768197611563532	-0.0243860579957608
0.25	24.5914305615627	-6.88286197816178	634.642216876603	-30.4599264448872	3.79594791755389	0.936393141244685	2.15684244086515	0.00781856847944234	-0.0236397420717734
0.26	24.491816230449	-6.54290895536217	636.949760030992	-31.0872987003523	3.90681672641577	0.868755542030031	2.10290614701438	0.00797066597078449	-0.0228444923920746
0.27	24.3930725263305	-6.18361730761847	639.596086045551	-31.7495972494045	4.02849486195333	0.800556965937085	2.04878523151015	0.00813569775378133	-0.0220231623520734
0.28	24.2941118065343	-5.81409382880826	642.47567197657	-32.4264603890728	4.15874428184864	0.733624318246396	1.99569110002852	0.00831099409562798	-0.0211994168816939
0.29	24.1935829863618	-5.44364906735769	645.472023036701	-33.0969357556383	4.29523342978679	0.669748836287996	1.94480597022766	0.00849393458850818	-0.0203967909634125
0.3	24.0900227490138	-5.08144572654336	648.462965263925	-33.7403429787624	4.43563846502826	0.610617214292982	1.89724261441342	0.00868207150970234	-0.0196377659167238
0.31	23.9820160159219	-4.73616039036601	651.326282054898	-34.3371254827824	4.57773337381342	0.55774606912403	1.85400610017074	0.0088732208560783	-0.0189429063194022
0.32	23.8683563584919	-4.41567412288988	653.945413024201	-34.8696495510767	4.7194647162305	0.512422982572668	1.81595949381924	0.00906551715000014	-0.0183300960485914
0.33	23.7481967189295	-4.12680558769172	656.214926980615	-35.3229116207702	4.85900808497906	0.475657082023072	1.78379517462229	0.00925743156233742	-0.0178139062745653
0.34	23.6211810005188	-3.87509782133905	658.045489490979	-35.6851196663505	4.9948047710519	0.448141683004948	1.75801300485198	0.00944775591363446	-0.0174051215584872
0.35	23.4875478204129	-3.66466683420545	659.368069357922	-35.9481211790102	5.12557854467249	0.430230935574749	1.73890617855268	0.0096355575176453	-0.0171104426672619
0.36	23.3481989947006	-3.49811697827362	660.137166308108	-36.1076582759324	5.25033377374107	0.421931721180214	1.72655518434927	0.00982011156917147	-0.0169323765047821
0.37	23.2047271142097	-3.37652468968215	660.332892348568	-36.1634394305442	5.3683372353914	0.422911274289743	1.72082999527311	0.0100008188843792	-0.0168693149065206
0.38	23.0593987987919	-3.29948894895211	659.961798902136	-36.1190267059846	5.47908686550386	0.432520195279353	1.72140034348894	0.0101771173526867	-0.0169157952678515
0.39	22.9150927773316	-3.26524375280363	659.056407655146	-35.9815466887851	5.58227129333021	0.4498297223249	1.72775372750366	0.0103483955341284	-0.0170629274606111
0.4	22.7751946856645	-3.27082518568955	657.673471292921	-35.7612420607674	5.67772430306884	0.473681385093962	1.7392205969587	0.0105139164900852	-0.0172989636655081
0.41	22.6434532343204	-3.31228342021575	655.89105702698	-35.4708884590115	5.76537835254102	0.502746514316887	1.75500592791904	0.0106727591873529	-0.0176099810440941
0.42	22.5238049878211	-3.38492824206957	653.804607171569	-35.1251075678411	5.84522098262604	0.535592566440549	1.77422611555763	0.0108237836510478	-0.0179806419933617
0.43	22.4201772324477	-3.48359554025385	651.522183477038	-34.7396119616809	5.91725740885853	0.570752871935897	1.79594977105031	0.0109656244297983	-0.018394993398271
0.44	22.3362801202144	-3.60292165547199	649.159142512668	-34.3304198737671	5.98148185135134	0.60679625064869	1.81924064328413	0.0110967148596365	-0.0188372650493425
0.45	22.2754003231182	-3.73761254167724	646.83251591401	-33.9130787134613	6.03785929314211	0.642392968354602	1.84320054676232	0.0112153421051667	-0.0192926283203095
0.46	22.2402087157118	-3.88269534690166	644.655380473201	-33.5019348162949	6.08631842708902	0.676373734318733	1.86700993339902	0.0113197301410406	-0.0197478792498594
0.47	22.2325940798702	-4.03374121475698	642.731498531568	-33.1094837143504	6.12675562462157	0.707778847325683	1.88996366723023	0.0114081449486337	-0.0201920151249625
0.48	22.2535335050341	-4.187049780661	641.150489580559	-32.7458303841198	6.15904889886986	0.735895163359464	1.91149970182852	0.0114790135835011	-0.0206166801487652
0.49	22.3030081105015	-4.33978790052728	639.983760939297	-32.4182827678494	6.18308009488308	0.760279248142784	1.93121874553723	0.0115310468209144	-0.0210164632949596
0.5	22.3799700682482	-4.49007750194888	639.281381171983	-32.1310947350948	6.19876296474285	0.780765850718259	1.94889361623327	0.0115633541888437	-0.0213890394334945
0.51	22.4823638259953	-4.63702997487931	639.070027436812	-31.8853669527763	6.20607440615438	0.797461643833671	1.96446778147497	0.0115755406026521	-0.0217351526940776
0.52	22.6072011249858	-4.78072710034736	639.352080487029	-31.6791062762278	6.20508597593238	0.810724974843492	1.97804346354195	0.0115677755581303	-0.0220584483316403
0.53	22.7506860976954	-4.92215103127053	640.105881974761	-31.5074366617575	6.19599283636479	0.821133110224208	1.98986055303574	0.0115408286947577	-0.0223651657333572
0.54	22.9083836415944	-5.06306817368275	641.287111345249	-31.3629476022113	6.17913754029001	0.829439095070279	2.00026830784584	0.0114960690576738	-0.0226637104894792
0.55	23.0754216050852	-5.2058738650708	642.831186957499	-31.2361600196742	6.15502648465892	0.836520850654756	2.00969232216429	0.0114354289889684	-0.0229641276171525
0.56	23.2467152692346	-5.35340641990811	644.656550660707	-31.1160846677654	6.12433742643082	0.843325472167185	2.01859947307737	0.0113613367079808	-0.0232775011456236
0.57	23.4172012987619	-5.50874034134861	646.668658833399	-30.9908445797376	6.0879171147727	0.850811849742318	2.02746347542856	0.0112766238868382	-0.0236153074325849
0.58	23.5820678499389	-5.67496923571116	648.7644771291	-30.8483310486106	6.0467688004358	0.859894715046155	2.03673333137354	0.0111844157098301	-0.0239887508400527
0.59	23.7369678856466	-5.85498919127777	650.837261461426	-30.6768620640485	6.00203008579306	0.8713930206039	2.04680642094304	0.0110880110753731	-0.0244081107496866
0.6	23.8782039242672	-6.05129309960852	652.781404044465	-30.4658130057831	5.95494222792077	0.885985207914569	2.05800733994573	0.0109907599843407	-0.0248821282881506
0.61	24.0028743499348	-6.26578563623061	654.497129943114	-30.2061915875816	5.90681255803595	0.904173440374163	2.07057295296641	0.0108959440683523	-0.0254174594953934
0.62	24.1089739001789	-6.49962743180295	655.89484546647	-29.8911323871063	5.85897209764493	0.926258302162495	2.08464357984809	0.0108066649480281	-0.0260182189644774
0.63	24.195443849692	-6.75311542785461	656.898963381473	-29.5162905722035	5.81273071002311	0.95232483290929	2.10025983350088	0.0107257439043475	-0.0266856342373636
0.64	24.2621705283968	-7.02560461036009	657.451059629468	-29.0801194025809	5.76933221308602	0.982240120105849	2.11736439866954	0.0106556353280665	-0.0274178265655724
0.65	24.3099339407625	-7.31547434524256	657.512250185012	-28.5840214935944	5.72991179790381	1.01566204569081	2.13580797279	0.0105983556226384	-0.0282097282269832
0.66	24.3403111881692	-7.62014049961055	657.064713100543	-28.0323694220436	5.69545786083744	1.05205821518292	2.15535863970368	0.0105554286491152	-0.0290531406829582
0.67	24.3555419515217	-7.93611251432453	656.112317929834	-27.4323967903272	5.66677999290016	1.09073361659522	2.1757140566403	0.0105278483567546	-0.0299369317548578
0.68	24.3583653114532	-8.25909268192875	654.680361088251	-26.7939661245241	5.64448441276006	1.13086518433008	2.19651594444716	0.0105160588738364	-0.0308473639989863
0.69	24.3518385520502	-8.58411315193472	652.814439981105	-26.1292247727162	5.62895762058017	1.17154119439157	2.21736643223139	0.0105199519849651	-0.0317685408545806
0.7	24.3391492412779	-8.90570469244135	650.578529852494	-25.4521641354746	5.62035853110217	1.21180329728477	2.23784579388153	0.0105388815603209	-0.0326829521890666
0.71	24.3234317877448	-9.21809002887019	648.05235446761	-24.7781009815368	5.6186188563671	1.25068900161407	2.25753102511812	0.0105716941170926	-0.0335720967808729
0.72	24.3075988703376	-9.51539368941568	645.32816437279	-24.12310219691	5.62345108607588	1.28727254513926	2.27601457021012	0.0106167742897539	-0.0344171562204425
0.73	24.2941967034168	-9.7918597319729	642.50705422661	-23.503376039948	5.63436308349417	1.3207023152916	2.2929223592975	0.010672103581861	-0.0351996927740988
0.74	24.2852911557256	-10.0420685158702	639.694963393171	-22.9346538167547	5.65067809373508	1.35023328751746	2.30793020932313	0.0107353303914844	-0.0359023429842865
0.75	24.2823894378174	-10.2611438091869	636.998511616361	-22.4315858680402	5.67155885525517	1.37525331363557	2.32077761796113	0.010803848969968	-0.0365094791601377
0.76	24.2863995828024	-10.4449419734281	634.520824249478	-22.0071749120962	5.6960345100575	1.39530248824513	2.33127806943932	0.0108748847114972	-0.0370078123830907
0.77	24.2976274478676	-10.5902157166058	632.357499384791	-21.6722681800662	5.72302910962934	1.41008522349997	2.33932518053441	0.0109455829959483	-0.0373869131128423
0.78	24.3158086322957	-10.6947459194025	630.592862564705	-21.4351274853127	5.75139069071747	1.41947504701145	2.3448943269957	0.0110130987302627	-0.037639628798916
0.79	24.3401706953385	-10.7574362758946	629.296643862861	-21.3010934757793	5.77992012110001	1.42351248279027	2.34803976703954	0.0110746837576138	-0.0377623819320039
0.8	24.3695194875703	-10.7783669036006	628.521197343878	-21.2723569225705	5.80739916138846	1.42239666357224	2.34888766755474	0.0111277694253859	-0.0377553365443854
0.81	24.4023423665593	-10.7588046168904	628.299364627615	-21.3478461018104	5.83261742553713	1.41647154227085	2.34762578472324	0.01117004181284	-0.037622426121771
0.82	24.4369205919532	-10.7011691703989	628.643062922515	-21.5232352380305	5.85439812379157	1.40620771412712	2.34449080491818	0.0111995074033599	-0.0373712410496111
0.83	24.4714432809063	-10.6089564116382	629.54265392504	-21.7910747088146	5.87162261587111	1.39218092894747	2.3397544803169	0.0112145473285761	-0.0370127789153974
0.84	24.5041159036832	-10.4866208814874	630.967123937002	-22.1410393802156	5.88325387460299	1.37504837012037	2.33370968375607	0.0112139586975236	-0.0365610660568539
0.85	24.5332573260216	-10.3394219158612	632.86507802344	-22.5602871734787	5.8883589543296	1.35552371461212	2.32665736818056	0.0111969819412909	-0.036032663520333
0.86	24.5573807466682	-10.1732386817799	635.166522687995	-23.0339158832973	5.88613047606633	1.33435188064015	2.31889517613418	0.0111633135439945	-0.0354460749178757
0.87	24.5752554066073	-9.99436077911065	637.785383127099	-23.5455025068823	5.87590699290088	1.31228423442232	2.31070814585597	0.0111131039887131	-0.0348210774011631
0.88	24.5859475281735	-9.80926201189012	640.62267346505	-24.0777060333957	5.85719190242572	1.2900548820511	2.30236164963769	0.011046941216765	-0.0341779999792201
0.89	24.5888404526889	-9.62436564165138	643.570212369844	-24.6129119143621	5.82967035214721	1.26835853347015	2.2940964211689	0.0109658203720157	-0.0335369755893082
0.9	24.5836352778446	-9.44580984721488	646.514753064303	-25.1338944102205	5.79322336692039	1.24783030588219	2.2861253159094	0.0108711010647088	-0.0329171946067886
0.91	24.5703343698351	-9.27922220669994	649.342376972977	-25.6244717960474	5.74793824410344	1.229027742309	2.2786313223296	0.0107644538206843	-0.0323361877957353
0.92	24.5492108897867	-9.12951177381281	651.942985074843	-26.0701291008206	5.69411414056866	1.21241526082144	2.27176630705432	0.0106477977547382	-0.0318091660298635
0.93	24.5207679105686	-9.00068673938827	654.214711407753	-26.4585837124101	5.63226174006055	1.19835121921872	2.26565002454759	0.0105232317909287	-0.031348442451257
0.94	24.485690820089	-8.89570476189808	656.068079927906	-26.7802708334759	5.5630959570968	1.18707777204443	2.26036903261298	0.010392961918429	-0.0309629601074801
0.95	24.4447965479348	-8.81636184321545	657.429729728281	-27.0287284096979	5.48752081343378	1.178713701681	2.25597530348332	0.0102592269956866	-0.0306579445688746
0.96	24.3989827705495	-8.76322415967356	658.24554488377	-27.2008647141616	5.40660591394939	1.17325041087413	2.25248448035236	0.0101242254858621	-0.0304346966594636
0.97	24.3491797148671	-8.73560558944846	658.483044029813	-27.2970961558937	5.32155433931718	1.1705512583062	2.24987387742801	0.00999004522607356	-0.0302905353497136
0.98	24.2963065641724	-8.73159187446243	658.132910942756	-27.3213479355413	5.23366224216681	1.17035439129513	2.24808044015618	0.00985859792407438	-0.0302188952008557
0.99	24.2412338419884	-8.74811049696951	657.209580217923	-27.2809157034842	5.14427095256633	1.17227917298691	2.2469989603773	0.00973155958143111	-0.0302095766913542
1	24.1847525687865	-8.78104352183081	655.750830560368	-27.1861921561566	5.05471293270605	1.17583621234928	2.2464808751803	0.00961031752469856	-0.0302491414965969
1.01	24.1275504960571	-8.82537893983108	653.816380735254	-27.0502682802949	4.96625343137405	1.18044088537747	2.24633397075499	0.00949592426396294	-0.0303214385582517
1.02	24.070195348798	-8.87539452531308	651.485528035143	-26.8884244540358	4.88003013746199	1.18543009138632	2.24632327105399	0.00938905807744771	-0.0304082408192192
1.03	24.0131247586084	-8.92486696366931	648.853914099131	-26.7175315704865	4.79699348195281	1.1900818294034	2.24617332591001	0.00928999012186575	-0.0304899670868824
1.04	23.9566424365617	-8.96729806814645	646.029545783483	-26.5553865107535	4.71785045826609	1.19363701988411	2.24557203559012	0.00919855804707322	-0.0305464589188444
1.05	23.900920095904	-8.99614933164525	643.128237214612	-26.4200094360806	4.64301489749244	1.19532285127931	2.24417606851262	0.00911414656121126	-0.0305577790202993
1.06	23.8460046587517	-9.00507586960692	640.268670932365	-26.3289323121979	4.57256703322571	1.19437681439978	2.24161785279896	0.00903567609437347	-0.0305049957289602
1.07	23.7918303341263	-8.98815100676523	637.567299176907	-26.298508697175	4.50622491629721	1.1900705132789	2.23751405298876	0.00896160151323852	-0.0303709180529301
1.08	23.738235203968	-8.94007332610244	635.133319284318	-26.3432740543638	4.44332979990361	1.18173231923115	2.23147537879059	0.00888992354259483	-0.0301407476652742
1.09	23.6849819718457	-8.85634889732701	633.063958724561	-26.4753837009473	4.38284702878071	1.16876797038261	2.22311750849155	0.00881821590663421	-0.0298026183627105
1.1	23.6317824971045	-8.7334425837414	631.440295011223	-26.704152047951	4.32338326095091	1.1506783122106	2.21207284090866	0.008743670980667	-0.0293479996798138
1.11	23.5783256465566	-8.56889372779177	630.323813642818	-27.0357121765672	4.26322006467062	1.12707352035303	2.19800271533341	0.00866316579443434	-0.0287719492733089
1.12	23.5243078483897	-8.36139306648695	629.753874163983	-27.4728092393303	4.20036311053935	1.09768333511994	2.18060966390222	0.00857334855547228	-0.0280732077456235
1.13	23.4694655400206	-8.11081935436061	629.746211763082	-28.0147349385243	4.13260536706426	1.06236305399368	2.15964919726705	0.00847074365762618	-0.0272541389441342
1.14	23.4136084818141	-7.81823580022917	630.292551533624	-28.6574037255053	4.0576019557331	1.0210952578183	2.1349405889088	0.00835187076982617	-0.0263205275460913
1.15	23.3566526853177	-7.48584798470473	631.361357094933	-29.3935647171286	3.9729536747563	0.973987471427114	2.10637613189523	0.00821337152236927	-0.0252812530903966
1.16	23.2986515032572	-7.11692635419736	632.899677538065	-30.2131369820766	3.8762956994448	0.921266163924246	2.07392840362901	0.00805213595804019	-0.0241478649539767
1.17	23.239823273735	-6.71569762755813	634.835999707451	-31.1036501441081	3.76538764370607	0.863267663527246	2.03765518723668	0.00786542058616137	-0.0229340858360946
1.18	23.1805738249547	-6.2872104561469	637.083959782867	-32.0507674865078	3.63820104278333	0.800426685638024	1.99770184861504	0.00765095063887888	-0.0216552721953466
1.19	23.1215121473752	-5.83718140981724	639.546722017414	-33.0388651817673	3.49300040135636	0.73326324319914	1.95430113271102	0.00740700081610179	-0.0203278591287594
1.2	23.0634576404517	-5.37182779457197	642.121796059476	-34.0516391101483	3.32841423970679	0.662368722050928	1.9077704955092	0.00713245107700685	-0.0189688148629264
