Time [s]	GRFml [N]	GRFap [N]	GRFv [N]	Mml [N.m]	Map [N.m]	Mv [N.m]	Mfree [N.m]	COPml [m]	COPap [m]
0.01	1.75860192799936	-2.3013772371217	556.309018622505	1.81556674855087	26.2425076141756	1.16731834671327	-1.05303801346624	0.000444221031623226	-0.00202849263481131
0.02	2.03499845134737	-2.47805493829656	555.124412652534	1.62455714658816	26.1470286894058	1.19346335258815	-1.07100407900964	0.000106882641148331	-0.00209803613790399
0.03	2.27800710330808	-2.62164144068648	554.105000063812	1.45312631470011	26.0668713581419	1.22013772811833	-1.09104083901888	-0.0001959973364134	-0.00215393773335099
0.04	2.46150633511546	-2.70753810201651	553.386563278601	1.31751092615164	26.0142901261505	1.24770756095869	-1.11465463607688	-0.000435843868051067	-0.00218560152464503
0.05	2.56989811677067	-2.72558814069012	553.05671365099	1.2282897366443	25.9976453221798	1.27542285829015	-1.14155536614896	-0.0005940470597392	-0.0021854192896254
0.06	2.59959802066501	-2.68167719153976	553.147840866429	1.18906578073241	26.020826266956	1.30137287906936	-1.16953940750655	-0.000664299069424445	-0.00214922865515005
0.07	2.5577411013292	-2.59478302536526	553.640839845326	1.19649664082643	26.0834434006439	1.32287382504702	-1.19502075755184	-0.000652551660524026	-0.00207627594565801
0.08	2.4588529053617	-2.49071706409675	554.475405643473	1.24159133054271	26.1814932215546	1.3370990751006	-1.21396015830065	-0.000574723337865457	-0.00196885668605801
0.09	2.3207844928547	-2.39473780766318	555.561519221085	1.31186751325961	26.3081115211123	1.34172145065248	-1.22285701777487	-0.000452864430590783	-0.00183187534321261
0.1	2.16121766521856	-2.32535764509598	556.788333041757	1.39376190935039	26.4541488175855	1.33540030537019	-1.21952640649894	-0.000310857058092417	-0.00167249627338467
0.11	1.99555526360946	-2.29104778585497	558.030022903614	1.47469014489378	26.6085627720874	1.31805340014507	-1.20352096676914	-0.000170735894736374	-0.00149987893658998
0.12	1.83628698637684	-2.29044293021858	559.151410683895	1.54435632276508	26.7588756159628	1.29093839028459	-1.1761956597304	-5.03627708071663e-05	-0.0013248090381105
0.13	1.69331033666133	-2.31544854105565	560.017437755453	1.59523069932688	26.8920365725259	1.2565944615153	-1.14049613601439	3.73795890807882e-05	-0.00115897240031176
0.14	1.57444662129908	-2.35574815713169	560.509019604801	1.62241307871187	26.9958886658129	1.21866724271167	-1.10056665066201	8.42566668290967e-05	-0.00101372682274714
0.15	1.4855749716197	-2.40287540785828	560.544049055201	1.6232591687972	27.0611203443291	1.18159777080574	-1.06124597981398	8.59022551783495e-05	-0.000898467306712614
0.16	1.43025090274225	-2.45234626614847	560.098202178233	1.59711308294292	27.0832418506662	1.15014303141089	-1.02748983535108	4.12359857162592e-05	-0.000818932968833563
0.17	1.40910506385314	-2.50321314804159	559.217980125923	1.54529741532004	27.0639459320749	1.12873431018655	-1.00375513867617	-4.76112300847875e-05	-0.00077593761027156
0.18	1.4194974866068	-2.55548791246872	558.019570301035	1.47126958970274	27.0113050467932	1.12075789793307	-0.993408035026349	-0.000174998177116525	-0.000764944531657152
0.19	1.45575947846875	-2.60678077386805	556.671501868815	1.38068418718508	26.9386046404725	1.12791890218844	-0.998251219615966	-0.000331562788566941	-0.000776668869248653
0.2	1.5100067722072	-2.64986516567817	555.364897287924	1.28108863165555	26.862068782081	1.14987456507812	-1.01827504983056	-0.000504613728943393	-0.000798580218679013
0.21	1.57318554331089	-2.67254582736402	554.279719317711	1.18112723569339	26.7980966349435	1.18427076411713	-1.05170053639517	-0.000679393879820522	-0.000816928279035012
0.22	1.63592588398438	-2.66028941551073	553.556585403666	1.08936066085714	26.7607346972159	1.22719487173295	-1.09530581236232	-0.000841071743200583	-0.00081882354524293
0.23	1.68898639047497	-2.60092521562339	553.280885233764	1.01300786266658	26.7599227054113	1.27391704968399	-1.14494152077173	-0.000976940911696533	-0.000793992128546805
0.24	1.72345196113774	-2.48979701711182	553.480469196203	0.956984372244576	26.8006751067152	1.31969299869775	-1.19608565667548	-0.00107815953895496	-0.000736022290630689
0.25	1.7311487533087	-2.33342434732663	554.13274876687	0.923506840262462	26.8829884835664	1.36039189821127	-1.24429459152972	-0.00114052180734669	-0.000643116739404148
0.26	1.70574213213589	-2.15015018528931	555.174296948552	0.912304097416788	27.0020821090095	1.39280203871868	-1.28547602544627	-0.00116415294014283	-0.000518458080580486
0.27	1.64462157700338	-1.96725432716945	556.50721960695	0.921227004702726	27.1486645648723	1.41461612991512	-1.31601152818176	-0.00115247019253117	-0.000370248564295961
0.28	1.55110092699217	-1.81521288764001	558.000929923763	0.946903036770743	27.3092097514227	1.42424111007676	-1.33284183146641	-0.00111103464104234	-0.000211346508967369
0.29	1.43597367158406	-1.72073868117866	559.493086438944	0.985111927399322	27.4665432031702	1.42064668870908	-1.33365140642557	-0.00104688663066421	-5.82968832649744e-05
0.3	1.31736161432949	-1.70061167446287	560.796477632645	1.03075787263916	27.6011836287753	1.40342803623793	-1.31723121555134	-0.000968613678660302	7.04479300243088e-05
0.31	1.21821959968511	-1.75799949080834	561.717659677729	1.07759053787468	27.6937345172545	1.37312582267911	-1.28397999311924	-0.000886900168755145	0.000157146156512633
0.32	1.16169698386708	-1.88211965788428	562.088246113819	1.11804557244225	27.7282022949969	1.3316808011603	-1.23637822419482	-0.000814898468669334	0.000187937899143842
0.33	1.16547858364302	-2.05103146967883	561.802973122645	1.14361627001866	27.6955988198298	1.28277875158845	-1.17919863013117	-0.00076766395032879	0.000155947769896247
0.34	1.23682858825036	-2.23644519839537	560.853167507277	1.1459865097407	27.5968057776534	1.23182658429791	-1.11924621404509	-0.000760204387758923	6.34908893983877e-05
0.35	1.37004331821798	-2.40900125490881	559.342827159251	1.11880859542787	27.443641757557	1.18540803687711	-1.06455130701425	-0.000804313799042999	-7.73974887415818e-05
0.36	1.54733391104207	-2.54262156613891	557.478366252284	1.05964146967821	27.2574580953948	1.15025960922964	-1.0231259957599	-0.000905037231492378	-0.000246544238058477
0.37	1.74303811894981	-2.61716626495932	555.531166290637	0.971346826324497	27.0653064528483	1.13200676692077	-1.00156445545623	-0.00105803235943169	-0.000419197021712336
0.38	1.92992008539185	-2.61945092350534	553.781535494697	0.862296749776827	26.8945321099733	1.13402242105847	-1.00384977763552	-0.00124902241749481	-0.000570797329882355
0.39	2.08559487909056	-2.54332879014122	552.459864126211	0.745090599088037	26.7672490616071	1.15675823747058	-1.03068537592884	-0.00145593563517343	-0.000681747721057391
0.4	2.19708862350778	-2.38973184805161	551.702671100615	0.63399727295842	26.6962919136039	1.19775168284178	-1.07950973885686	-0.00165339490115124	-0.000740859703818875
0.41	2.2622251050231	-2.16721643538414	551.536747980584	0.541829811016593	26.6838170983737	1.25228183231406	-1.14513798250204	-0.00181831990472414	-0.000746522850971654
0.42	2.28765798130781	-1.89285485918659	551.89504982144	0.477214870489804	26.722856569779	1.31442551614212	-1.22078528619563	-0.00193491267041634	-0.000705352793655523
0.43	2.28452521686235	-1.59262470984783	552.656766507268	0.443117866454672	26.8011128571923	1.37814315073016	-1.29913918623975	-0.00199744774556609	-0.00062891447906277
0.44	2.26347269744878	-1.30016430686215	553.695390782023	0.437048092918612	26.9055082566579	1.43805248183653	-1.37319246475456	-0.00201005194410087	-0.000529762143262336
0.45	2.23091478610753	-1.05310413808555	554.916033724921	0.452762527770197	27.0257762823826	1.48971688229588	-1.43670286921694	-0.00198374556359704	-0.000418226172522684
0.46	2.18784636256156	-0.887071915880187	556.267946082235	0.482755302100022	27.1558194166795	1.52950969305864	-1.48433964849018	-0.00193199085370332	-0.00030101683438849
0.47	2.13150215792756	-0.828545889878853	557.72856860471	0.520578870254157	27.2925008232733	1.55431274671383	-1.51172174442817	-0.00186645751589043	-0.000181935538461409
0.48	2.05903916476278	-0.888516800206743	559.267508963231	0.562187888049761	27.4326230247969	1.56137553775919	-1.51558150705086	-0.00179448685747341	-6.40953873677907e-05
0.49	1.97159790831252	-1.059027424962	560.807825977503	0.605958705615558	27.5696361218077	1.54856735952929	-1.49418622445202	-0.00171892826679565	4.75811559315087e-05
0.5	1.87688761444936	-1.31397481520339	562.204141745286	0.651614140863721	27.6917813206916	1.51503725296475	-1.4479633550091	-0.00163998914993368	0.00014493274435079
0.51	1.78894576888044	-1.61429431480409	563.251267741466	0.698729194934114	27.7828289192496	1.46205246294288	-1.38009151404221	-0.00155792228271778	0.000217082564111681
0.52	1.72479309193853	-1.91624944611025	563.725281102891	0.745625115380173	27.8255189068213	1.39362758344098	-1.29672874067742	-0.00147510791256678	0.000252951204926632
0.53	1.69896197784944	-2.18054423819849	563.445836822517	0.789231051010882	27.8066730711404	1.31656228104162	-1.20660562721743	-0.0013964645854444	0.000244908073519345
0.54	1.71783792669614	-2.37973264690111	562.339142364036	0.826013130947006	27.7221792721717	1.23968486587503	-1.11990388858087	-0.00132795936408947	0.000192151594650081
0.55	1.77601689659237	-2.50201578246224	560.479220167294	0.853555539022774	27.5799659585346	1.17238619882538	-1.04659969488913	-0.00127390676797823	0.000102412671710739
0.56	1.85629475613685	-2.55076090803573	558.09164155077	0.87205670412215	27.3997287344155	1.12280839166601	-0.994671091992618	-0.00123433616851376	-8.8521742865888e-06
0.57	1.93364859666136	-2.5404804585599	555.51634639728	0.885019173824341	27.2092920499061	1.09620903773512	-0.968656192107195	-0.00120370727195707	-0.00012169737655976
0.58	1.98210516729236	-2.49105448356834	553.139720358259	0.898754787384019	27.0386531759368	1.09398632279251	-0.968961223895154	-0.00117166869677154	-0.000216378662301953
0.59	1.98228735192296	-2.42229698261228	551.315720043255	0.920837683232611	26.9135199721757	1.11363389538168	-0.992084203133904	-0.00112566058021202	-0.000277993440824686
0.6	1.92713002964848	-2.35048386720179	550.2981620712	0.958079560017217	26.8502451713011	1.14958275661291	-1.031630999034	-0.00105437612428994	-0.000299604379445984
0.61	1.8238930815856	-2.28742698407895	550.200944331384	1.01477347236904	26.8534766073346	1.1946056816765	-1.07976915222962	-0.000950779028968896	-0.0002829520884996
0.62	1.69192520945636	-2.2415538370295	550.992542039865	1.09178643082564	26.9168447501004	1.24131798907628	-1.1286786648535	-0.000813651876301336	-0.000236735279357747
0.63	1.55712049831504	-2.21970517301776	552.519962703891	1.18667321268743	27.0260003004991	1.28335436674599	-1.17164236746014	-0.000647362414747832	-0.000173265902619069
0.64	1.4450745580753	-2.22827094591444	554.549673534751	1.29454250549624	27.1626744436862	1.31600006561678	-1.20362234698373	-0.000460315329358973	-0.000104782638067957
0.65	1.37519414415724	-2.27282781763135	556.811219258425	1.40914612662114	27.3083661302423	1.3363067607997	-1.22139461552683	-0.000263025699568264	-4.0671966563266e-05
0.66	1.35740271655854	-2.35632476916963	559.033052862958	1.5236967537335	27.4467227348799	1.3429124148893	-1.22345961305449	-6.66990500157727e-05	1.36483232030526e-05
0.67	1.39192843656051	-2.4766697779506	560.966933121021	1.63121029717187	27.5644213735703	1.33583169887202	-1.20995306964552	0.000117306532778194	5.61582571801389e-05
0.68	1.47147583380463	-2.62494958893998	562.403556068784	1.72454667725876	27.6510367217965	1.31638321327669	-1.18266206320348	0.000277434309516322	8.66162222844524e-05
0.69	1.58435385118594	-2.78532805300985	563.1850279906	1.79657483136554	27.6987147884075	1.28723912697547	-1.14507923885414	0.000402058680498141	0.000104870243734678
0.7	1.7171152737498	-2.93702792647553	563.21842998689	1.8408663553036	27.7023517721176	1.25242658331804	-1.10230357093489	0.000480533267991023	0.000109981960494832
0.71	1.85588568717306	-3.05799621892078	562.490354568374	1.85302163779562	27.6605024254826	1.21706699579836	-1.06059318372536	0.000505383622945166	0.000100576139315633
0.72	1.9864794265134	-3.12921733119865	561.07764748974	1.83229765192325	27.5766660792698	1.18673689197547	-1.02650565446495	0.000475103800338772	7.62018330341951e-05
0.73	2.0941604033526	-3.13841319175993	559.14743037445	1.78286541477766	27.4602075843495	1.16652488674831	-1.00576417257905	0.00039639700589944	3.89794548529276e-05
0.74	2.16414726221262	-3.08212048794279	556.941225614993	1.71397588313537	27.3261558266636	1.16004464322845	-1.00216126469769	0.00028458454563618	-5.37033975867018e-06
0.75	2.18357700192378	-2.96573749721231	554.743023093019	1.63862347042505	27.1934946760734	1.16874220093315	-1.0168603286445	0.000161425306840601	-4.77911707718603e-05
0.76	2.14481412965845	-2.8018308116874	552.837071467272	1.57086263435236	27.082149079235	1.19175613784311	-1.04834000409847	5.05696953260193e-05	-7.75898665257846e-05
0.77	2.04911202390177	-2.60750395971875	551.465178972819	1.52251955398831	27.0094029468853	1.22637683406192	-1.09298784793104	-2.80901035907277e-05	-8.51043224627812e-05
0.78	1.90911480192511	-2.40176541785893	550.793447457278	1.50038291057907	26.9867264755228	1.26890163634416	-1.14609274601829	-6.32861115551497e-05	-6.44565578334366e-05
0.79	1.74879143548526	-2.20357386144777	550.894638751938	1.50488024571194	27.0178423274991	1.31551624736293	-1.20283151269705	-5.46757490264005e-05	-1.54495473447813e-05
0.8	1.60011462365907	-2.03074039292675	551.746688030112	1.53074769791011	27.0984093149026	1.36283605492165	-1.25887337274398	-1.1653856370808e-05	5.60203673455884e-05
0.81	1.49687485866428	-1.8993841739332	553.243026403407	1.56946286713614	27.2171670636307	1.40792231706165	-1.31043163196015	5.09502803313078e-05	0.000139127516431359
0.82	1.46705418207602	-1.82339434823076	555.208568938359	1.61252852487601	27.3580020381232	1.44786735031586	-1.35388347056393	0.000118695145319037	0.000220421429885709
0.83	1.52579651306652	-1.8134388781746	557.416963545828	1.65435558970282	27.5023040255186	1.47928747539213	-1.38531890075614	0.000182643442981245	0.000286523212911727
0.84	1.67098698483166	-1.87540749100133	559.60854424769	1.6936512824547	27.6311665758921	1.49814959027871	-1.40044920629121	0.00024179976069183	0.000326463943393085
0.85	1.88279977583802	-2.00859900518103	561.511820687043	1.73282243502683	27.7272957522608	1.50023365094148	-1.39515983554272	0.000301957394862717	0.000333181452833065
0.86	2.12749798232941	-2.20426805051154	562.871956826487	1.77571427486641	27.7767338387349	1.48224309588165	-1.36668713079605	0.000371495432256785	0.000304075921386981
0.87	2.36459015794789	-2.44520828413844	563.486754002215	1.82468916619565	27.7705415007668	1.44324176896486	-1.31506262982633	0.000455919365989876	0.00024084882929315
0.88	2.55550516356424	-2.70684895858797	563.245356291717	1.87832352723007	27.7064022030719	1.38586789327849	-1.24425277835614	0.000553470088820673	0.000148988150753038
0.89	2.67151602883172	-2.95995116033758	562.159887358605	1.93074983680968	27.5898311797899	1.31676202271252	-1.16243043707161	0.000653712604744006	3.71895340705031e-05
0.9	2.69887186533588	-3.17453668405153	560.378334961975	1.97299778752653	27.434465991551	1.2458680811317	-1.08106143227458	0.00073982348658963	-8.32076930016856e-05
0.91	2.63994968003071	-3.32430972546794	558.16986272518	1.99587071057616	27.2609377782479	1.1846482344573	-1.01288983151591	0.000793809956605607	-0.000198909192691277
0.92	2.51047443467434	-3.39066073463885	555.880971131779	1.99326337698398	27.0941211057023	1.1436493812748	-0.969308944165158	0.000802713788375042	-0.000295719624571145
0.93	2.33406912930221	-3.36543486310835	553.870208672796	1.96463796672464	26.9590560825509	1.13011715182673	-0.9578543766525	0.000763450087994721	-0.000360122930187112
0.94	2.13614062498485	-3.25197800223001	552.437019366884	1.91569821188178	26.8763485390162	1.14636904409294	-0.980550294730802	0.00068445728521338	-0.000381313621586998
0.95	1.93908120868536	-3.06442388271215	551.76361901765	1.85700228087096	26.8581715998895	1.18940032311586	-1.03357676365084	0.000583569778832782	-0.000353313463282601
0.96	1.75997679299041	-2.82558628002531	551.885860963198	1.80104720143558	26.9059594844114	1.25179098457111	-1.10830081900669	0.000482966783768579	-0.000276601133250176
0.97	1.61080683457018	-2.56402336687753	552.700504257573	1.75892154484655	27.0104702768526	1.32356138400691	-1.19328604686501	0.000403120320512262	-0.0001586734769633
0.98	1.50004780041103	-2.31079671168516	554.004948637622	1.73773478806348	27.15421507715	1.39434657494928	-1.27662458055956	0.000357939756768122	-1.31847644129213e-05
0.99	1.4341434421355	-2.09623412256455	555.555398333301	1.73965577650769	27.3155368051485	1.45522640336157	-1.34791706018145	0.000352698666609141	0.000142285510539963
1	1.41766801805526	-1.94679033098047	557.124311809813	1.76269716062168	27.4731342029257	1.49976210336844	-1.39945241425316	0.000385109938613182	0.000289348543116186
1.01	1.45196617408448	-1.88203978514144	558.539827883096	1.80266764922841	27.6097536744715	1.52415218488634	-1.42650356325996	0.000448615149517995	0.000412019225657645
1.02	1.53309490071567	-1.91198131191297	559.69790129885	1.85528223454447	27.7141475767097	1.52677397995585	-1.42699871199544	0.000536124984242936	0.000499206310304257
1.03	1.65047595910999	-2.03509056543818	560.54894528001	1.91744718144686	27.78108007356	1.50757478349997	-1.40100946941982	0.000642425128993263	0.000545916364473265
1.04	1.78748908949717	-2.23773419585664	561.07046447224	1.9871949897918	27.8098830988052	1.46774301708762	-1.35045248784888	0.000764227129399053	0.000553059071892514
1.05	1.92437844880694	-2.49548484765085	561.241645075356	2.06242267199101	27.8025391378199	1.40985301115654	-1.27916797941785	0.000898038500256382	0.00052620643149498
1.06	2.04272198231287	-2.77649143190221	561.033475373635	2.13918311048808	27.7623076719529	1.33835260078448	-1.19323484715717	0.0010371183232627	0.000473947176640177
1.07	2.12986797669892	-3.04646728941583	560.419851423368	2.21053455867936	27.6935102553397	1.26000250531299	-1.10115395680229	0.00116929865370052	0.00040647337043731
1.08	2.18158907781194	-3.27428434291822	559.404757381716	2.26675840159159	27.60242259598	1.18380266940158	-1.01348806036135	0.00127716898275276	0.000334750824853569
1.09	2.20184101863474	-3.43685380588887	558.052350017887	2.29719195126623	27.4985823593471	1.12009484473911	-0.941717027944019	0.001341159734773	0.000270200230429674
1.1	2.19968222094388	-3.52209705748498	556.50407303585	2.29322507658716	27.3954946275246	1.07885606002216	-0.896385199012922	0.00134481972308975	0.000224462522037505
1.11	2.18460597797726	-3.52936153013216	554.970957478877	2.25146370895638	27.3098622126198	1.06756223113593	-0.884952385891629	0.00128057066194887	0.000208723158550583
1.12	2.16222624089366	-3.46743276281362	553.698494929588	2.17589297870077	27.2590458449926	1.08925085037422	-0.909967431992146	0.00115385182683037	0.00023229044631512
1.13	2.13211698875631	-3.35103406750945	552.912287916183	2.07814953191982	27.2572407347328	1.14143344302099	-0.96816647774067	0.000983993170195707	0.000300570102890696
1.14	2.08867235038794	-3.19709369985451	552.760832341326	1.97563095279679	27.311513024431	1.21627874972402	-1.05084921599496	0.000801214222446389	0.000413037752513279
1.15	2.02453041083691	-3.02194093770131	553.274043088952	1.88789387659423	27.4190819031147	1.30208560950808	-1.14549230663731	0.000640434754640706	0.000562046610976086
1.16	1.9349828016013	-2.84003413961591	554.351554068325	1.83235166770399	27.5669343708345	1.38564331405137	-1.23816850366325	0.00053362160584125	0.000733176530423985
1.17	1.82139270090384	-2.6640909418391	555.785105923238	1.82048165216815	27.7341163986861	1.45480158984895	-1.31610314357494	0.000502819860315751	0.000907357218689175
1.18	1.69215360151655	-2.5059187273111	557.308135862337	1.85554116968205	27.8961391821435	1.50054850652479	-1.36970482424226	0.000555711855695695	0.0010643674760682
