Time [s]	GRFml [N]	GRFap [N]	GRFv [N]	Mml [N.m]	Map [N.m]	Mv [N.m]	Mfree [N.m]	COPml [m]	COPap [m]
0.01	-0.937173765196302	0.0962221102370964	572.569706263469	-9.61446830970099	15.820731419748	0.601179797066588	-0.588095707279305	0.00206153583508673	-0.00343579177701453
0.02	-0.956299048283959	0.332498586189249	572.071553015183	-9.54622183901752	15.7939929251576	0.578547234632807	-0.571785932344517	0.00216519441490637	-0.00346125755044813
0.03	-0.982689085616798	0.538514017441945	571.637360007519	-9.49203071620957	15.7760976330999	0.557514583962075	-0.556097101568164	0.00224598234479656	-0.0034745147439752
0.04	-1.02444132307133	0.691484079065324	571.322459325594	-9.46363272351827	15.7753755888162	0.539045162448638	-0.541211079383192	0.00228488425638373	-0.00346381220578318
0.05	-1.08505820551104	0.781000821142025	571.170768402245	-9.46729886989912	15.7969221587819	0.523661461093641	-0.52729678743503	0.00227218845826394	-0.00342243707838563
0.06	-1.16092646576043	0.810234547016522	571.20899210718	-9.50290791921387	15.8411181420974	0.51152017674414	-0.514661408851231	0.00220893830939983	-0.00335100748063838
0.07	-1.24015146730051	0.793272835340255	571.441631533658	-9.5645042806026	15.9029177114716	0.502628702738897	-0.503910924095943	0.00210578605029377	-0.00325848013929891
0.08	-1.30358063716627	0.74984044845447	571.848971997973	-9.64194424692341	15.9723236495808	0.497103315879221	-0.496041703061476	0.00198001333127185	-0.00316124228478226
0.09	-1.32845299835737	0.699378314732856	572.389450820246	-9.72302031641107	16.0362104856336	0.495337640567218	-0.492380523034067	0.00185184221174606	-0.00308006903041752
0.1	-1.29428840090616	0.656392112396425	573.006045388147	-9.79550045956943	16.0812178548109	0.49797625892365	-0.494328301697089	0.00174102614010929	-0.00303540720234124
0.11	-1.18962739710496	0.628246355705182	573.634636618057	-9.84874819754769	16.0969996294842	0.505664145223636	-0.502934447393242	0.00166425493302713	-0.00304212910235496
0.12	-1.01750123733672	0.61555286162771	574.211697206456	-9.87485688479381	16.0788874797908	0.518638152228697	-0.51840744118999	0.00163341365480518	-0.00310526873559436
0.13	-0.797496462784484	0.614407101188005	574.679492316733	-9.86940579530576	16.0291411521933	0.536304362809029	-0.539719951502024	0.00165444692615246	-0.00321809721677691
0.14	-0.563162725827009	0.619265009606889	574.988782868134	-9.83196358112171	15.9563947277543	0.556973915711095	-0.564468046680903	0.00172659626224514	-0.00336321961898278
0.15	-0.355057398369506	0.625316508526897	575.100732220996	-9.76635231427596	15.8735031368508	0.577896749409722	-0.58908713554911	0.00184202381389276	-0.00351641981431178
0.16	-0.211321342713181	0.629682054366318	574.990285672538	-9.68053582233239	15.7945039614023	0.595645995989967	-0.609427171618884	0.00198611759719003	-0.00365211530738258
0.17	-0.158634930972848	0.631385669517224	574.652262034011	-9.58591941947709	15.731627122722	0.606792320423356	-0.621577837151847	0.00213888365375348	-0.00374885379704931
0.18	-0.206264576778303	0.630570946320374	574.10918807783	-9.49591559554236	15.6931314315768	0.608703910380091	-0.622747289312074	0.00227765507390143	-0.00379344435806495
0.19	-0.344725062398569	0.627634173128613	573.417643408677	-9.4238379278202	15.6823124828136	0.600248912331989	-0.611964370558316	0.00238092365284504	-0.00378296602406042
0.2	-0.548883717964128	0.622805028512768	572.668842694565	-9.3804541720444	15.6975273264021	0.582184980661287	-0.590406066792055	0.00243260155923219	-0.00372471969556798
0.21	-0.783872877157384	0.616319302449434	571.980142236168	-9.3717402327254	15.732755655519	0.55709729502578	-0.561242150095727	0.00242567828939111	-0.00363480774898101
0.22	-1.01156073757006	0.608912419211301	571.476970680393	-9.39742591410221	15.7782077389114	0.528872231943832	-0.529013698067724	0.00236423022883059	-0.00353618190860894
0.23	-1.1957285450228	0.602135406405593	571.268297860351	-9.45077087156518	15.8207729981969	0.501832031890507	-0.498687950832973	0.00226310754527981	-0.0034566812503779
0.24	-1.30519847622093	0.598075409466354	571.421678401485	-9.5196972211066	15.8445033015473	0.4797624115717	-0.474623256276434	0.00214525009883915	-0.00342702278638152
0.25	-1.31534059268161	0.598408839591451	571.944877197756	-9.58904042805932	15.8316019053775	0.465102952215151	-0.459706167446964	0.00203724814774053	-0.00347826338211127
0.26	-1.20907213617185	0.60314100040343	572.779630403451	-9.6433887928375	15.7643627178901	0.458522520671323	-0.454875643166133	0.0019642298685657	-0.00363821562714162
0.27	-0.978367064021597	0.609657360699135	573.809720115781	-9.66985947520822	15.628148786814	0.458981158330204	-0.459136980191293	0.00194527321179561	-0.00392674529180848
0.28	-0.626550435725697	0.612671699568588	574.88147537382	-9.66023400330879	15.4149585198526	0.464225277032285	-0.470023602417828	0.00199029002836848	-0.00435061579630619
0.29	-0.170704334932658	0.605311819206915	575.831486643318	-9.61210319001674	15.1266536219347	0.471528344866809	-0.484335068752031	0.00209883702392721	-0.00489921251954151
0.3	0.357128202151255	0.58109986055688	576.51479684173	-9.52895503775312	14.7767538517949	0.47842255792053	-0.49890928510548	0.00226076930286867	-0.00554271210822971
0.31	0.911255439749584	0.536192443541151	576.827436223531	-9.4193778272276	14.3899575584349	0.483191877088676	-0.511200891475123	0.00245825623522933	-0.00623386908008539
0.32	1.43682722427452	0.471118853670512	576.719450970819	-9.29567795362512	13.9991611092264	0.485002620309005	-0.519530269474324	0.0026685286553878	-0.00691365534944033
0.33	1.8771400011347	0.391427892102412	576.197564527123	-9.17221858980241	13.640505904797	0.483693039275705	-0.523002470461215	0.00286680806136208	-0.00751983446262317
0.34	2.18241647562663	0.307024493242305	575.3192290379	-9.06371102144426	13.3475950070608	0.479371365175263	-0.5212195647425	0.00302907861167001	-0.00799661645113475
0.35	2.31816007879506	0.230380399200878	574.181287470779	-8.98359776382244	13.1462633007282	0.472033425445237	-0.513974937947442	0.00313456721548866	-0.00830317920055218
0.36	2.27121501957116	0.174097846491348	572.90652641129	-8.94260742817875	13.051075191091	0.461384261793228	-0.501100336885614	0.00316789640089721	-0.00841918784945495
0.37	2.05222340389521	0.148426586622285	571.630362776811	-8.94755569581478	13.0641585496731	0.446947425476032	-0.482547144481467	0.00312084403781432	-0.00834634850349275
0.38	1.69403186589998	0.159292367990016	570.488456654327	-9.00049835455489	13.1762881680478	0.428414240350509	-0.458662684469383	0.00299353498160826	-0.00810614644249708
0.39	1.24648030665342	0.207237126847835	569.604928934541	-9.09837149254914	13.3695613449252	0.406077009564054	-0.4305215367455	0.00279479784073733	-0.00773484291020893
0.4	0.768679828046891	0.287448702078007	569.080596269908	-9.23324042302222	13.6207443488307	0.381146875062774	-0.400131584724169	0.00254143416734909	-0.00727725129046058
0.41	0.320239265576091	0.390814349685062	568.9812826164	-9.3932042802187	13.9044574064278	0.355793693691232	-0.3703697459123	0.00225630293693957	-0.0067807056954915
0.42	-0.0470833731411873	0.50571144861037	569.327435729492	-9.56388201636171	14.195714533831	0.332845910091889	-0.344598281097506	0.00196538169233207	-0.00629011054388734
0.43	-0.296088179698661	0.620100783154852	570.087310598072	-9.73027903106166	14.4717606078586	0.315213860463728	-0.326031998323166	0.00169423154722503	-0.00584429593744307
0.44	-0.408415702078047	0.723458099528939	571.176262099157	-9.87874886954538	14.7134581560926	0.305203175564018	-0.317024568926896	0.00146446107417653	-0.00547339891058257
0.45	-0.386094209819972	0.808182975869034	572.463926111425	-9.99874983819486	14.9065433693803	0.30392842265374	-0.318482646596071	0.00129079169281054	-0.0051968462048691
0.46	-0.250424546319743	0.87032350351309	573.789436132735	-10.0841490447227	15.042884563914	0.311006545298565	-0.329585780128878	0.00117918350432633	-0.00502175484498307
0.47	-0.0384897285896792	0.909667754748332	574.982880635415	-10.133917377737	15.1215484046035	0.324618811059558	-0.347900945370081	0.00112625415529333	-0.00494202814709799
0.48	0.202351927711585	0.929385784107595	575.889641583484	-10.1521523902406	15.1491973329978	0.341914434288658	-0.369865892476917	0.00112000088009467	-0.00493881952967729
0.49	0.421575339698244	0.935406908367527	576.393564610311	-10.1474385911716	15.1392855262876	0.359631273434753	-0.391514965188373	0.00114167700035783	-0.00498308285507004
0.5	0.573592274135475	0.935608561783232	576.435192909771	-10.1316044847182	15.1097731082702	0.374761392520758	-0.409265657876258	0.00116858797793928	-0.00504049197813994
0.51	0.625862042111565	0.938765473329903	576.022254321898	-10.117978005449	15.0795734310343	0.3851022019863	-0.420586240748858	0.00117752468670607	-0.00507819605245424
0.52	0.565576495682169	0.953171740364441	575.23076294454	-10.1192958773574	15.0644880930429	0.389593366941207	-0.424415547192302	0.00114849541539752	-0.00507200163158167
0.53	0.40325658208367	0.984967090386038	574.196161210989	-10.1454971254984	15.0737231623597	0.3884151565674	-0.421281256648843	0.00106832604568718	-0.00501204571357644
0.54	0.171868420069705	1.03643944849986	573.094887990837	-10.2017168810695	15.1080390911919	0.382883028303353	-0.413134089241311	0.000933584977666491	-0.00490515169662248
0.55	-0.0790518646457399	1.10481130292254	572.117870603684	-10.2868636538413	15.1601432685521	0.375197032782404	-0.402961492390275	0.000752214393089479	-0.00477289079378107
0.56	-0.293461092171776	1.18208548551696	571.438932225951	-10.393167748373	15.21723876468	0.368095806474011	-0.394260774012651	0.000543294043505504	-0.00464565199137268
0.57	-0.420937867197926	1.25632363216797	571.182864348221	-10.5069889286311	15.2649562543865	0.364444172287802	-0.390448624388282	0.000334595552053285	-0.00455429612428054
0.58	-0.427939265119181	1.31428555255659	571.399351681922	-10.6109503486265	15.2914770093883	0.366775240583962	-0.394278030180718	0.000158015652928389	-0.00452175926519061
0.59	-0.305293997820969	1.34483371851206	572.049194813963	-10.6871504096083	15.2906529344395	0.376824514929977	-0.407334948091445	4.35314237524631e-05	-0.0045569797743511
0.6	-0.0700004725108895	1.34213198649378	573.00766455852	-10.7208731188244	15.2633299596492	0.395126448591301	-0.429692636347836	1.28416811371324e-05	-0.0046527483453408
0.61	0.239017912591844	1.30762182295224	574.086286322177	-10.7039827379519	15.2167187544628	0.420769693873131	-0.459797777316829	7.41509589635703e-05	-0.00478780690618968
0.62	0.569857630245459	1.25008546427712	575.069683557272	-10.6371545103655	15.1622890186761	0.451402484214594	-0.494636445713784	0.000219460655342951	-0.00493220904351266
0.63	0.868693359825975	1.18368961632366	575.759743740447	-10.5303087405299	15.1130664566288	0.483535316741638	-0.530177594327001	0.000425218014914241	-0.00505405659489783
0.64	1.08995668163076	1.12453155056652	576.016847520017	-10.401042135369	15.081260986679	0.513115201893037	-0.562029171216127	0.000656353292255329	-0.00512552863656524
0.65	1.20317594308483	1.08666417444115	575.788223555505	-10.2713672714786	15.0768645876689	0.536268652510873	-0.586187577747149	0.00087284969096646	-0.00512664012735942
0.66	1.19528053871538	1.07871946263759	575.116691083328	-10.1635163278109	15.1073637716418	0.550055505981035	-0.599733349449239	0.00103732050195815	-0.00504617100117288
0.67	1.06871317124634	1.10205581484528	574.12816772461	-10.09579668475	15.178216461043	0.553060520356288	-0.601333489013372	0.00112182826176688	-0.00488029826786218
0.68	0.836974155520894	1.15089961387622	573.001766788643	-10.0794350984086	15.2934372600127	0.545679698942656	-0.591451120888861	0.00111243997687283	-0.00463024032607201
0.69	0.519801399504879	1.21437161569789	571.930464513886	-10.1170423083833	15.4556329591067	0.530026705180419	-0.572225040058341	0.00101067052045456	-0.00430041385520563
0.7	0.139882662880379	1.27974595571622	571.082071314362	-10.2028810412637	15.6651309282195	0.509475471171812	-0.547050574216032	0.00083179877206585	-0.00389816156059314
0.71	-0.278050793540886	1.33593749365941	570.569298497121	-10.324673189385	15.9183323114016	0.487945796719842	-0.5199539849359	0.000600787261910707	-0.00343521970465588
0.72	-0.706251902412579	1.37616553609178	570.434598030234	-10.46636350425	16.2059098687271	0.46910458274679	-0.494892168226565	0.000346992851981698	-0.00293011020829897
0.73	-1.11269689170794	1.39903184250381	570.651253191929	-10.6111356991863	16.5117568514496	0.455675391315103	-0.475118250064023	9.89385524972075e-05	-0.00240995802012028
0.74	-1.4614690948511	1.40779959335892	571.138167160702	-10.7440502384437	16.8135401158516	0.449014099526269	-0.46272904842496	-0.000119833405416769	-0.00191014592405347
0.75	-1.71613272693272	1.40828264967955	571.782975472107	-10.8538842169363	17.0852967729013	0.449027189881885	-0.458458744716405	-0.000293259713585514	-0.00147080906167818
0.76	-1.84612364422123	1.40621831538564	572.46705880201	-10.9340198755736	17.3018531384085	0.454407996159153	-0.461720003143544	-0.000413532991614285	-0.00113026819793682
0.77	-1.83466159517187	1.40511872785458	573.086751484905	-10.9824692926397	17.4441557453813	0.463080322582236	-0.470839331259031	-0.000480483998788195	-0.000916726611930874
0.78	-1.68560648414232	1.40533091342697	573.567049479239	-11.0012804034632	17.5041359366495	0.472698250171946	-0.483404526445963	-0.000500110374751284	-0.000840457250599724
0.79	-1.42653669166816	1.40450515094778	573.866677244644	-10.995617504009	17.4876717200472	0.48106679199322	-0.496644397525185	-0.000482800444811748	-0.000888921992432179
0.8	-1.10625570110558	1.39910993640953	573.97571973672	-10.9727565482521	17.4146186322465	0.486407513627658	-0.507786417350158	-0.000441637474592138	-0.0010266623931105
0.81	-0.786639068982321	1.38627382641566	573.908591053624	-10.9411216640027	17.3156481477575	0.487466132536512	-0.5143689070154	-0.00039092271708463	-0.00120054010104331
0.82	-0.530598979602225	1.36520399251977	573.695611901683	-10.9093726551975	17.2265189105338	0.483513236304124	-0.514503616296809	-0.000344835304518676	-0.00134938576559462
0.83	-0.38926945617202	1.3376955941114	573.37592694598	-10.8854894407818	17.1811248673922	0.474305865383113	-0.50708513124879	-0.000316050749434194	-0.00141583807959178
0.84	-0.391803876446644	1.30765139392512	572.993198914943	-10.8758177259332	17.2049828123473	0.460058691422143	-0.491931693470002	-0.000314210824732042	-0.00135753703331176
0.85	-0.540335703466031	1.27989367887208	572.593944849485	-10.8841286122151	17.3106491043378	0.441436842347492	-0.469831783344983	-0.000344340544673583	-0.00115505902266105
0.86	-0.811034192897319	1.25874489842716	572.227077602702	-10.9108532569721	17.4959739695979	0.419549809260823	-0.442473700355681	-0.000405538167051356	-0.000814930752567666
0.87	-1.16042716357524	1.24685086348871	571.942645391714	-10.9527175372375	17.7453296529272	0.395911219963751	-0.41225275771603	-0.000490393575157899	-0.000367379450955885
0.88	-1.53490412043081	1.2445710731641	571.788140554516	-11.0029747037887	18.033246380117	0.372334337490755	-0.381974168822249	-0.000585530723824057	0.000140273340188235
0.89	-1.88092131054375	1.2500461079761	571.801940477497	-11.0523127651474	18.3294555219428	0.350751206592349	-0.354488278381971	-0.000673419093738858	0.000652840486493944
0.9	-2.15386035865866	1.25984427732143	572.004981937915	-11.0903393312177	18.604238081533	0.332966013132717	-0.332303075335133	-0.000735245146614161	0.00111712355460547
0.91	-2.32436069686891	1.26993767872534	572.393022906221	-11.1073848698733	18.8331402312666	0.320374718185442	-0.317219690950429	-0.000754312167508764	0.00149061271651124
0.92	-2.38176791977348	1.2766904260697	572.932270833289	-11.0962726404886	19.0004050957981	0.313700262841328	-0.310036520347069	-0.000719262934289921	0.00174773399149253
0.93	-2.33479347021374	1.27757121928055	573.560531859814	-11.053705519933	19.1007542372505	0.31280261554612	-0.310370076320996	-0.000626446066433028	0.00188288228808664
0.94	-2.20955484541511	1.27141973066655	574.194560075042	-10.9810065664434	19.1393814837486	0.316621446045264	-0.316641525277589	-0.000480948996041231	0.00190996750121925
0.95	-2.04511419596709	1.25826616496796	574.742496590631	-10.8840879398939	19.1302224715981	0.323292412009607	-0.326267547475159	-0.00029612103289467	0.00185865615121977
0.96	-1.88677374325276	1.23886840006914	575.118829208657	-10.7726717289468	19.0927899872081	0.330445590668742	-0.336064756363722	-9.17171437410103e-05	0.00176796990586592
0.97	-1.77786429568949	1.21422907337911	575.258657820666	-10.6589128761502	19.0481320356313	0.335651699711436	-0.342828876834985	0.00010896751419387	0.00167840196009661
0.98	-1.75142880886382	1.18534309933382	575.12835987438	-10.5556580483806	19.0147120395621	0.336938635731219	-0.343994577080205	0.000282470454235684	0.00162411336194562
0.99	-1.8236770474311	1.15330228183872	574.730800226231	-10.474608298076	19.0051067443615	0.333269779575888	-0.338238153891614	0.000408519097960913	0.00162687539878692
1	-1.99098032479141	1.11969389077822	574.104586805124	-10.4246434273088	19.0242606114215	0.324867055964085	-0.325872202683253	0.000472913030347799	0.00169307138801211
1.01	-2.23133774233756	1.08705487211219	573.318088231621	-10.4105263280925	19.0696160466282	0.313281752926204	-0.30891019578526	0.000469579986274282	0.00181427086390457
1.02	-2.5099034827084	1.05906491619101	572.459710810073	-10.4321526019688	19.1328805760907	0.301164107978047	-0.290747865624985	0.00040156900208288	0.00197087297175569
1.03	-2.78685050237389	1.04022460176541	571.626221960487	-10.4844551533298	19.2027118714134	0.291751317853683	-0.275502286437704	0.000280846365075194	0.00213746379602786
1.04	-3.02514751360132	1.0349527464011	570.910833164198	-10.5580145177547	19.2674062534712	0.288168927712515	-0.26714369583314	0.000126856879248294	0.00228819660808471
1.05	-3.19608470587301	1.0462789282328	570.392501424797	-10.6403526000125	19.316852280993	0.292702966465862	-0.268621465173833	-3.60691381496858e-05	0.00240082431841987
1.06	-3.28150107987592	1.07451037341697	570.127585848868	-10.7177894985875	19.3434693650379	0.30622815497117	-0.281201213028804	-0.000182220973813929	0.00245882905939571
1.07	-3.27313229965259	1.11634179986585	570.144606845191	-10.7776242693677	19.3423646860938	0.327954378125569	-0.304184551931739	-0.000288484837569714	0.00245200950134711
1.08	-3.17062863308735	1.16481827610871	570.442362371442	-10.8102888408578	19.3112561235144	0.355576506537329	-0.335084252825074	-0.000338171330125481	0.00237646265781216
1.09	-2.98006239506613	1.21036417156828	570.991098441935	-10.8110658635291	19.2506736494964	0.385798712178851	-0.370202321227566	-0.000323985070906252	0.0022348686464731
1.1	-2.71404642007749	1.24279948697901	571.735980174783	-10.7809987431106	19.1645979460088	0.415089096845976	-0.405445420716391	-0.000249508540809851	0.0020373982854987
1.11	-2.39328726761213	1.25394694553881	572.601991395549	-10.7267686481752	19.0612213323493	0.4404458194658	-0.437149277461068	-0.000128833518099558	0.00180274645675821
1.12	-2.04816440051071	1.24017607556485	573.499719328389	-10.659537929289	18.953186699594	0.459953034946052	-0.462693572448764	1.56429478282982e-05	0.0015582020166921
1.13	-1.71839749159017	1.20412608303716	574.332113303672	-10.5929950337544	18.8566694590522	0.472978851801167	-0.480768316570835	0.000156849221816469	0.00133764447389506
1.14	-1.44933972067943	1.15496664561501	575.002845232439	-10.5410073076628	18.7890405933484	0.479992761547907	-0.491273343834587	0.000267406804105086	0.00117697573718667
1.15	-1.28474007744804	1.10690304034284	575.426880853164	-10.5153445806732	18.7654285745655	0.482109989701796	-0.494950938475903	0.000323948186887524	0.00110750581153585
1.16	-1.25739037667049	1.07613085984557	575.543047071514	-10.5238731059292	18.7950221287688	0.480556042864941	-0.492925903034093	0.000310683400393197	0.00114877292448634
1.17	-1.38022991269947	1.07694235074442	575.326933337826	-10.5694743238957	18.8781839981045	0.476255244618171	-0.486333306585221	0.000221719785996055	0.00130276165522014
