Time [s]	GRFml [N]	GRFap [N]	GRFv [N]	Mml [N.m]	Map [N.m]	Mv [N.m]	Mfree [N.m]	COPml [m]	COPap [m]
0.01	5.94631451063555	-3.9545674811618	738.448104472082	-33.9276574872665	5.88150880939172	0.224458197450767	0.529264372112377	7.16838584898429e-05	-0.00879766882018845
0.02	5.89074588983778	-3.52946424144291	738.359954693769	-34.0725425131347	5.81698951161933	0.30266390869143	0.602405613729265	-1.38398675446193e-05	-0.00859610086371453
0.03	5.83619951998307	-3.10840623760311	738.299979884069	-34.2207666052383	5.75311827646962	0.379110232891508	0.673934109387576	-9.88242903422615e-05	-0.00839200276407488
0.04	5.78371175756003	-2.69695548698355	738.281404839072	-34.373359270466	5.69050113756586	0.45219257021829	0.742340081456568	-0.00018256627059812	-0.00818480619212799
0.05	5.73423395177654	-2.30036638762539	738.315613054953	-34.5312411206466	5.62966288863438	0.520405053785039	0.806203595303872	-0.000264450786006814	-0.00797396718481491
0.06	5.6885938372929	-1.92344387013463	738.411299268065	-34.6951003541531	5.5710326349644	0.582401370497894	0.864252254801568	-0.000343962968203228	-0.00775907976249606
0.07	5.64746479060013	-1.57042114216235	738.57377814086	-34.8652854305071	5.51493385371073	0.637047949837749	0.915411961319329	-0.000420695755244958	-0.00753997756411454
0.08	5.61134448560276	-1.24486095158807	738.804498413555	-35.0417219556117	5.46157931072779	0.683466872611567	0.95884816623882	-0.00049435317914149	-0.00731681587773735
0.09	5.58054369659837	-0.949583244540444	739.100796518259	-35.2238595276936	5.41107093966533	0.721066482169233	0.993995622816029	-0.000564749472564983	-0.00709012855380475
0.1	5.5551852252929	-0.686620878603855	739.455906458527	-35.4106518033906	5.36340453577865	0.749558405105453	1.02057532097332	-0.000631804321868327	-0.00686085654872673
0.11	5.53521224418196	-0.457203735698524	739.859225053404	-35.6005705477315	5.31847886877432	0.768960458191435	1.0385980217365	-0.000695534712818603	-0.00663034705407087
0.12	5.52040480309325	-0.261770251832309	740.296814697772	-35.7916521079368	5.27610859333629	0.779585685190552	1.04835454879807	-0.000756043911093326	-0.00640032417375706
0.13	5.51040286877219	-0.100004138778062	740.752110712614	-35.9815727330353	5.23604014880094	0.782018486845774	1.05039369753791	-0.000813508192962174	-0.00617283382157766
0.14	5.50473406752362	0.029106993340025	741.206788056497	-36.1677475411538	5.19796970379934	0.77707944110895	1.04548924643037	-0.00086816199403332	-0.00595016687039962
0.15	5.50284426720689	0.127195219315057	741.641733304645	-36.3474467666688	5.16156212635544	0.765780927756566	1.03459806938907	-0.000920282175641112	-0.00573476557307593
0.16	5.50412924084372	0.196422710371332	742.038062766976	-36.517922218153	5.12646994880576	0.7492760500245	1.01881172677115	-0.000970172117851283	-0.00552911889875257
0.17	5.50796586255222	0.239383790653505	742.378126527628	-36.6765366339788	5.09235134885373	0.728803573511933	0.999304144026358	-0.00101814633221922	-0.00533565270887745
0.18	5.51374155509281	0.259003336559831	742.646440896813	-36.8208888011342	5.05888627729532	0.705631676618472	0.977278066855708	-0.00106451624297085	-0.00515662066673093
0.19	5.52088099504246	0.25843581945852	742.830497884091	-36.9489278527139	5.02579001973419	0.681003233327977	0.953912915961276	-0.00110957770967595	-0.00499400146981356
0.2	5.528869350051	0.240968672684841	742.921409246657	-37.0590510175088	4.9928236712976	0.656085142033696	0.930316466602731	-0.00115360075742811	-0.00484940745520238
0.21	5.53727154594724	0.209932892314206	742.914353709611	-37.1501801912869	4.95980121551741	0.631923893156077	0.907482467952535	-0.00119682184489345	-0.0047240088939508
0.22	5.54574722512739	0.168622935072352	742.808808285382	-37.2218139611944	4.92659311604972	0.609409157607849	0.886255918647298	-0.00123943884285299	-0.00461847740202422
0.23	5.55406116043877	0.120227131523887	742.608557401446	-37.2740530701262	4.89312653811853	0.589246704160889	0.867307254343144	-0.00128160872605328	-0.00453295089313924
0.24	5.5620889418796	0.0677690556707757	742.321485979021	-37.3075986876758	4.85938250227692	0.571941443591646	0.851116207547311	-0.00132344781204869	-0.00446702142562001
0.25	5.56981777795847	0.0140596368246237	741.959173976787	-37.3237241937227	4.82539042537305	0.557790877486435	0.837965595780957	-0.00136503422646207	-0.00441974619530598
0.26	5.57734227649238	-0.0383406975962259	741.536319635565	-37.3242224212363	4.79122061454524	0.546888724256346	0.827944805559435	-0.00140641214868593	-0.00438968084576985
0.27	5.58485511904862	-0.0871508811267034	741.070026299091	-37.3113313951339	4.75697534512473	0.539138026061953	0.820962288317851	-0.00144759730742274	-0.00437493325265525
0.28	5.59263264332079	-0.130390247892444	740.578992976534	-37.2876425012361	4.7227791715943	0.53427262663172	0.816765988506884	-0.00148858315977654	-0.00437323503691499
0.29	5.60101551425586	-0.166392918118913	740.082651655518	-37.2559956905778	4.68876909488505	0.531885566566572	0.814970298254921	-0.00152934720388203	-0.00438202731462659
0.3	5.61038490181972	-0.193816550729879	739.600294826042	-37.2193667477429	4.65508514513997	0.531462681230321	0.815087888095609	-0.00156985694044432	-0.00439855663468373
0.31	5.62113488164841	-0.211646246987137	739.150234924267	-37.1807518178102	4.62186184506217	0.532419514605169	0.816564606375236	-0.00161007510441131	-0.00441997671598528
0.32	5.63364211205673	-0.219194100905521	738.749033742579	-37.1430542980464	4.58922090525862	0.534139584672708	0.818815574430372	-0.00164996392079922	-0.0044434514863073
0.33	5.64823418342634	-0.216094596203499	738.41083464107	-37.1089788733921	4.55726538048847	0.536012052332572	0.821260630149048	-0.00168948828179105	-0.00446625504536919
0.34	5.66515834289777	-0.20229578646172	738.146824035049	-37.0809369365766	4.52607539501766	0.537466953220011	0.823357385195552	-0.001728617878127	-0.00448586450991779
0.35	5.68455252502914	-0.178045999902745	737.964841528859	-37.0609669217599	4.49570543566906	0.538006342985225	0.824630353576107	-0.00176732843060733	-0.0045000422210545
0.36	5.70642072711717	-0.143875709310561	737.869150603019	-37.0506722396853	4.46618311983647	0.53722997108507	0.824694870540567	-0.0018056022451889	-0.00450690446495165
0.37	5.73061472410927	-0.100574217060617	737.860374284286	-37.0511785813914	4.43750927725339	0.534854422091667	0.82327483705832	-0.00184342835112507	-0.00450497463169106
0.38	5.75682390355824	-0.0491609290626087	737.935593028756	-37.0631114064845	4.40965914034467	0.530725030303589	0.820213679483787	-0.00188080247557255	-0.00449321956391909
0.39	5.78457461354961	0.00914877871919551	738.088595361535	-37.086593498557	4.38258441745614	0.524820264236416	0.815478287594903	-0.0019177270657666	-0.00447106867843238
0.4	5.81323987181709	0.0729827816467585	738.310265823029	-37.1212615975208	4.35621602276109	0.517248672236051	0.80915606678409	-0.00195421150173669	-0.00443841623451374
0.41	5.84205961600424	0.140855824200429	738.589089604301	-37.1663003426582	4.33046725120905	0.508238858600009	0.801445591616178	-0.00199027256195276	-0.00439560783405365
0.42	5.87017093229955	0.21121645148145	738.911749008874	-37.2204911094417	4.30523721081182	0.498123301713402	0.792641659376079	-0.00202593512519448	-0.00434341283964965
0.43	5.89664694280725	0.282495801545403	739.263783627874	-37.282272817677	4.28041435230865	0.487317114403833	0.78311579742751	-0.00206123302664551	-0.00428298486656577
0.44	5.92054232705495	0.353156496301916	739.630283917341	-37.3498114402034	4.25587996315917	0.476293067775484	0.773293464881967	-0.00209620994366204	-0.0042158128305881
0.45	5.9409428652693	0.421739655524188	739.996586771269	-37.4210747546946	4.23151151563044	0.46555434306443	0.763629299664647	-0.00213092017133177	-0.00414366521321638
0.46	5.95701597829368	0.486907969171094	740.34894173609	-37.4939088540165	4.20718577587509	0.45560653613708	0.754581794165523	-0.00216542915955525	-0.00406853024290891
0.47	5.96805904541113	0.547482815043708	740.675117747785	-37.5661130556484	4.18278159238718	0.446930415694787	0.746588739006386	-0.00219981371739543	-0.00399255459738666
0.48	5.97354233226201	0.602473607131912	740.964922710021	-37.6355101159603	4.15818228952499	0.439956833526487	0.740044662368601	-0.00223416183903778	-0.00391798302347677
0.49	5.97314365993	0.651097897768981	741.210611860719	-37.7000090450321	4.13327759739198	0.43504501222044	0.735281322836168	-0.00226857215922085	-0.00384710096744654
0.5	5.9667724735714	0.692791215024928	741.407165643025	-37.7576583133916	4.10796505631644	0.432465205282514	0.732552100368062	-0.0023031530944599	-0.00378218193246087
0.51	5.95458168360575	0.727206166660543	741.552423598228	-37.8066878217019	4.08215084557124	0.432386452020607	0.732020887644247	-0.00233802176100758	-0.00372544085427207
0.52	5.93696649562093	0.75420094691281	741.647067461576	-37.8455386433904	4.05575000447236	0.434869851855983	0.733755827529493	-0.00237330277495279	-0.00367899433561988
0.53	5.91455034581585	0.773818001419511	741.694453926596	-37.8728802211032	4.02868604129641	0.439867477378549	0.737727985757845	-0.00240912703123208	-0.00364482812788815
0.54	5.88815894094264	0.786254196589279	741.700305140495	-37.8876153710222	4.00088996190993	0.447226749319723	0.743814803544648	-0.00244563052759886	-0.00362477181805331
0.55	5.85878419165119	0.791824362524924	741.672272534224	-37.8888740932231	3.97229879429822	0.456699824976843	0.751807953080129	-0.00248295325159854	-0.00362048029065364
0.56	5.82754046181246	0.790920497712023	741.61939666467	-37.8759977696185	3.94285373425009	0.467957317524367	0.76142502804109	-0.00252123809141868	-0.00363342120638926
0.57	5.79561598539041	0.783969210366219	741.551491922949	-37.8485158228501	3.91249808659716	0.480605477340289	0.772324347625732	-0.00256062967529685	-0.00366486748540088
0.58	5.76422249826696	0.771390105184235	741.478489822801	-37.8061172817361	3.88117521970824	0.494205835090856	0.78412204051554	-0.00260127299966062	-0.00371589361435577
0.59	5.73454608862815	0.753557794213829	741.409777751347	-37.7486199281874	3.84882678194952	0.508296233678237	0.796410507146671	-0.00264331168274485	-0.003787374517555
0.6	5.70770200139134	0.730770015543091	741.35357124451	-37.6759397700856	3.81539144142186	0.522412162734262	0.808777335517611	-0.00268688568449221	-0.00387998574383804
0.61	5.68469567435038	0.703223992508603	741.316356853622	-37.588063485962	3.78080439964182	0.536107352337479	0.820823766455543	-0.00273212836724191	-0.00399420381879904
0.62	5.66639168604866	0.671002677907385	741.302439445282	-37.4850262215362	3.74499789326216	0.548972676214069	0.83218186594504	-0.0027791628323695	-0.00413030578704091
0.63	5.65349161732334	0.634071929929571	741.313622419243	-37.3668966967367	3.7079028355349	0.560652550442947	0.842529660094303	-0.00282809754847422	-0.00428836720936748
0.64	5.64652113292799	0.592288994264735	741.349042087333	-37.2337710266247	3.66945166417375	0.570858181260788	0.851603616213002	-0.00287902137644015	-0.00446825816936446
0.65	5.64582593679	0.545421960437161	741.405168720541	-37.0857760021667	3.62958236066259	0.579377203453666	0.859208003609637	-0.00293199818378091	-0.00466963716495754
0.66	5.65157569601748	0.493179162964764	741.475977050964	-36.9230818565231	3.5882434963359	0.586079447295935	0.865220831562383	-0.00298706131382847	-0.00489194309415568
0.67	5.66377460355123	0.43524685228464	741.55327890534	-36.745923804493	3.54540005267788	0.590918765988323	0.869596230724129	-0.00304420822580248	-0.00513438587079101
0.68	5.68227698040771	0.371332906273066	741.627200785743	-36.5546309346102	3.50103966762086	0.593931037434153	0.872363309626566	-0.00310339564470063	-0.0053959365065956
0.69	5.70680621211301	0.301213924514834	741.686780236059	-36.3496604020475	3.45517888584753	0.595228616351842	0.873621672516597	-0.00316453555464146	-0.00567531775255958
0.7	5.73697536072694	0.224782770187432	741.720647325975	-36.1316343588201	3.40786894717658	0.594991649801363	0.873533922382428	-0.00322749233890364	-0.00597099658917376
0.71	5.77230797111762	0.142093515069236	741.717752040645	-35.9013767015569	3.35920063846961	0.59345677810353	0.872315589130176	-0.00329208132013451	-0.00628117997821015
0.72	5.81225786565654	0.0534008082502133	741.668095148956	-35.659946542488	3.3093077635448	0.590903822744728	0.87022301443279	-0.00335806889169576	-0.00660381532731057
0.73	5.85622705780624	-0.0408090749142387	741.563419447724	-35.4086653309957	3.25836885149385	0.587641113636691	0.867539790196754	-0.00342517436190703	-0.00693659706534468
0.74	5.90358127373461	-0.139797853174796	741.397820187232	-35.1491347734297	3.20660682264752	0.583990131553651	0.864562386486109	-0.00349307356128212	-0.00727698057767082
0.75	5.95366291649093	-0.242567348195309	741.168237851616	-34.8832431076726	3.15428645654908	0.580270139790105	0.861585617650185	-0.00356140419069169	-0.00762220450698707
0.76	6.00580160955711	-0.347865262257461	740.874803015715	-34.6131578641982	3.10170964881783	0.576783454341842	0.858888583525555	-0.00362977281566282	-0.00796932209333154
0.77	6.05932269358343	-0.454205092214068	740.521011314565	-34.3413039548678	3.0492085933548	0.573801956373378	0.856721687545486	-0.00369776333754585	-0.00831524181728906
0.78	6.11355420828014	-0.559899896674376	740.113716126437	-34.0703267341787	2.9971371718634	0.571555386312174	0.855295277241892	-0.00376494669499826	-0.00865677714033281
0.79	6.16783296577809	-0.663108884495387	739.662936803216	-33.8030405293299	2.94586096309913	0.570221877294389	0.854770376947989	-0.00383089146961072	-0.00899070462735788
0.8	6.22151031506523	-0.76189508348804	739.18149057497	-33.5423639867913	2.89574638947017	0.569921088529135	0.855251889638967	-0.00389517499054058	-0.0093138292152186
0.81	6.27395811854099	-0.854291714899698	738.684466014371	-33.2912443855617	2.84714959006608	0.570710188374047	0.856784537206728	-0.00395739446077978	-0.00962305488727574
0.82	6.324575325308	-0.93837437403505	738.188564627057	-33.0525737750972	2.80040564068956	0.572582815100681	0.859351688987127	-0.00401717757103282	-0.00991545855936734
0.83	6.37279534871197	-1.01233572767124	737.711344272811	-32.82910036811	2.75581872964502	0.575471014031424	0.862877100722522	-0.00407419203676329	-0.0101883646090667
0.84	6.41809425669203	-1.07455920609474	737.270403360671	-32.6233390213154	2.71365384270932	0.579250017669777	0.867229454932361	-0.00412815350056837	-0.0104394172171574
0.85	6.45999958196367	-1.12368810627958	736.882547858895	-32.4374848458497	2.67413041494646	0.583745606451166	0.87222946438015	-0.00417883129451688	-0.0106666475627425
0.86	6.49809937351338	-1.15868664017037	736.562984002976	-32.2733339888709	2.63741827699289	0.588743668434512	0.877659179200266	-0.00422605166028852	-0.010868532938904
0.87	6.53205095835485	-1.17888975745656	736.324578179276	-32.1322154153173	2.60363606798195	0.594001473514057	0.883273031878429	-0.00426969817795925	-0.011044045042615
0.88	6.56158877756546	-1.18403903637303	736.177221929962	-32.0149371019746	2.57285211734077	0.599260098012161	0.888810069103457	-0.00430970934935346	-0.0111926850383076
0.89	6.58653061458595	-1.17430255093899	736.127334588119	-31.9217494541869	2.5450876255836	0.604257384148811	0.894006761210433	-0.0043460735044264	-0.0113145034855902
0.9	6.60678155379854	-1.1502773620253	736.177529014925	-31.8523279984267	2.52032181277526	0.608740799469851	0.898609752860128	-0.00437882142875503	-0.0114101038340299
0.91	6.62233509581079	-1.11297410809577	736.326457642645	-31.8057765301042	2.49849856500379	0.612479575294548	0.902387925246673	-0.00440801732290188	-0.0114806288886537
0.92	6.6332710095919	-1.06378404805219	736.56884694358	-31.780650950884	2.4795340051345	0.615275549722617	0.905143180807597	-0.00443374887555767	-0.0115277303993104
0.93	6.63974971195628	-1.00442978720853	736.895718990092	-31.7750030631647	2.4633243532349	0.616972216589645	0.906719434116028	-0.00445611734011612	-0.0115535226821984
0.94	6.64200321771254	-0.936901749708777	737.294789400377	-31.7864426525058	2.44975343020257	0.617461581945462	0.907009393127392	-0.00447522853278293	-0.0115605218993379
0.95	6.64032298000456	-0.86338319919646	737.751022130292	-31.8122153313781	2.43869919739154	0.616688547750172	0.905958837100182	-0.00449118561196738	-0.0115515732610816
0.96	6.63504521693175	-0.786167210796983	738.247313703435	-31.8492928848729	2.43003881337538	0.614652671398108	0.903568233803421	-0.00450408435569656	-0.0115297689431595
0.97	6.62653457200249	-0.707569425210485	738.765272961572	-31.8944722889392	2.42365182019925	0.611407282145379	0.899891680811444	-0.00451401143783171	-0.0114983598963703
0.98	6.6151671565522	-0.629840643546845	739.286057600477	-31.944479192858	2.41942123556462	0.607056064713982	0.895033295439542	-0.00452104593476004	-0.0114606649564228
0.99	6.60131414832023	-0.555083335059922	739.791225892593	-31.9960714874782	2.41723251133708	0.601747340260004	0.889141307393093	-0.0045252639974448	-0.0114199807261854
1	6.58532715320236	-0.485175927974209	740.263561256167	-32.0461386248193	2.41697050760695	0.595666380512897	0.882400220717566	-0.00452674632730703	-0.0113794956052327
1.01	6.56752646554731	-0.421708348441021	740.687828773637	-32.0917926067402	2.41851480962732	0.589026178251889	0.875021501754522	-0.00452558782593018	-0.0113422110935765
1.02	6.54819318452414	-0.365931689254995	741.051426338233	-32.1304470033271	2.42173386736423	0.582057163401726	0.86723331370331	-0.00452190857223147	-0.0113108731166335
1.03	6.5275658688955	-0.318724163974905	741.344898647739	-32.1598809689886	2.42647855118065	0.574996396789394	0.859269853840128	-0.00451586513520672	-0.0112879156309398
1.04	6.50584205923949	-0.280574677061014	741.56228948638	-32.1782859623509	2.43257578258242	0.568076791648203	0.851360855756386	-0.00450766116731307	-0.011275418201975
1.05	6.48318459352972	-0.251584464448901	741.701316258359	-32.1842937064573	2.4398229103211	0.561516905613401	0.843721796798362	-0.00449755624704895	-0.0112750786248371
1.06	6.45973222378419	-0.231486380102797	741.763360098764	-32.1769848074921	2.44798345848698	0.555511813234734	0.836545302013963	-0.0044858720458135	-0.0112882010128757
1.07	6.43561364623841	-0.219680568071429	741.753274575944	-32.1558783417298	2.4567847783553	0.55022551170167	0.829994163083565	-0.00447299507338966	-0.0113156991345947
1.08	6.41096372270581	-0.215284506138168	741.679025478769	-32.1209035812994	2.46591799796507	0.545785232194845	0.824196297479268	-0.00445937549262459	-0.0113581141589376
1.09	6.38594042969484	-0.217194768306483	741.55118292858	-32.0723558218285	2.47504049466961	0.542277928762639	0.819241863735584	-0.00444552176752456	-0.0114156453951133
1.1	6.36074094993258	-0.224157352470011	741.382294588433	-32.0108389649557	2.48378093062503	0.539749099806535	0.81518262819431	-0.00443199119855971	-0.0114881921051185
1.11	6.33561533310169	-0.234843071577298	741.186174653451	-31.9371980665536	2.49174670482416	0.538203969360704	0.81203355255368	-0.00441937668292059	-0.0115754040429661
1.12	6.31087630136833	-0.247924318745505	740.977147283429	-31.8524454632342	2.49853350278954	0.537610922816771	0.809776446274598	-0.00440829029575419	-0.0116767380503989
1.13	6.28690405027432	-0.262149490275565	740.769284983168	-31.7576843175102	2.5037364794823	0.537906962023292	0.808365410119566	-0.00439934450380372	-0.0117915178284398
1.14	6.26414527427651	-0.276411481884867	740.575682070345	-31.6540334651001	2.50696250244223	0.539004825820473	0.807733693770505	-0.00439313198187519	-0.0119189939185084
1.15	6.24310609609732	-0.289806955793144	740.407800841968	-31.542557303271	2.50784281700141	0.540801322099787	0.807801508316859	-0.00439020509590889	-0.012058400973224
1.16	6.22433906069441	-0.301683499937567	740.274923523744	-31.4242041321918	2.5060454759481	0.543186343756101	0.808484279380645	-0.00439105613947789	-0.0122090095776488
1.17	6.2084248257076	-0.311672353229441	740.183736833425	-31.2997558661631	2.50128690070698	0.546051999344464	0.80970080331245	-0.00439609936326902	-0.0123701701928165
