Time [s]	GRFml [N]	GRFap [N]	GRFv [N]	Mml [N.m]	Map [N.m]	Mv [N.m]	Mfree [N.m]	COPml [m]	COPap [m]
0.01	19.9839811170428	7.58909359761735	828.382226296563	-56.87556913003	4.36274777751861	-3.05735057380842	-1.72600240461905	-0.000344566874726742	-0.000724610417959473
0.02	19.9212755367162	7.35903405922214	827.567587465384	-57.0792822969862	4.41431978012182	-3.08832598429121	-1.7541435171414	-0.000273215723978767	-0.000403834884005513
0.03	19.8591823985942	7.13449950706953	826.768477570289	-57.2797101936166	4.4647101223405	-3.11868875128092	-1.78176591937679	-0.000203481373479541	-8.85656242720911e-05
0.04	19.7988540120595	6.91998901788492	825.999750005285	-57.473124053511	4.51291491497501	-3.14782337794625	-1.80830685140213	-0.000136698086118337	0.000215290567926407
0.05	19.7414430929982	6.7196608811257	825.275030746514	-57.6559972934803	4.55797803527989	-3.17515528810537	-1.83323528874162	-7.41290013676309e-05	0.000502190285239609
0.06	19.6880699484257	6.53715608014242	824.606177648675	-57.8251308657575	4.59902852647097	-3.20017362433759	-1.85607232347391	-1.69172574601573e-05	0.000767155065279676
0.07	19.6397896108689	6.3754454520559	824.002846739217	-57.9777606586232	4.6353160241107	-3.22245046094529	-1.87640875521742	3.39594452316424e-05	0.00100594102499112
0.08	19.5975599190157	6.23670843025534	823.472188178944	-58.1116421467285	4.6662425569958	-3.24165548816422	-1.89391907609127	7.77288056446144e-05	0.00121516883429007
0.09	19.562211593289	6.12224945026931	823.018684788686	-58.225109103538	4.69138909306106	-3.25756556029078	-1.90837129397888	0.000113856471899621	0.00139240913641839
0.1	19.5344213504018	6.03245597435471	822.644135776143	-58.3171049042295	4.71053532237589	-3.27006885885021	-1.91963231825223	0.000142069441080426	0.00153622150702089
0.11	19.514689033484	5.96679979900761	822.347778382062	-58.3871866394959	4.72367139612516	-3.27916377298377	-1.92766890876832	0.000162368878058956	0.00164614794797593
0.12	19.5033196089791	5.92388099007643	822.126531351802	-58.4355038162228	4.73100066811846	-3.28495291662306	-1.93254444201376	0.000175031338915358	0.00172266454487283
0.13	19.5004107110747	5.90151157310503	821.975337035585	-58.4627547479781	4.73293289955328	-3.28763296454814	-1.9344119612667	0.000180597897359376	0.00176709712560927
0.14	19.5058462160745	5.89683410996532	821.887573958417	-58.4701247685598	4.73006786594721	-3.28748118219246	-1.93350413906483	0.000179851258578898	0.00178150842995911
0.15	19.5192961204552	5.90646861673369	821.855509110992	-58.4592110925716	4.72316981870575	-3.2848396390638	-1.93012088406486	0.000173781571366721	0.00176856536705856
0.16	19.540222792237	5.92668000008168	821.870759025267	-58.431939480203	4.71313377027938	-3.28009813182241	-1.92461536983451	0.000163542276691505	0.00173139537338404
0.17	19.5678934756729	5.95355736337137	821.924730752069	-58.3904778447688	4.7009450575118	-3.27367680570141	-1.91737925424962	0.000150397916380428	0.001673440703232
0.18	19.6013987582874	5.98319618604799	822.009017827637	-58.3371515981006	4.68763405986489	-3.2660093627534	-1.90882780276865	0.000135666327307087	0.00159831874078004
0.19	19.6396765557616	6.01187451108136	822.115731750054	-58.2743649057745	4.67422827829402	-3.25752759706122	-1.89938553734843	0.000120658026991566	0.00150969520502728
0.2	19.6815410291377	6.03621485975849	822.237755853183	-58.2045311810717	4.66170419247588	-3.24864781766816	-1.8894729169887	0.000106615826056897	0.00141117554078291
0.21	19.7257157138459	6.05332458227951	822.368915202706	-58.1300151533778	4.65094139160981	-3.23975952737013	-1.87949442795161	9.46577617681795e-05	0.00130621798326169
0.22	19.7708700056825	6.06090867757297	822.504062701517	-58.0530877789471	4.64268140800348	-3.23121653650502	-1.86982833293185	8.57263264265329e-05	0.00119806989209031
0.23	19.8156580127121	6.05735069225156	822.639087496514	-57.9758941959214	4.63749347287962	-3.22333051988181	-1.86081820859816	8.05466679405569e-05	0.00108972711195079
0.24	19.8587586462932	6.04175904226224	822.770856637325	-57.9004339337281	4.63574906917672	-3.21636688289741	-1.85276629753938	7.9595982064847e-05	0.000983914458916102
0.25	19.8989156962638	6.01397789283127	822.897104479577	-57.8285517337684	4.63760669421802	-3.21054269643844	-1.84592861875421	8.30857215579281e-05	0.000883084060172248
0.26	19.9349765267033	5.97456348569868	823.016286409801	-57.761936676004	4.64300769151065	-3.20602639186371	-1.84051172282586	9.09575506978788e-05	0.000789427269238002
0.27	19.9659279549971	5.92472842757757	823.127414082374	-57.7021268720743	4.65168339755071	-3.20293887587266	-1.83667094374055	0.000102893214874973	0.000704895286561702
0.28	19.9909278552043	5.86625787263039	823.229888603283	-57.6505168005631	4.66317321276926	-3.20135572594988	-1.83450998667729	0.000118337719482982	0.00063122345151953
0.29	20.0093310732452	5.80140268293085	823.323346168237	-57.6083644269922	4.6768525842887	-3.20131015377678	-1.83408169601073	0.000136534466897298	0.000569954420331795
0.3	20.0207083692535	5.73275549140177	823.407527830427	-57.5767955558494	4.69196932031816	-3.20279646883279	-1.83538986498503	0.000156570330581671	0.000522456061847074
0.31	20.0248573189672	5.66311609844886	823.482181643113	-57.5568033744571	4.70768617736628	-3.20577382947795	-1.83839197212396	0.000177428092690776	0.000489930823943163
0.32	20.0218044110306	5.59535280298226	823.547001713856	-57.5492418253477	4.72312730239704	-3.21017012675452	-1.84300275344179	0.000198043270256921	0.000473414465762864
0.33	20.0117979614665	5.53226611550469	823.601605026959	-57.5548122312985	4.73742589579408	-3.21588590067145	-1.84909853841879	0.000217362129985349	0.000473763323554116
0.34	19.9952919122159	5.47646085595427	823.64554351111	-57.5740434348098	4.74977040191592	-3.22279823495899	-1.85652228708373	0.000234397656401315	0.000491630584994865
0.35	19.9729210612695	5.43023194496327	823.678345972906	-57.6072665382332	4.75944663667815	-3.23076461091649	-1.86508926255024	0.000248280393984225	0.000527433294556581
0.36	19.9454687552104	5.39546830573184	823.699582347411	-57.6545860797166	4.76587352035127	-3.23962672241284	-1.87459325707788	0.000258301420249639	0.000581312913119053
0.37	19.9138285254519	5.37357826119471	823.708941333	-57.7158500964581	4.76863048307851	-3.24921426235407	-1.88481326139883	0.000263945201574948	0.000653093132017918
0.38	19.8789615319148	5.36543869507431	823.706311914361	-57.7906219620587	4.76747512598565	-3.25934868752027	-1.89552042997443	0.000264910705524507	0.000742239233256586
0.39	19.8418519609832	5.37136910123807	823.691859508693	-57.8781571027689	4.76235032018005	-3.26984695631859	-1.90648515407119	0.000261119853937056	0.000847823550600285
0.4	19.8034626838535	5.39113052451304	823.666088416425	-57.9773876766193	4.75338057189641	-3.28052521624164	-1.91748401625628	0.000252713156884677	0.000968501499031757
0.41	19.7646935016056	5.42394834261115	823.629883795096	-58.0869180347568	4.7408581338272	-3.29120239850526	-1.92830637061569	0.000240033123613609	0.00110250220433593
0.42	19.7263441796906	5.46855689082973	823.584528346766	-58.2050332877704	4.72521995896355	-3.30170366007686	-1.93876027862691	0.0002235967581315	0.00124763700598413
0.43	19.6890842128267	5.52326311900205	823.531691138614	-58.3297225997939	4.7070171348624	-3.31186360099768	-1.94867753569332	0.000204059072598366	0.00140132807321325
0.44	19.6534308770962	5.58602581665621	823.473388280178	-58.4587179727087	4.68687886871632	-3.32152917942129	-1.95791755033047	0.000182170054631816	0.0015606581340032
0.45	19.6197366432054	5.65454646321728	823.41191738331	-58.5895483165434	4.66547338967514	-3.33056224887732	-1.96636988693114	0.000158727875608575	0.00172244095218313
0.46	19.5881864736365	5.72636746420548	823.3497696767	-58.7196075929838	4.64346827639738	-3.33884165163983	-1.97395535151737	0.000134531305226471	0.0018833107907489
0.47	19.558804941351	5.79897342393706	823.289525210535	-58.8462348334887	4.62149269703115	-3.34626481768923	-1.98062558331056	0.000110334292060517	0.00203982776362709
0.48	19.5314725254983	5.8698911759083	823.233737681369	-58.966802938173	4.60010386885266	-3.3527488391201	-1.98636120700136	8.68054804096258e-05	0.00218859479329227
0.49	19.5059498969729	5.93678453315049	823.184815987428	-59.078812418021	4.57975971930223	-3.35823101331378	-1.99116869387875	6.4495071292036e-05	0.00232638093722494
0.5	19.4819085381739	5.99754011559488	823.144909686811	-59.1799857041087	4.56079928230573	-3.36266887311979	-1.995076166683	4.38109218155441e-05	0.00245024518620018
0.51	19.4589656771797	6.05034113748662	823.115805110091	-59.2683573542594	4.54343182448398	-3.36603974707533	-1.9981284556695	2.50051442370648e-05	0.00255765451678798
0.52	19.4367212806357	6.09372666797341	823.098838040383	-59.3423554659407	4.52773510167783	-3.36833991574372	-2.00038176534551	8.17175435077235e-06	0.00264659002285832
0.53	19.414794757754	6.12663458141258	823.094827707042	-59.4008698634142	4.51366253687707	-3.36958344991381	-2.00189833763166	-6.7448246900241e-06	0.00271563535775052
0.54	19.392859086351	6.14842715781574	823.104035446217	-59.4433031584882	4.50105852645174	-3.36980083094128	-2.00274149478626	-1.9931322042737e-05	0.00276404246963294
0.55	19.3706702770297	6.15889904486889	823.126149870437	-59.4696015612182	4.4896805608714	-3.36903746120983	-2.00297141365481	-3.16788174774809e-05	0.00279177066653741
0.56	19.3480904293609	6.1582680191008	823.160298864988	-59.4802632965712	4.47922642273009	-3.3673521720209	-2.0026419235246	-4.23496944308242e-05	0.002799496345645
0.57	19.3251030804139	6.14714965591214	823.205087286567	-59.4763236084299	4.46936442606436	-3.36481582611821	-2.00179853735503	-5.23408509845369e-05	0.00278859218993703
0.58	19.3018200690891	6.12651761146893	823.258657959762	-59.4593165360715	4.45976450533112	-3.36151009217406	-2.00047782677217	-6.20458775170028e-05	0.00276107619009892
0.59	19.2784797011958	6.09765171422645	823.318772510722	-59.4312148574114	4.45012795881843	-3.3575264395169	-1.99870814280808	-7.18189200323363e-05	0.00271953240074134
0.6	19.2554365589017	6.0620764460021	823.382907784945	-59.3943507343792	4.44021379794529	-3.35296536486017	-1.99651157552738	-8.19427643896668e-05	0.00266700679762183
0.61	19.2331438133728	6.02149265353679	823.448363085275	-59.3513206001439	4.42985993857886	-3.34793582159777	-1.99390694496269	-9.26033152513113e-05	0.00260688288223827
0.62	19.2121293346585	5.97770546804945	823.512373233981	-59.3048786366943	4.41899787114223	-3.3425547801365	-1.9909135309427	-0.00010387213466488	0.00254274270875159
0.63	19.1929672192549	5.93255142373135	823.572222487773	-59.2578237596141	4.40765993274975	-3.33694680922191	-1.98755518682649	-0.000115698089916608	0.00247821972875475
0.64	19.1762465544994	5.88782766190164	823.625354581245	-59.2128853266844	4.39597884087215	-3.33124353806539	-1.983864446459	-0.000127908487034592	0.00241685022521508
0.65	19.1625393028994	5.84522589478201	823.669474597841	-59.1726128083185	4.38417969500343	-3.32558284186246	-1.97988622742701	-0.000140219386473839	0.00236193012386492
0.66	19.1523691234112	5.80627349403671	823.70263891998	-59.1392744088301	4.37256517133849	-3.32010759276937	-1.97568075744131	-0.000152254161070774	0.00231638363738704
0.67	19.1461827661852	5.77228367996787	823.723330145162	-59.1147691323219	4.36149508943896	-3.31496383696079	-1.97132540287834	-0.000163568807884052	0.00228264954542864
0.68	19.1443254066775	5.74431633598096	823.730514532907	-59.1005560828021	4.35136188885243	-3.31029829654017	-1.96691515574673	-0.000173682100884555	0.00226258999030178
0.69	19.1470209543086	5.72315048041497	823.723680237626	-59.0976039214148	4.34256379518118	-3.30625515114792	-1.9625616324226	-0.000182108395422946	0.00225742553575443
0.7	19.1543580122924	5.70926891642905	823.702855264708	-59.1063624258426	4.33547756608689	-3.30297212419861	-1.95839054775683	-0.00018839078052869	0.00226769896325682
0.71	19.1662818099158	5.70285507321154	823.668604750745	-59.1267570604493	4.33043268513469	-3.30057597683594	-1.95453774378509	-0.000192132321550742	0.0022932689370856
0.72	19.1825921031286	5.70380157034025	823.622007810702	-59.1582064206828	4.32768872202005	-3.2991775914631	-1.95114396476624	-0.000193023332118982	0.00233333332262937
0.73	19.2029467638276	5.7117296013931	823.564614815857	-59.1996614069514	4.32741731721033	-3.29886689784161	-1.94834867102841	-0.000190862939808234	0.00238648065072244
0.74	19.2268705645482	5.72601785901079	823.498386568127	-59.249664050721	4.32968990012668	-3.29970795013227	-1.94628326508024	-0.000185573635721747	0.00245076703362046
0.75	19.2537685168064	5.74583942314962	823.425617417735	-59.3064230914359	4.33447184041544	-3.30173449582331	-1.9450641579213	-0.000177207991255994	0.00252381479437216
0.76	19.2829430337741	5.77020481391755	823.348844925934	-59.3679027132547	4.34162329187268	-3.30494638215895	-1.94478612673654	-0.000165947250401943	0.00260292820040164
0.77	19.3136141510187	5.79800927209925	823.270749190329	-59.4319203162873	4.35090654857788	-3.3093071200008	-1.94551640501619	-0.00015209202857264	0.00268522101621993
0.78	19.3449420388347	5.8280822720925	823.194045408305	-59.4962488342316	4.36199932110017	-3.31474286964196	-1.94728990330388	-0.000136045837436748	0.00276775012611115
0.79	19.3760510614266	5.8592372882038	823.121373629932	-59.5587189312898	4.37451298180807	-3.32114303167324	-1.95010588680462	-0.000118292582335901	0.00284764923855238
0.8	19.4060546686219	5.89031991869668	823.055189917715	-59.6173164244261	4.38801454183459	-3.32836252507289	-1.95392634106774	-9.93695227857021e-05	0.00292225668036655
0.81	19.4340804351911	5.92025261413605	822.997663258225	-59.6702704864383	4.40205092185699	-3.33622572286371	-1.95867614687449	-7.98374315110397e-05	0.00298923152725486
0.82	19.4592945862088	5.94807444855306	822.950582534422	-59.716128589582	4.41617397224148	-3.34453190274405	-1.96424506932469	-6.02498237597055e-05	0.00304665280062293
0.83	19.4809253642245	5.97297460504933	822.915277647812	-59.7538147404149	4.42996468709578	-3.35306196597666	-1.97049145307162	-4.11231525806136e-05	0.00309309718340053
0.84	19.4982846097482	5.99431851338601	822.892558466622	-59.7826683178017	4.44305513775042	-3.36158609153981	-1.97724741408453	-2.29097793531729e-05	0.0031276916546958
0.85	19.5107869482694	6.01166586808089	822.882674671623	-59.8024617321592	4.45514681580903	-3.36987193133687	-1.98432523514225	-5.97533946529449e-06	0.00315013858703897
0.86	19.517966013628	6.0247800642151	822.885298790114	-59.8133961401134	4.46602431193874	-3.37769292088936	-1.99152461243821	9.41815710385659e-06	0.0031607121492654
0.87	19.519487197323	6.03362890741101	822.899533778954	-59.8160755308761	4.47556354883176	-3.38483628032047	-1.9986403669643	2.31225048420462e-05	0.00316022625757627
0.88	19.5151565021623	6.03837677713578	822.923945479506	-59.8114605974183	4.48373411804279	-3.39111031155629	-2.00547022726941	3.51061841481204e-05	0.00314997574972396
0.89	19.5049251986059	6.03936874110023	822.956619170503	-59.8008048602579	4.49059562232226	-3.39635065580223	-2.01182230823724	4.5449806923367e-05	0.00313165384656648
0.9	19.488890130872	6.03710742484331	822.995238345042	-59.7855764655886	4.49628827887319	-3.40042525451465	-2.01752195042686	5.43344330714481e-05	0.00310725023141468
0.91	19.4672896905102	6.0322237253939	823.037182793052	-59.7673698751774	4.501018376224	-3.40323784972368	-2.02241764165748	6.20234903363085e-05	0.00307893514239843
0.92	19.4404956570961	6.02544271077555	823.079642136329	-59.7478122509289	4.5050394806381	-3.40472995731164	-2.02638581139364	6.88394118718572e-05	0.00304893566611086
0.93	19.409001285825	6.0175462565488	823.119740188754	-59.7284696694739	4.50863054121916	-3.40488134136818	-2.02933436318897	7.5136422244864e-05	0.0030194108853852
0.94	19.3734061859144	6.00933412434054	823.154664938669	-59.7107583516975	4.51207223231528	-3.4037091014738	-2.03120488513248	8.12711350903425e-05	0.00299233263226414
0.95	19.3343986684137	6.00158527325576	823.181798600144	-59.6958658448378	4.51562298645648	-3.40126555161396	-2.03197354759586	8.75727612003052e-05	0.00296937831344025
0.96	19.2927363360231	5.99502120234635	823.198842068092	-59.6846865549182	4.51949620329625	-3.39763511526824	-2.03165075723614	9.4314757027693e-05	0.00295184161831795
0.97	19.2492257331854	5.99027304280938	823.20392823939	-59.6777752182712	4.52384006635245	-3.39293048419016	-2.03027968307181	0.000101689669110836	0.00294056592225467
0.98	19.2047018687516	5.98785394848121	823.195719018173	-59.6753208651571	4.52872126082568	-3.38728828895276	-2.02793380291991	0.000109788754426176	0.00293590391468952
0.99	19.1600083673678	5.98813807432929	823.173481390795	-59.6771426253414	4.53411366840735	-3.38086451007186	-2.02471363647835	0.000118587690262314	0.00293770548779343
1	19.1159789052218	5.99134709349453	823.137138712527	-59.6827074280567	4.53989282972271	-3.37382982373732	-2.02074283618476	0.000127939344619204	0.00294533430402066
1.01	19.0734204503909	5.99754479942702	823.087294269862	-59.6911683390048	4.54583662744386	-3.36636503132635	-2.01616380111529	0.000137574177786083	0.0029577118169717
1.02	19.0330986697309	6.00663989271883	823.025225244238	-59.7014210401446	4.55163227258157	-3.35865667287654	-2.01113296576568	0.000147108408738979	0.00297338594816894
1.03	18.9957256962615	6.01839658957297	822.952846378393	-59.7121748759795	4.55688929519373	-3.3508928773403	-2.00581589803884	0.000156059629193942	0.00299062021792852
1.04	18.9619502865948	6.0324522409505	822.872643905733	-59.7220340353893	4.56115787225689	-3.34325946179957	-2.00038232248609	0.000163869107417394	0.00300749797720917
1.05	18.9323502493768	6.04834074956535	822.787581610205	-59.7295838678834	4.5639514930525	-3.33593626181358	-1.99500116867317	0.000169929617362771	0.00302203555994736
1.06	18.9074269034	6.06552024523789	822.700982195799	-59.7334770845918	4.56477268764646	-3.32909365819592	-1.98983573258206	0.000173617280024438	0.00303229772312183
1.07	18.8876012360044	6.08340325201624	822.616388407735	-59.7325146814253	4.56314034513459	-3.32288926268973	-1.98503903241237	0.000174325635299531	0.00303650869242578
1.08	18.8732113837465	6.10138747004611	822.537409499473	-59.7257168346111	4.55861703894995	-3.31746473558944	-1.98074943922478	0.000171499993679301	0.00303315248694756
1.09	18.8645110500995	6.11888530963223	822.467559611889	-59.7123797241755	4.55083476474963	-3.31294273027338	-1.9770866668322	0.000164670063068017	0.00302105693203643
1.1	18.8616685079339	6.13535045286424	822.410095352139	-59.6921151857975	4.53951758402169	-3.30942398962187	-1.97414821261107	0.000153478916246523	0.0029994568354076
1.11	18.8647659034009	6.1502999687434	822.367860262842	-59.6648712072937	4.52449984884765	-3.30698465332465	-1.97200634924558	0.000137706560482381	0.00296803312500497
1.12	18.8737986754354	6.16333085181306	822.343143901986	-59.63093249466	4.50573894911785	-3.30567386862611	-1.97070577419135	0.00011728668491679	0.00292692623845274
1.13	18.8886750219408	6.1741302662067	822.337562874048	-59.5909015526597	4.48332185605001	-3.30551182559908	-1.97026202607194	9.23155762132758e-05	0.00287672361293416
1.14	18.9092154686763	6.18247922677088	822.351970352287	-59.5456618777845	4.45746511348739	-3.3064883574564	-1.97066077266996	6.30526817551177e-05	0.00281842264830079
1.15	18.9351527180665	6.18824990448397	822.386399429335	-59.4963258768314	4.42850832620421	-3.30856225335093	-1.97185806145063	2.99128279022311e-05	0.00275337190791343
1.16	18.9661320609293	6.19139717310631	822.440044076568	-59.4441709448559	4.39690158574549	-3.31166142331018	-1.97378159919773	-6.54937099297051e-06	0.00268319449688521
1.17	19.0017127140666	6.19194538875078	822.51127965908	-59.3905677202287	4.3631876328511	-3.31568403146553	-1.97633309188426	-4.56618897024625e-05	0.00260969845077604
1.18	19.0413704924803	6.18997168922909	822.597722942073	-59.3369048576496	4.32797985709238	-3.32050067510581	-1.97939163008387	-8.66630235674647e-05	0.00253477953708155
