Time [s]	GRFml [N]	GRFap [N]	GRFv [N]	Mml [N.m]	Map [N.m]	Mv [N.m]	Mfree [N.m]	COPml [m]	COPap [m]
0.01	-1.1639742371447	1.08902796114497	572.367729339422	-5.96636997399861	5.55524905483969	0.381138998369911	-0.379533503841345	0.00250807547530896	-0.00633995745437393
0.02	-1.31945040482998	1.10470976119156	573.548315602493	-6.0324074725875	5.73935874287167	0.404090085564347	-0.401168823248226	0.00241739197135915	-0.00604820743714052
0.03	-1.42513413397855	1.10984515534669	574.582687927263	-6.08485540720992	5.89935885827834	0.425111498663579	-0.42129344805039	0.00234757029027355	-0.00579595513340797
0.04	-1.44023115497346	1.09556234145229	575.351061731869	-6.11335846531816	6.01568593507123	0.442669418014975	-0.43871793533891	0.00231436571964683	-0.00561523393660096
0.05	-1.35174766826606	1.05994151985267	575.777009301327	-6.11666914196658	6.08255218384654	0.455718071241764	-0.452514809264295	0.00231849853574051	-0.00551475672949148
0.06	-1.18130765328948	1.00952813514842	575.836548538356	-6.10364770418504	6.11073337201754	0.463715489829946	-0.461975280430072	0.00234407282550453	-0.00547519300779831
0.07	-0.982637012369443	0.958459097054677	575.556919999988	-6.09095661665867	6.12555012305125	0.46653452652255	-0.466536459563587	0.0023625557719108	-0.00545267263924049
0.08	-0.829665468578467	0.925376365683683	575.006272074709	-6.09834939418593	6.16043862695902	0.46434299944627	-0.465755902779009	0.0023407810512398	-0.00538985137893822
0.09	-0.797721132635367	0.928868206506439	574.277863895667	-6.14314388621696	6.2478057056152	0.457547244791094	-0.459409934478733	0.00225028284246154	-0.00523164294746364
0.1	-0.94248449808098	0.98258537532924	573.473550756168	-6.23555608217346	6.4097352432238	0.446866583539957	-0.447746121246379	0.00207513424052919	-0.0049412134891938
0.11	-1.28249648245394	1.09132143518833	572.690709260409	-6.37610869588951	6.6512448841396	0.433534334184056	-0.431837033668882	0.00181624934628233	-0.00451158543030494
0.12	-1.79053153424194	1.2491504194932	572.014617124246	-6.55556334481964	6.95809257956615	0.419531796659263	-0.413894984674638	0.00149139358174433	-0.00396937476807518
0.13	-2.39696429308617	1.44019143912389	571.515550370213	-6.75706510577507	7.29979107399066	0.407698795107212	-0.397361079758045	0.00113141438525632	-0.0033694782835304
0.14	-3.00488557490905	1.64184548426588	571.24774499966	-6.95967903411542	7.6369266035546	0.401566738744608	-0.386612191315756	0.00077405296276134	-0.00278222319858062
0.15	-3.51316723523451	1.8296460964346	571.246906684312	-7.14234165418489	7.93060795954658	0.404840084393583	-0.386240891160644	0.000456969713989341	-0.00227671562734605
0.16	-3.84111819549165	1.98241930735289	571.524431665775	-7.28739820666993	8.15131205371103	0.420585551999146	-0.400021778068388	0.00021139893778499	-0.00190514734403918
0.17	-3.94774065473447	2.08641076331616	572.05929421971	-7.38320631293167	8.28471439599568	0.450323637933717	-0.429822166714414	5.73742084537532e-05	-0.0016923250102312
0.18	-3.84018233303086	2.13740949065969	572.791331408212	-7.42560309930947	8.33316138841638	0.493296900066614	-0.474784390854802	9.75318890983345e-07	-0.00163287884093433
0.19	-3.56930557197159	2.14053107263703	573.620962706629	-7.4182520287139	8.31286461557571	0.546176920857776	-0.531066253084179	3.36901673041456e-05	-0.00169614087983555
0.2	-3.2142458772884	2.10799196176231	574.419323354531	-7.3719825864344	8.24817550300262	0.603364785881886	-0.592282437159844	0.000133786133914349	-0.00183641230984216
0.21	-2.86106995490123	2.05569993972229	575.04948490479	-7.30325084498618	8.16500800232059	0.657871883861581	-0.650589065737663	0.000269479915267379	-0.0020050112214009
0.22	-2.58208887411405	1.99967858275234	575.395044189998	-7.23184988102296	8.0854204271455	0.702594908134949	-0.698163472543097	0.000403591205691889	-0.00216048080868597
0.23	-2.42161285240905	1.95322117519679	575.388645658741	-7.17804130214429	8.0246355699847	0.731679474775691	-0.728715752083135	0.000499207627155274	-0.00227452780279463
0.24	-2.39132388846364	1.92530834163155	575.0316094958	-7.15937903534547	7.99069956157454	0.741640919004724	-0.73866569385	0.000525683980364122	-0.00233311627698168
0.25	-2.47500463384175	1.92035452119072	574.397599385267	-7.18762709293408	7.98598658624615	0.731986083445111	-0.727726573828842	0.000464112870207867	-0.0023339264365228
0.26	-2.63936072861759	1.93891970223943	573.617793918844	-7.26627839789878	8.00921674934022	0.70522779094763	-0.698815050428266	0.000311324000397128	-0.00228244749916573
0.27	-2.84614925873803	1.97876761844064	572.850807038748	-7.389200564376	8.05673715001501	0.666350045093554	-0.657389354484545	8.15684700734565e-05	-0.00218897502473586
0.28	-3.06121276708737	2.03565303792314	572.245542524218	-7.54082375334835	8.12243694512256	0.621908278740004	-0.610442913336842	-0.000194649793490709	-0.00206782214776791
0.29	-3.25800623884126	2.10347867218755	571.907425111684	-7.69803923970404	8.19653236374706	0.578996320613212	-0.565411398976823	-0.000474651576624074	-0.00193859833159132
0.3	-3.41589216034958	2.17387822303818	571.877196561847	-7.83363535453575	8.26418807443688	0.54427683505866	-0.529192934416716	-0.00071005650281375	-0.00182810007403517
0.31	-3.51575363886589	2.23568357179797	572.1272263386	-7.92074198137503	8.30522422957264	0.523186504291373	-0.507375509350744	-0.000854617671284363	-0.00177075480895855
0.32	-3.53645883185871	2.27493910031662	572.574715479029	-7.93748754078389	8.29586850899497	0.51934096522434	-0.503669835016237	-0.000872042214830948	-0.00180592266756713
0.33	-3.45508306229325	2.27602434524741	573.106327018279	-7.87097958888238	8.21275560984428	0.534120072773039	-0.51950490447857	-0.000742373016497933	-0.0019715580871999
0.34	-3.25188914199014	2.224055395754	573.606256734399	-7.7198377924923	8.03844377146059	0.566425740182373	-0.553768791062401	-0.000465770457443004	-0.0022952979831623
0.35	-2.91869827933453	2.10820084564206	573.980102911857	-7.49480531533613	7.76696887803081	0.612652354505489	-0.602742156398786	-6.30434726447415e-05	-0.00278536158368126
0.36	-2.46742148768913	1.92508258596284	574.169505763091	-7.21735480018764	7.40768268549081	0.666951149848159	-0.660326789334944	0.000427101632895055	-0.00342419536298849
0.37	-1.93491391527631	1.68122502252115	574.156105422846	-6.91657977248525	6.98593958100894	0.721863827721336	-0.718669663904535	0.000953556854353166	-0.00416733660503388
0.38	-1.38122005973942	1.39365682520035	573.956561901485	-6.62493284556414	6.54001123965718	0.769330294572698	-0.769205815606847	0.00146011773001808	-0.00494863022823488
0.39	-0.880379939048305	1.08821429675338	573.612305596601	-6.37349909162379	6.11465547154082	0.801958562621651	-0.80401106346678	0.00189348562396208	-0.00569115454048619
0.4	-0.505503209455666	0.795698135224057	573.178092045982	-6.187490611803	5.75270860897101	0.814327547919805	-0.817219834337751	0.00221086558310557	-0.0063215727604356
0.41	-0.311875167194771	0.546609570350691	572.712567416492	-6.08256435408602	5.48662229403041	0.804029025459004	-0.806184360245748	0.00238618161690962	-0.00678463912958943
0.42	-0.322711444029627	0.365579287871599	572.272415639507	-6.06244737526543	5.33188002683162	0.772179435256766	-0.772071069155955	0.00241409682234162	-0.00705452100124665
0.43	-0.521556051596202	0.266714175909851	571.909836033873	-6.11822232013569	5.28373938257181	0.723247106730868	-0.719711804746072	0.00231121314633997	-0.00714041020115641
0.44	-0.853482133868002	0.250910081860708	571.671662083572	-6.22946773055211	5.31793376662004	0.664211024406332	-0.656714622167632	0.00211407111128381	-0.00708528467551139
0.45	-1.23486978491306	0.305761783737506	571.597853324593	-6.36723530855916	5.39508297341277	0.603237189910574	-0.592029212411757	0.00187393117202472	-0.00695821598839741
0.46	-1.56938603499554	0.408134768401272	571.717614940342	-6.4985687733988	5.46783064909066	0.548173767030489	-0.534294284746199	0.0016488171452429	-0.00684190560247266
0.47	-1.76648283437234	0.528866954985922	572.042880731289	-6.59195628561237	5.48928407690049	0.505195199859357	-0.490331719839242	0.00149388074424506	-0.00681793054047952
0.48	-1.75848781946422	0.638577467638648	572.560769755819	-6.62283253023985	5.42120421337347	0.477868281468662	-0.464093146557602	0.00145166550488174	-0.00695242807780394
0.49	-1.51303248276585	0.71329886870131	573.228079471031	-6.57810009364337	5.24053082587707	0.46679528497474	-0.456236555163262	0.00154412968183759	-0.00728472496794635
0.5	-1.03875610115976	0.73869630387382	573.971182280666	-6.45870133413493	4.94315414599267	0.469848569957806	-0.464356095005059	0.0017681807840344	-0.00782084160594093
0.51	-0.383546382793169	0.711988847958599	574.693558536755	-6.27957255653675	4.54430332351118	0.482884556308744	-0.483748985047632	0.00209592235225819	-0.00853297657967905
0.52	0.374211830910146	0.641253596283385	575.290939879617	-6.06681578799634	4.07547856699843	0.500740311972453	-0.508509909313337	0.00247988882964312	-0.0093650729823182
0.53	1.13987314045701	0.542418116069861	575.671449220531	-5.85252839346679	3.578466973144	0.518287224811567	-0.532709623853894	0.002862441480741	-0.0102434716566815
0.54	1.81987094352716	0.434766676936396	575.776145542189	-5.66829370524867	3.09756722827543	0.531341686383484	-0.551437839761519	0.0031874854916486	-0.0110906280660769
0.55	2.33910336147411	0.336076429246648	575.594701856133	-5.53870848219321	2.67156989127161	0.537296092387762	-0.561553192626707	0.00341201492313914	-0.01183914941452
0.56	2.65500718954354	0.25851143303663	575.171762067529	-5.47639246412191	2.32714992363948	0.535409533300674	-0.562059953579439	0.00351489471193489	-0.0124432486525111
0.57	2.76527023935018	0.206160786314353	574.60155206214	-5.47964718333079	2.0750385067113	0.526762535830527	-0.554099424494129	0.00350081548774528	-0.0128852525167753
0.58	2.70720980347753	0.174690067008989	574.010987963994	-5.53334849726389	1.90968713131867	0.513922071552266	-0.540592911332549	0.00339841981981559	-0.0131759670562044
0.59	2.54860708665387	0.153082325947451	573.534200578594	-5.61289873919023	1.81228857240065	0.500385171550033	-0.525606222157907	0.00325296211676529	-0.013349191702187
0.6	2.37184979195994	0.12697575749192	573.283537800727	-5.69031852672051	1.75622823226877	0.489884810148265	-0.513533741169089	0.00311519320805753	-0.0134520433665346
0.61	2.25500438891211	0.0827531863569943	573.323294424473	-5.74102497629086	1.71354245401348	0.485660507119033	-0.508229921715172	0.00302910301123449	-0.0135335986566036
0.62	2.25432768114934	0.0113846852694783	573.652347099312	-5.74967404381752	1.66088779961168	0.489815871007261	-0.512241188840279	0.00302144465236598	-0.0136344673595568
0.63	2.39239058551425	-0.0888815416451781	574.200400359168	-5.71369308878215	1.58385392818853	0.502890612645215	-0.526293925606725	0.00309550760163302	-0.0137793212579809
0.64	2.65448181400935	-0.211555995434712	574.839803275701	-5.64372866604987	1.47902491218552	0.52374749655017	-0.54915681976909	0.00323052349355868	-0.0139733971276033
0.65	2.99373956728066	-0.342778003488777	575.411356998065	-5.56101515056194	1.35378968743811	0.549809489374358	-0.577915561767644	0.00338667553705918	-0.0142029537141138
0.66	3.34321752151349	-0.46366828778393	575.759018275031	-5.4924137844429	1.22433316232513	0.57759383153602	-0.608594118527851	0.00351433109665122	-0.0144389148495647
0.67	3.63150425968237	-0.553526379292166	575.765877977686	-5.46438009151685	1.11242101265771	0.603409223158017	-0.636965370100132	0.00356518727975286	-0.0146426175689614
0.68	3.79800162644195	-0.593197096248102	575.38305552161	-5.49727123710824	1.0415635986603	0.624042645751267	-0.659350438039249	0.00350273161317627	-0.0147726323972459
0.69	3.80455380572513	-0.568098667612959	574.644522422374	-5.60119617789631	1.03303122946784	0.637280542701832	-0.673227790614549	0.00330979514507512	-0.0147918173943287
0.7	3.6414661508414	-0.470639328794724	573.664043662694	-5.7741373167884	1.10212129298952	0.642176384760612	-0.677549293155672	0.00299184385695306	-0.0146738884425621
0.71	3.32752589949299	-0.30189371596309	572.614555348811	-6.00249369746233	1.2551035082403	0.639061976657366	-0.672756338938492	0.00257572653789184	-0.0144087415052441
0.72	2.90493408767563	-0.0723919624618001	571.694283088175	-6.26367912609094	1.48734764140698	0.629365242660255	-0.660563866229257	0.00210456799031999	-0.0140056302945608
0.73	2.4307933373148	0.198246801498685	571.086764512092	-6.53007252970795	1.78315286498595	0.615317367843067	-0.643606178263842	0.00163014281252161	-0.0134932885890504
0.74	1.96696072945954	0.483166786707285	570.923086420231	-6.77350266150672	2.11763597909731	0.599607825638344	-0.625016407368031	0.0012043035460243	-0.0129163878087833
0.75	1.56986649978991	0.751784767838536	571.253995640958	-6.96951965382121	2.46065930211852	0.585003174448704	-0.607968224024889	0.0008709216262065	-0.0123283994418844
0.76	1.28157670344788	0.974699934009791	572.037419610867	-7.10088151346122	2.782261660086	0.573920913532992	-0.595181695219528	0.000659469373818555	-0.0117818542367465
0.77	1.12312063053146	1.12917682023996	573.143888099268	-7.15988149068197	3.05856075266846	0.567967402345849	-0.588410485836303	0.000580975617880064	-0.011317864071864
0.78	1.09093857122673	1.20391184784892	574.378975611685	-7.14931162544111	3.27680967309661	0.567504495116455	-0.587981109515069	0.000626724224410236	-0.0109572654803148
0.79	1.15712411731333	1.2017013506441	575.518729613157	-7.08199264070647	3.43834887466739	0.571369978093131	-0.592513444607115	0.000769756931639609	-0.0106956193964985
0.8	1.2737813212067	1.13903438672515	576.351595197787	-6.97892609383002	3.55862251088721	0.576897653641207	-0.598970177310518	0.000968959354260002	-0.0105035186977692
0.81	1.3811993065218	1.04245585996127	576.71901055864	-6.86626892564777	3.6641253723618	0.580333967672752	-0.603130507984005	0.00117521703199064	-0.0103323943543422
0.82	1.41872362750799	0.942513168342728	576.546927914163	-6.77149614929025	3.78691770269204	0.577633287907924	-0.600463993434818	0.00133883134513524	-0.01012462440853
0.83	1.33639754441765	0.866860913340401	575.862079197062	-6.71927394916222	3.95795938708898	0.565473012559731	-0.587234179627688	0.00141713855702574	-0.0098256502509963
0.84	1.10497298553707	0.834367601947421	574.78960152245	-6.72766278826143	4.20078410172152	0.542221379035317	-0.561549097241243	0.00138116088536033	-0.00939532823715561
0.85	0.722021189208818	0.851743950495887	573.532107996896	-6.80526459431546	4.52687992627322	0.508565930297927	-0.524049561593129	0.00122020035980985	-0.00881603201056819
0.86	0.212687557763979	0.913414846991307	572.33372465173	-6.94980483565258	4.93363004456093	0.467588009275619	-0.47800688012708	0.000943575753546644	-0.00809595955433678
0.87	-0.375054574052023	1.00437563220423	571.435363460122	-7.14841957636384	5.40498095077307	0.424226040494539	-0.428766489475372	0.000579152140296357	-0.00726736080934326
0.88	-0.979408463456777	1.10494858001121	571.029136510994	-7.37964435422355	5.91438075545547	0.38425293426326	-0.382666327547684	0.000168834724789235	-0.00638056761709671
0.89	-1.53579519027549	1.19594834547251	571.220165878314	-7.61682679447605	6.42915566673699	0.353036141033313	-0.345710508601728	-0.000238300297846772	-0.00549543326306506
0.9	-1.98748330614069	1.26286704172147	572.003109622731	-7.83244987984469	6.91543575166758	0.334404474411012	-0.322338880634989	-0.00059416149981395	-0.00467193748614597
0.91	-2.29391546514359	1.29820437461851	573.258574357394	-8.00268627027293	7.34292724009873	0.329900135739512	-0.314586500368067	-0.000859755742030899	-0.00396139456538797
0.92	-2.4358711820987	1.30176673347777	574.771329201772	-8.11142727638534	7.68908888092943	0.338571075288043	-0.321799108138002	-0.00101186820569577	-0.00339919835816666
0.93	-2.4175965407061	1.27937750150608	576.268138141485	-8.15306376287405	7.94243370499768	0.357306011164406	-0.340912805122742	-0.00104707682357752	-0.00299964700083333
0.94	-2.26652166320004	1.24078102468698	577.468680991003	-8.13345854996058	8.10466668372538	0.381583137318466	-0.367172706801476	-0.000982265251194714	-0.00275326826047462
0.95	-2.03100881737743	1.19751669599815	578.139439126651	-8.0688428579045	8.19124276400363	0.406428195061296	-0.395091855568992	-0.000851407237003499	-0.00262714896484412
0.96	-1.7759661265012	1.1612578720516	578.13880802387	-7.98276122723101	8.2298570379874	0.427366663225923	-0.419444306936693	-0.000699127187682724	-0.00256881134685089
0.97	-1.57565919939358	1.14271643601406	577.44304275266	-7.90160591819743	8.25654246998047	0.441194311261061	-0.436126190628091	-0.000572241297901344	-0.00251389314783984
0.98	-1.50320096354846	1.15088977679553	576.147097984876	-7.8496176845761	8.30953390407302	0.446455446414628	-0.442776287022809	-0.000510963255390906	-0.00239714126602852
0.99	-1.61722345035268	1.192301655939	574.440969934526	-7.84438057803058	8.42176816690784	0.443586021678465	-0.439099394301739	-0.00054156233140723	-0.00216515403260537
1	-1.94784416240358	1.26999589778049	572.568750034308	-7.89374162164296	8.61357123067899	0.434735966185323	-0.426872633912119	-0.000671931756408561	-0.00178829780117512
1.01	-2.48549698986944	1.38231934757458	570.781926000721	-7.99475275267417	8.88741173699945	0.423327845016736	-0.409642149728932	-0.000890838136582417	-0.00126877766137379
1.02	-3.17664408062322	1.52184947747733	569.29887850166	-8.13475198665452	9.22633943859699	0.413438251331621	-0.392146163928682	-0.0011707738195661	-0.000642326211775512
1.03	-3.92927584362646	1.67503621933054	568.278888312785	-8.29421431788362	9.5968589703278	0.409105045627198	-0.379536142596587	-0.00147357163060369	2.75847677871921e-05
1.04	-4.62854342755237	1.82312408665144	567.81284383982	-8.45065170898517	9.95575538549389	0.413666745192112	-0.376506833037725	-0.00175747316662778	0.000662089695771695
1.05	-5.15964793703687	1.94465971058968	567.926848279417	-8.58271316995634	10.2592112013045	0.429229010002585	-0.386475562710215	-0.00198425708000538	0.00118299437310504
1.06	-5.4324411976404	2.01942384630674	568.591591243054	-8.67373281423085	10.471869848338	0.456328698065773	-0.410956927239284	-0.00212527697891596	0.00152860094413726
1.07	-5.40118962088403	2.03309087174923	569.730904199425	-8.714220467272	10.5735669546354	0.493833016245326	-0.449251974535227	-0.00216567033221393	0.00166542941312808
1.08	-5.07413525200274	1.98149445152039	571.226716831677	-8.7030739801996	10.5622376774907	0.539076263949546	-0.498513005745718	-0.00210640257109007	0.00159325465117571
1.09	-4.51051114306226	1.87323727878141	572.922477503188	-8.64751963778461	10.4527050083412	0.588205327656006	-0.554169253380906	-0.00196409271429787	0.0013428613887258
1.1	-3.80642709293099	1.72962563724504	574.630343408367	-8.56191592229542	10.2722053436402	0.636680959420338	-0.610625435471014	-0.00176872084251634	0.000967875727588718
1.11	-3.07412779404178	1.58151610099617	576.147287419311	-8.4656051371401	10.0542092804331	0.679866177123856	-0.662095249852666	-0.00155941817135574	0.000533294206720158
1.12	-2.42043264147093	1.46348082545854	577.281646439491	-8.3800218014825	9.83216164024409	0.713625857912524	-0.703418589020052	-0.00137868165287458	0.000103568403277188
1.13	-1.92936863223876	1.40648550162033	577.886237038763	-8.32532035125666	9.63429107371626	0.734862642110544	-0.730735412190874	-0.00126558733792059	-0.000267570583074417
1.14	-1.6516773136694	1.43077407238273	577.889589809369	-8.31688943189715	9.47993803142113	0.741923518976383	-0.741938677972496	-0.0012488729382707	-0.000544476186048914
1.15	-1.60118583586607	1.54069277064637	577.315367897194	-8.36225184586594	9.37728663423527	0.734828065106339	-0.736883383756262	-0.00134102218647292	-0.000714038474099177
1.16	-1.75618269989224	1.72273868268549	576.282515226176	-8.4589446283602	9.32220326510048	0.715290967741151	-0.717368968036676	-0.00153458035425946	-0.000787546950070994
1.17	-2.0635957934596	1.94732085974686	574.984258724898	-8.59395401344536	9.29809019166853	0.686534839922174	-0.686927641062128	-0.00180174724086091	-0.000800115605835428
