Time [s]	GRFml [N]	GRFap [N]	GRFv [N]	Mml [N.m]	Map [N.m]	Mv [N.m]	Mfree [N.m]	COPml [m]	COPap [m]
0.01	14.2278699661081	2.49783482031908	579.392479305287	-37.5720717010631	-6.08580857339659	-0.767813206471021	0.180787073370881	-0.000826059824629815	-0.0100137896892954
0.02	13.9414528622724	2.74376650340353	579.829385689929	-38.0537262962915	-6.02829307332957	-0.700277912606413	0.243079529524249	-0.000709709660986612	-0.00922051772638276
0.03	13.6603055953089	2.99303185641744	580.300727012812	-38.5373109523986	-5.97136401450324	-0.635257985344141	0.302682375187074	-0.000594797716228725	-0.00843101345037481
0.04	13.389881048723	3.24316848738723	580.812854777107	-39.0166640026656	-5.91603938487921	-0.574327669925916	0.358231558885612	-0.000483083135122863	-0.00765665261884503
0.05	13.1353277830656	3.49117139642002	581.369053890912	-39.4851109229846	-5.86332280475046	-0.518852208365363	0.408572860617069	-0.000376291783591163	-0.00690913694585461
0.06	12.9012950574129	3.7334564348955	581.968703456602	-39.9355126139279	-5.81417504242633	-0.469912468168617	0.452822044595056	-0.000276085210052944	-0.00620034819592419
0.07	12.691761767319	3.96587040037459	582.606693625064	-40.3603530767702	-5.76948717254966	-0.428246643239792	0.490408102805051	-0.000184032295479402	-0.00554217879847979
0.08	12.5098970940602	4.18375381213237	583.273158004232	-40.7518705889263	-5.73005630231844	-0.394212840445894	0.521096907674825	-0.000101582951925994	-0.00494633173314904
0.09	12.357958603947	4.38205746953454	583.953556204603	-41.1022321364423	-5.69656468624858	-0.367774783656828	0.544994105719537	-3.00432504660685e-05	-0.00442408648706334
0.1	12.2372312722092	4.55550890763908	584.629113701833	-41.4037464944786	-5.66956289269225	-0.348511187894706	0.562527626154279	2.94484590739521e-05	-0.00398603289076239
0.11	12.1480086012858	4.69882030946375	585.277598570393	-41.6491073984799	-5.64945748319979	-0.335647717993899	0.574411616294752	7.59445767081687e-05	-0.00364177990772087
0.12	12.0896148098626	4.80692569359383	585.874388934673	-41.8316550576238	-5.63650343584115	-0.328108968975141	0.581594835372842	0.000108710211051227	-0.00339965127329279
0.13	12.0604651128793	4.87523254117064	586.39376309031	-41.9456420622041	-5.63080130774808	-0.32458668524512	0.585197454111633	0.000127243489237735	-0.0032663836118591
0.14	12.0581594885534	4.8998716152828	586.810327711836	-41.9864886567921	-5.63229891354429	-0.323619541159648	0.586440766718148	0.000131293328334316	-0.00324684482675208
0.15	12.0796040963234	4.87792860356139	587.100489484745	-41.9510124204054	-5.64079711565665	-0.323679275602861	0.586574508889961	0.000120873558355631	-0.00334379090392761
0.16	12.1211536952633	4.80764232313174	587.243872480498	-41.8376185524869	-5.65595919491798	-0.323257818351631	0.586806308874626	9.62721813159827e-05	-0.003557677798266
0.17	12.1787680101765	4.68855641890732	587.224587699927	-41.6464390720975	-5.67732320309252	-0.320950249724103	0.58823732691963	5.80545675273672e-05	-0.00388654201563353
0.18	12.2481749697864	4.52161454439614	587.032271988361	-41.3794121009016	-5.70431669244637	-0.315528957880253	0.591807431102271	7.05952412264482e-06	-0.00432595927658422
0.19	12.3250340454677	4.30919267315727	586.662830038684	-41.0402957814502	-5.73627326290254	-0.306005142342778	0.598252395374903	-5.56125931236023e-05	-0.00486908576003223
0.2	12.4050934841007	4.05506615761805	586.118834109076	-40.6346150233461	-5.77245045000716	-0.291674787202311	0.608074671199741	-0.000128620234892737	-0.00550678140584014
0.21	12.4843359837652	3.76431313596333	585.409559757649	-40.169542912128	-5.81204857818258	-0.27214731546862	0.621528353306992	-0.00021040961087704	-0.00622781007960661
0.22	12.55910823669	3.44315961106203	584.550660536598	-39.6537220165938	-5.854230303483	-0.247356258417069	0.638618096327529	-0.000299251951592975	-0.00701910744456033
0.23	12.6262306983781	3.09877474793812	583.563508364279	-39.097033779297	-5.89814064957883	-0.21755235614543	0.659110989945131	-0.000393288355146711	-0.00786610439072212
0.24	12.6830848852857	2.73902746877348	582.474247484557	-38.5103265059787	-5.9429273850269	-0.183280482445276	0.682559796651483	-0.000490581062859078	-0.00875309195585247
0.25	12.7276764201145	2.3722171380449	581.312627045857	-37.9051140697925	-5.98776158970524	-0.145342605627938	0.70833551324983	-0.000589169602194484	-0.00966361283343416
0.26	12.7586729119736	2.00679196196556	580.110689250108	-37.2932582601041	-6.03185821100737	-0.104749619246885	0.73566693646367	-0.000687129878556023	-0.0105808647019581
0.27	12.7754165686706	1.65106867859539	578.901396022393	-36.6866477363422	-6.07449632042304	-0.0626652810015818	0.76368478523027	-0.000782634011088253	-0.0114881015611657
0.28	12.7779121888736	1.31296625197183	577.717276995242	-36.0968858521102	-6.11503865941656	-0.0203456788726246	0.791467940788497	-0.000874008511995636	-0.0123690208189169
0.29	12.7667918756533	0.999764722638734	576.589175527595	-35.5349982976397	-6.15294992628342	0.0209223899201079	0.818089489161743	-0.000959788321320978	-0.0132081258171329
0.3	12.7432584527128	0.717898266536531	575.545158178776	-35.0111697099607	-6.18781312269852	0.0598809669188471	0.842660465676482	-0.00103876424235275	-0.0139910556044913
0.31	12.7090101499004	0.47278905981602	574.609637610721	-34.5345162835283	-6.21934317118284	0.0953556319059787	0.864369484349543	-0.00111002148372512	-0.0147048758693496
0.32	12.6661496496146	0.268725935303469	573.802740667339	-34.1128991525767	-6.24739695311179	0.126303082811615	0.882516764486553	-0.00117296730300854	-0.0153383268870695
0.33	12.6170810391311	0.108789238605915	573.139933923482	-33.7527810788021	-6.27197891853328	0.151849905733047	0.896541423370435	-0.00122734615619748	-0.0158820260030085
0.34	12.5643985797853	-0.00517908030007486	572.631899898925	-33.4591269154211	-6.29324149630105	0.171321457942221	0.906041271193255	-0.00127324127386936	-0.0163286235031077
0.35	12.5107714638363	-0.0725631317798603	572.284639901206	-33.2353465544336	-6.31147969158012	0.184260391236049	0.91078470909705	-0.00131106218701381	-0.0166729116997637
0.36	12.4588288651432	-0.0939230849853652	572.09976539571	-33.0832776852007	-6.32711949572094	0.190434902828644	0.910714682645962	-0.00134151838660509	-0.0169118877030885
0.37	12.4110495844157	-0.0709131696421637	572.074929894862	-33.0032047456948	-6.34070004090328	0.18983728751714	0.905944972542542	-0.00136557998882121	-0.0170447707114233
0.38	12.3696604324908	-0.00617394383564895	572.204348222888	-32.9939099377924	-6.35284979131705	0.182673757882978	0.896749404479319	-0.00138442695656187	-0.0170729748193349
0.39	12.3365471810777	0.0967947798622697	572.479349838971	-33.0527520704434	-6.36425745004576	0.16934678758425	0.883544823839066	-0.00139938905963238	-0.0170000384002267
0.4	12.3131814426833	0.233774221988184	572.888917455481	-33.1757692217589	-6.37563864771131	0.150431413806457	0.866868901817726	-0.00141187930245322	-0.0168315111724439
0.41	12.300566231151	0.399974575575033	573.420170840727	-33.3578016802487	-6.38769983448944	0.126647013907951	0.847354010714662	-0.00142332397305605	-0.0165748001947181
0.42	12.2992022207355	0.59018579874245	574.058767487854	-33.5926322287415	-6.40110109078796	0.0988260598519375	0.825698521070603	-0.00143509273808897	-0.0162389763359951
0.43	12.3090758916545	0.798927317769345	574.789205561263	-33.8731414597992	-6.41641977616479	0.0678812684601899	0.802636926239805	-0.00144843229959432	-0.0158345432799126
0.44	12.3296698565524	1.02059355099544	575.59502886167	-34.1914763528863	-6.43411702891838	0.0347724249514223	0.778910186675813	-0.00146440702325133	-0.015373171880237
0.45	12.3599947427558	1.24959293610406	576.458947122627	-34.5392307113041	-6.45450909577765	0.000473981650683353	0.755237605142749	-0.00148384963859411	-0.0148674036732834
0.46	12.3986410995175	1.48047877897983	577.362896501395	-34.9076361848133	-6.477745306884	-0.0340556576451003	0.732291397343429	-0.00150732460672883	-0.014330328537641
0.47	12.4438489478306	1.70807071022337	578.28807359214	-35.287762455105	-6.50379422019699	-0.0679024475260477	0.710674916660299	-0.00153510607233024	-0.0137752428024233
0.48	12.4935918311706	1.92756582826562	579.214980894258	-35.6707247312114	-6.53243905561247	-0.100222060848917	0.690905238308226	-0.00156717150131429	-0.0132152954516631
0.49	12.5456715930736	2.13463873957425	580.123521990229	-36.0478960184302	-6.56328304524311	-0.130261906623988	0.673400523428773	-0.00160321120449853	-0.0126631313480407
0.5	12.597819630723	2.32552970676944	580.99318068955	-36.4111207453012	-6.59576477241323	-0.157379537464065	0.658472287680124	-0.00164265302244249	-0.012130541491566
0.51	12.6478000750069	2.49712002541858	581.803310430723	-36.7529253418577	-6.62918299294679	-0.181057272387462	0.646322414267399	-0.00168470056492274	-0.0116281311295527
0.52	12.6935102420865	2.64699361563183	582.533549012668	-37.0667203604668	-6.6627298658394	-0.200912928600158	0.637044500929264	-0.00172838262685825	-0.0111650169476087
0.53	12.7330737974912	2.77348368064592	583.164360257044	-37.3469878298438	-6.69553100388536	-0.216706603056636	0.630628934625934	-0.00177261079978605	-0.0107485645226994
0.54	12.7649223722697	2.87570319185339	583.677689698601	-37.5894468458247	-6.72669032301255	-0.228343478689123	0.626970962036671	-0.00181624190833488	-0.0103841766607688
0.55	12.787861865937	2.95355794088445	584.057707177745	-37.7911900330079	-6.75533735143928	-0.235872659559688	0.62588097660496	-0.00185814174872712	-0.0100751421555574
0.56	12.8011203497106	3.00774097770364	584.291596569666	-37.9507835453801	-6.78067447836411	-0.239482071958464	0.6270962729662	-0.00189724669261255	-0.00982255290651952
0.57	12.8043753247481	3.03970744297501	584.370343000413	-38.0683237717271	-6.80202158972461	-0.239489511649248	0.630293616944738	-0.00193262002355158	-0.00962529526721373
0.58	12.7977590640867	3.05162910804598	584.289461714479	-38.1454449012987	-6.81885565858641	-0.236329976207542	0.635102125164832	-0.00196350035523468	-0.00948011903424083
0.59	12.7818418351162	3.04632835407799	584.049610901814	-38.1852729794047	-6.83084312269809	-0.230539498491346	0.641116117646761	-0.00198934008683828	-0.00938178472727984
0.6	12.7575939145305	3.02719184417617	583.657033532752	-38.1923239970062	-6.83786327480606	-0.222735792832848	0.64790777164847	-0.00200983252261028	-0.0093232868676678
0.61	12.7263284153739	2.99806475477818	583.123780472968	-38.1723458333194	-6.84002138729741	-0.213596136845287	0.655039538821553	-0.00202492696223204	-0.00929614796269491
0.62	12.6896279865501	2.96312711643532	582.467678375497	-38.1321063954498	-6.83765086006637	-0.203833033396822	0.662076369310885	-0.00203483170627067	-0.00929077497674674
0.63	12.6492593574983	2.92675454630041	581.712020269123	-38.0791329395368	-6.83130428352955	-0.194168321472419	0.668597803619028	-0.00204000548069785	-0.00929686734811089
0.64	12.60708042483	2.8933664071363	580.884973328256	-38.0214101637354	-6.82173391020801	-0.185306521545977	0.674209945058377	-0.00204113824516149	-0.00930386321268283
0.65	12.5649450596051	2.86726516742299	580.018715805687	-37.9670470788851	-6.80986259194141	-0.177908299726929	0.678557223339203	-0.00203912270621583	-0.00930140852975854
0.66	12.5246110100558	2.85247142632311	579.148332265638	-37.9239247368127	-6.79674673257125	-0.172565004088195	0.681333724358879	-0.0020350181170576	-0.00927983235873769
0.67	12.4876561563122	2.85255966432893	578.310511844766	-37.8993384923874	-6.7835332001372	-0.169775255878942	0.68229372036416	-0.00203000812639463	-0.0092306106756041
0.68	12.4554079313592	2.87050024220427	577.54210720812	-37.8996494808726	-6.77141241756854	-0.169924559532567	0.681260918141931	-0.0020253545610166	-0.00914680088875185
0.69	12.4288899682726	2.90851345550812	576.878621291556	-37.9299603252068	-6.76156999394556	-0.173268823476187	0.678135877288547	-0.00202234910669247	-0.00902342963748534
0.7	12.4087890031026	2.96794152248262	576.352694247644	-37.9938297037985	-6.75513926576658	-0.17992255779048	0.672901054390513	-0.00202226489919209	-0.00885781753552047
0.71	12.3954438132994	3.04914421064786	575.992663968607	-38.0930393035415	-6.75315699402835	-0.189852338350205	0.665623009066548	-0.00202631004890031	-0.00864982623990485
0.72	12.3888565801845	3.15142337470851	575.82127019778	-38.2274248911438	-6.75652422101308	-0.2028759082897	0.656451458221462	-0.00203558508407617	-0.00840201554962813
0.73	12.3887256215381	3.27298098160666	575.854564912015	-38.3947808336549	-6.76597394990413	-0.21866703854957	0.645615067349294	-0.00205104618598151	-0.00811970111689231
0.74	12.39449704485	3.41091424879486	576.101080970552	-38.5908444961535	-6.78204689522448	-0.236766004946485	0.633414095022187	-0.00207347587831192	-0.00781090671694895
0.75	12.4054316205741	3.56125034486947	576.561297786526	-38.8093636791664	-6.80507609023924	-0.256595276478738	0.620210227223476	-0.00210346250427618	-0.0074862087759463
0.76	12.4206821568048	3.71902173714823	577.227427912583	-39.0422467889167	-6.83518065763032	-0.277479765540221	0.606414121638347	-0.00214138937249515	-0.00715847488055715
0.77	12.4393759457636	3.87838176997441	578.083532912436	-39.2797919292199	-6.87226857985221	-0.298670781298362	0.592471304847796	-0.00218743389312976	-0.00684250214113666
0.78	12.4606965007786	4.03275848115492	579.105961652287	-39.5109877350004	-6.91604787099891	-0.31937266611537	0.578847114981431	-0.00224157639543786	-0.00655456537992112
0.79	12.4839588374584	4.17504307900561	580.264090026255	-39.7238756955326	-6.96604517424001	-0.338770991355711	0.566011359280955	-0.00230361767221296	-0.00631188897804355
0.8	12.5086729749284	4.29780797917901	581.521328811672	-39.9059610846478	-7.02163050453337	-0.356061148644479	0.55442327342756	-0.00237320369964572	-0.00613205964514454
0.81	12.5345911159357	4.39354790892594	582.836356330043	-40.0446575442562	-7.08204663656837	-0.370476196305481	0.544517250377317	-0.00244985549612553	-0.00603240018782551
0.82	12.5617350572042	4.45493639357093	584.164525163917	-40.1277489449531	-7.14644150830059	-0.381312904335547	0.536689678632474	-0.0025330017615325	-0.00602932638822057
0.83	12.5904017114593	4.47508900627055	585.459387449729	-40.1438514272138	-7.21390197115573	-0.387955076686386	0.531287120024337	-0.00262201181102437	-0.00613771024110911
0.84	12.6211461017828	4.44782413877246	586.674281159487	-40.0828585269252	-7.28348726427189	-0.389893405248951	0.528595985022361	-0.00271622639206483	-0.0063702729665942
0.85	12.6547427189401	4.36791177709467	587.763920088253	-39.9363529926529	-7.35426071316898	-0.386741311825761	0.52883383806394	-0.0028149842356406	-0.00673703039980537
0.86	12.6921276108648	4.2313008666628	588.685932669849	-39.6979702590789	-7.4253183409906	-0.378246447420479	0.532142482272209	-0.00291764260920728	-0.00724481159873683
0.87	12.7343249014274	4.03531633522995	589.402298885456	-39.3637004726056	-7.4958133188311	-0.364297727338544	0.538583016169641	-0.00302359066515116	-0.00789686889591776
0.88	12.7823625233971	3.77881770044971	589.880640028797	-38.9321183688532	-7.56497545537618	-0.344927972149868	0.548133100375506	-0.00313225496501975	-0.00869259428099178
0.89	12.837182724382	3.46231239656133	590.095322585599	-38.4045330582281	-7.63212521963544	-0.320312387195421	0.560686692928836	-0.00324309715838434	-0.00962735310308446
0.9	12.8995533116943	3.08801846910337	590.028344653097	-37.785052755216	-7.69668208890196	-0.290763239007894	0.576056484578054	-0.00335560436358381	-0.0106924418081514
0.91	12.9699856146599	2.65987305104809	589.669980899939	-37.0805625567467	-7.75816730327255	-0.256721171650576	0.593979176194993	-0.00346927330157302	-0.0118751719705795
0.92	13.0486647600663	2.18348497928127	589.019169834984	-36.3006164056588	-7.8162013756165	-0.218743649584992	0.614123588606905	-0.00358358964847783	-0.0131590784319749
0.93	13.135397104813	1.66603195895355	588.083634949166	-35.457247247576	-7.87049694106647	-0.177491020249647	0.636101394105731	-0.00369800438073372	-0.0145242451041999
0.94	13.2295786015249	1.11610475127173	586.879738984607	-34.5647019990431	-7.92084772413872	-0.133710666450684	0.659480034735686	-0.00381190908001286	-0.0159477380901622
0.95	13.3301865617421	0.543502862015659	585.432078052814	-33.6391102064603	-7.96711454775125	-0.0882196757703213	0.683797179344995	-0.00392461224109794	-0.0174041323610146
0.96	13.4357958172368	-0.0410119409170329	583.772829453331	-32.6980971260936	-8.00920940214604	-0.0418864026014163	0.708575905384631	-0.00403531858721444	-0.0188661154085914
0.97	13.5446187620828	-0.625996331777612	581.940873710608	-31.7603533555266	-8.04707863076715	0.00438875082706058	0.733339703705535	-0.00414311325101014	-0.0203051491408239
0.98	13.654567286946	-1.19963108421745	579.980717411362	-30.8451740799258	-8.08068627462477	0.0496930452933815	0.757626415324418	-0.00424695243559152	-0.0216921698461
0.99	13.7633332872216	-1.75004145338432	577.941248738472	-29.9719814676997	-8.10999854918207	0.0931213362947461	0.781000323344779	-0.00434566184160275	-0.0229983053288807
1	13.8684833198762	-2.26562149979303	575.87436201095	-29.1598437838451	-8.13497031338669	0.133795951153928	0.803061829414031	-0.00443794374812012	-0.024195588293211
1.01	13.9675621637407	-2.73535144738233	573.833490916239	-28.4270044250674	-8.15553423649775	0.170886209499092	0.823454415699743	-0.00452239318362439	-0.0252576456779592
1.02	14.058199546588	-3.14909747995181	571.872092353329	-27.7904333693158	-8.1715931842118	0.203627241082949	0.841868892912539	-0.00459752313645305	-0.026160344862067
1.03	14.1382141588459	-3.49788411287204	570.042123827583	-27.2654125309688	-8.18301614219149	0.231337701566827	0.858045220023391	-0.00466179825135301	-0.0268823793786227
1.04	14.2057092753061	-3.7741303941456	568.392557138667	-26.8651652811193	-8.1896377842935	0.253435934815792	0.871772411507386	-0.00471367596116491	-0.0274057789114458
1.05	14.2591548298446	-3.97184263479377	566.967969726135	-26.6005389881906	-8.19126158659664	0.269454091028867	0.882887190907073	-0.00475165353328427	-0.0277163308002069
1.06	14.2974515943507	-4.08675807125872	565.807252582564	-26.4797479104173	-8.18766619813674	0.279049694647967	0.891272086156355	-0.00477431909422709	-0.027803902953431
1.07	14.319974148972	-4.11643573854598	564.942470255427	-26.5081821739822	-8.17861461503955	0.282014173280521	0.896853589406414	-0.00478040435848892	-0.0276626608728129
1.08	14.3265905339821	-4.06029279252105	564.397904309347	-26.6882869350602	-8.16386557438806	0.278277914272897	0.899600835461103	-0.00476883655585819	-0.0272911743485393
1.09	14.3176577752033	-3.91958647312147	564.189306892524	-27.0195141771658	-8.14318649294972	0.267911510373136	0.899525016169284	-0.00473878694782148	-0.026692412231176
1.1	14.2939938028146	-3.69734376260258	564.323385916165	-27.4983479542163	-8.11636722623548	0.251122987052259	0.896679481296957	-0.00468971336646462	-0.0258736264767109
1.11	14.2568275649465	-3.39824248997765	564.797537954943	-28.1184022640724	-8.08323391480833	0.228250964413097	0.89116022220123	-0.00462139440715936	-0.0248461293703864
1.12	14.207730302866	-3.02844910439289	565.599839406484	-28.870589131207	-8.04366221421982	0.199753885837119	0.883106234047478	-0.00453395325636325	-0.0236249704477303
1.13	14.1485319398889	-2.59541954276945	566.709300754319	-29.7433528928834	-7.99758926719945	0.166195631034117	0.8726991385185	-0.00442786962168138	-0.0222285221386969
1.14	14.0812272870205	-2.10767052466533	568.096382957592	-30.7229651248448	-7.94502386501041	0.128228009411438	0.860161442225858	-0.00430397882345419	-0.0206779855496343
1.15	14.0078772432197	-1.57452921099507	569.723768999777	-31.7938731197323	-7.88605435168357	0.0865707873599237	0.845752910462989	-0.00416345776530865	-0.0189968300403175
1.16	13.9305103415875	-1.00586946925832	571.547377406184	-32.9390933629732	-7.82085394256236	0.0419900282396646	0.8297647386161	-0.00400779817855034	-0.0172101823000786
1.17	13.8510298575027	-0.411843015029213	573.517598031737	-34.1406400670655	-7.74968325024316	-0.00472439302877792	0.81251147621723	-0.00383876818394697	-0.0153441824033928
