Time [s]	GRFml [N]	GRFap [N]	GRFv [N]	Mml [N.m]	Map [N.m]	Mv [N.m]	Mfree [N.m]	COPml [m]	COPap [m]
0.01	-1.51850547504574	0.854614065027481	641.215549283679	0.199108270975626	46.4239198772359	0.47491670140255	-0.537261015673914	0.000953293728604088	0.00384067732568061
0.02	-1.16641319611697	0.983444598363172	641.31792153423	0.210750714790192	46.198517013187	0.41508135048918	-0.48615958615585	0.000970788078741958	0.00347824040055755
0.03	-0.862808517123436	1.10741065747775	641.368600446237	0.23158494133792	45.9985179447118	0.360865283385423	-0.440416226462811	0.00100252294078595	0.00316102311974464
0.04	-0.6466139899209	1.22151987780495	641.340294750575	0.26931610357116	45.845554679293	0.317208649345743	-0.40468820599961	0.00106042808751372	0.00292566446836917
0.05	-0.541205745748053	1.32030913279968	641.245385779817	0.32542763114955	45.7563321093959	0.28763812858145	-0.38215557179629	0.00114675987505553	0.00279671996490327
0.06	-0.551079393283042	1.39835359511484	641.137021906741	0.394019813690001	45.7410989722932	0.273737600809139	-0.374020138090326	0.00125230420629463	0.00278415762522372
0.07	-0.662544497445931	1.45126077586717	641.094254175879	0.462770055560641	45.802659185084	0.274893930649421	-0.379321867928982	0.00135788140370086	0.00288347647936193
0.08	-0.848199771766832	1.47675366358769	641.19611809036	0.515699627964304	45.9360594781097	0.288427361243473	-0.39515397548069	0.00143865682855049	0.0030781168673617
0.09	-1.07388726755139	1.47544563617041	641.493334291316	0.536966986570683	46.1289911520007	0.310122181075593	-0.417262334915624	0.0014700392562591	0.00334325615532965
0.1	-1.30611432215981	1.45107719411904	641.986992237327	0.514683808366856	46.3628409415427	0.335045849254181	-0.440897773208153	0.00143360465216558	0.00364984125222545
0.11	-1.51788953731834	1.41018629924355	642.621219883541	0.443809065308527	46.6142896154635	0.35844638641533	-0.461705246999532	0.00132157968207469	0.00396791111116024
0.12	-1.69161113478577	1.36131416653946	643.292411242648	0.327483816397628	46.8573954764958	0.376499093279856	-0.476424974899007	0.00113890041438403	0.00426881459428474
0.13	-1.818822372765	1.31387955474447	643.872585503285	0.176619466684732	47.0661553499233	0.386746090151347	-0.483256736340094	0.000902561653818745	0.00452657534320489
0.14	-1.89782848481039	1.27683357211107	644.240405983114	0.00799967481877192	47.2175216720393	0.388201785326554	-0.481868523247737	0.000638665192092547	0.00471909122608866
0.15	-1.93085024725362	1.25720773833137	644.311401517589	-0.158533957128843	47.2947135135845	0.381221244065909	-0.473156173446185	0.000378052717121657	0.00482986620065534
0.16	-1.922279740489	1.25873418040936	644.059431926634	-0.303144469719743	47.2904085955203	0.367286127910002	-0.458923685126066	0.000151557218678766	0.00485053249373707
0.17	-1.87876844616056	1.28082595732656	643.524103044914	-0.408746054002164	47.2091421852123	0.348827666406333	-0.441626134556115	-1.42560249272172e-05	0.00478371909483671
0.18	-1.81071826972015	1.31827581141531	642.802749155663	-0.463091348658578	47.068114164835	0.329100446569717	-0.424215409752301	-0.000100330499973156	0.0046451890851954
0.19	-1.73382385975022	1.36196951733014	642.029565627894	-0.460083089115003	46.8957452885947	0.31200735255885	-0.410009945958433	-9.71621560382774e-05	0.00446393695881803
0.2	-1.66909097948311	1.40067329583605	641.347401886332	-0.400339431718113	46.7277672908825	0.301726910417476	-0.402443056946721	-5.68896114161443e-06	0.00427929363390811
0.21	-1.64036789799691	1.42359521311125	640.878956064406	-0.291082730751506	46.6012916517021	0.302052205397369	-0.404576948873946	0.000162870299833195	0.00413497099632754
0.22	-1.66960821831391	1.42307678182624	640.703574724403	-0.14539562470127	46.5479768270623	0.315501262340876	-0.418396721639448	0.000388165163111798	0.00407108497178232
0.23	-1.77127624759072	1.39660983241807	640.84399533272	0.0191337356260426	46.587853684966	0.342432190872338	-0.444061912864286	0.000642819807099571	0.00411608787236523
0.24	-1.94792188851177	1.3475067063891	641.264880910695	0.182317614034846	46.7253728132161	0.380498095341949	-0.479405315516823	0.000895403448634147	0.00428082498040527
0.25	-2.18866299162257	1.28397017518405	641.882550901791	0.323660532265603	46.9487436485034	0.424736455530804	-0.519958418448021	0.00111400453596722	0.00455643655882415
0.26	-2.47122349248709	1.21687098297898	642.583332053059	0.42474393669607	47.2327643526962	0.46839926841466	-0.559633366281398	0.00126994838688832	0.0049166954222235
0.27	-2.76678089061338	1.15701980780642	643.246599365898	0.471333019057561	47.5443655960723	0.504361077698975	-0.591954299562288	0.00134107827997376	0.00532400887004303
0.28	-3.04582264811819	1.11290300502814	643.767880763594	0.454865261035038	47.8493400903505	0.526705418743799	-0.611504984564495	0.00131406959334668	0.00573723096296042
0.29	-3.28297574269276	1.08963731861421	644.07741036436	0.373124906484384	48.1184637108957	0.531993729141875	-0.615145933264175	0.00118547422320836	0.0061190252678166
0.3	-3.45943619814369	1.0893594419124	644.150344350727	0.230113109762608	48.3315234261925	0.519815615985274	-0.602609721926063	0.000961513645258427	0.00644091361106935
0.31	-3.56284156993856	1.11262714416598	644.00656044809	0.0353012386734414	48.4785348600134	0.492475084269822	-0.57629393689747	0.000656914976917111	0.00668515029081029
0.32	-3.58561271547183	1.15995427212746	643.700376132968	-0.19747254768268	48.5583781316025	0.453983201011318	-0.540356677039639	0.000293195501290255	0.00684375505093188
0.33	-3.52339883716183	1.23254648469615	643.303135103207	-0.451258501414335	48.5758684987777	0.408775319835605	-0.499466322101324	-0.000103286778945	0.00691595694099734
0.34	-3.37503657323738	1.33168877008163	642.883664257417	-0.707334016827012	48.5386414764541	0.36064897600052	-0.457666078163899	-0.000503412514723078	0.00690561984376298
0.35	-3.1445063392912	1.45690192744208	642.492339374811	-0.946684324886293	48.4550682220271	0.312295247613418	-0.417740864771444	-0.000877602452267312	0.00681987069381718
0.36	-2.84416579353379	1.60364354389632	642.153490348321	-1.15171305788038	48.3338183006652	0.265523374890489	-0.381249503062431	-0.00119847687118269	0.00666932993959357
0.37	-2.49759476516304	1.76168498461931	641.868253578002	-1.30816831897345	48.1848971355362	0.221969490845471	-0.349101074056119	-0.00144384820053178	0.00646941758020519
0.38	-2.1401185245575	1.91517863868993	641.626451238037	-1.4070752912234	48.021304882755	0.183864961928276	-0.322328008830872	-0.00159971968035066	0.00624156243587259
0.39	-1.81564006170793	2.04486418549036	641.422759640211	-1.44627596632426	47.8601414135973	0.154410250021131	-0.302634462793116	-0.00166266971604223	0.0060130338221871
0.4	-1.56964522865539	2.13205839697669	641.270505302931	-1.43109821413207	47.7221340016807	0.137472216995094	-0.292408632751805	-0.00164088418803987	0.00581458251114947
0.41	-1.43972751407322	2.16333840781575	641.206750537533	-1.37377806491863	47.6291381949484	0.136626938928338	-0.294135716884402	-0.00155326037801007	0.00567593846285114
0.42	-1.44617067433072	2.13445053179707	641.28507081471	-1.29153478903274	47.5999589001576	0.153878011326035	-0.309427434378054	-0.00142643418967658	0.00562013428168473
0.43	-1.58554462789749	2.05211278030633	641.556889901651	-1.20356636676958	47.6455762945362	0.188557934967111	-0.338072180504628	-0.00129014846892017	0.00565824801232706
0.44	-1.82966757495269	1.9329975198889	642.046967621722	-1.12756566568725	47.7652675839949	0.236886298914575	-0.377523443916556	-0.00117188761469733	0.00578623450235383
0.45	-2.13077825246752	1.80007037136611	642.731836031572	-1.07653164187065	47.9450218526594	0.292422717222396	-0.423076725332162	-0.00109196470533446	0.00598498963743355
0.46	-2.43181998890373	1.67730827049283	643.530193390909	-1.05659600198038	48.1590517151716	0.347313456276591	-0.468711627781975	-0.00106015983225727	0.00622383962205936
0.47	-2.67904927937067	1.58432222717112	644.311031503989	-1.06631870633165	48.3742931443325	0.39393304037153	-0.508317580417948	-0.00107459859973802	0.00646660489482265
0.48	-2.83338652741671	1.53239428131474	644.919474031287	-1.09751930760084	48.5568593993415	0.426391076152391	-0.536890412599355	-0.00112297314574838	0.00667862788716961
0.49	-2.87735235391317	1.52292240190829	645.213957966249	-1.1373396132283	48.6787981045117	0.44145904924328	-0.551332699269969	-0.0011856482019682	0.00683293941185004
0.5	-2.81594040970372	1.54845507791355	645.103905145408	-1.17099489768874	48.723408479224	0.43872400256166	-0.550680766653422	-0.00123983817798945	0.00691412324512553
0.51	-2.67180394390731	1.59569467778377	644.576218001014	-1.18462056112122	48.6878353371699	0.420076866917061	-0.535819872564758	-0.00126396653030725	0.00691925055221754
0.52	-2.4769159632649	1.64934017579868	643.702223172382	-1.16773269222296	48.5824950726942	0.388861131814395	-0.508926819154487	-0.00124148289268955	0.00685617541996991
0.53	-2.26375126421027	1.69557736447782	642.622905084482	-1.11500906730598	48.4278038579664	0.349059090044963	-0.472924862532728	-0.00116368690890412	0.00674017662639809
0.54	-2.05875715572144	1.72437344887942	641.517106126551	-1.02726497257761	48.2493568474545	0.304776721096946	-0.431145793390146	-0.00103134730048327	0.00659018399748712
0.55	-1.87962645705023	1.73030102561543	640.562319160173	-0.911587681243946	48.0729452564741	0.260077728360011	-0.387227370989503	-0.000855028315986939	0.00642561698121363
0.56	-1.73623098763722	1.7121514967668	639.899091643788	-0.780611299028516	47.9205701983659	0.219019524465347	-0.345118606811321	-0.000654059874328206	0.00626434515034197
0.57	-1.63370324969322	1.67190278662357	639.607697766746	-0.650921452073319	47.808065577234	0.185648658228615	-0.308994655567774	-0.000454108913030549	0.00612170829282793
0.58	-1.57558288284611	1.61361595352863	639.700874755987	-0.540650744299846	47.7443241081549	0.16375451763762	-0.282925874290632	-0.00028343819166976	0.00601014370112496
0.59	-1.56531593760428	1.54262138464391	640.131153620207	-0.466494955156927	47.731669968564	0.156327862224358	-0.270276729196198	-0.00016822029517416	0.00593888651857677
0.6	-1.60545249161631	1.46506525786233	640.807628702971	-0.44060748244778	47.7667757433164	0.164849806247414	-0.272965966093593	-0.000127640650534611	0.00591341527238981
0.61	-1.69511840255251	1.38766168311359	641.615963000765	-0.468011715323532	47.8416714964862	0.188664260630094	-0.290828072476539	-0.000169808479612898	0.00593467092709821
0.62	-1.82720819181469	1.31741063102114	642.436804142983	-0.54518955710788	47.9447067633457	0.224707629306133	-0.321329129011135	-0.000289515665278239	0.00599840156401388
0.63	-1.98692863522138	1.26109415761627	643.160371752498	-0.660294589174715	48.0616159692761	0.267776951623097	-0.359801303548543	-0.000468545010803956	0.00609512967794401
0.64	-2.15280026832879	1.22449972897179	643.697263009348	-0.795036826132607	48.1769524090104	0.311350565730488	-0.400204385716257	-0.000678594420708722	0.00621114615424473
0.65	-2.30026014687296	1.21147211014761	643.986491276436	-0.927826579386011	48.2760418723894	0.348797716355203	-0.436258322575517	-0.000886165003975647	0.00633064107299375
0.66	-2.4070052589153	1.22301078674032	644.001330833163	-1.0374226034289	48.3473252569458	0.37468736351471	-0.462674911528148	-0.00105823185653164	0.00643869310009215
0.67	-2.45853939483328	1.25667848503168	643.752414952872	-1.1062389497253	48.3846511737634	0.385870226875696	-0.476185150402111	-0.00116738240566006	0.00652449149873091
0.68	-2.45224518183216	1.30655854763823	643.286733923266	-1.12265525913805	48.3888991499216	0.382067385772741	-0.476115777617349	-0.00119540960505482	0.00658398003188054
0.69	-2.39870573430086	1.36389854572311	642.681382153893	-1.08205657017328	48.3683606642154	0.365829624424265	-0.464390842441713	-0.00113494198959341	0.00662116458818918
0.7	-2.31978879237095	1.41841979943651	642.032110781723	-0.98673382130334	48.3375810166421	0.341892678260586	-0.444981993959186	-0.000989318455312471	0.00664761856261153
0.71	-2.2439263793985	1.46008833645869	641.438357749209	-0.845038507573924	48.3147771045637	0.31610009406677	-0.422963063036893	-0.000771315822180707	0.00668017638025148
0.72	-2.19980194342524	1.48098157169855	640.987650369072	-0.670214792366791	48.3183487446699	0.294162089386819	-0.403409068717764	-0.000501376522993757	0.00673729198956224
0.73	-2.21007150150739	1.4768053162785	640.742545983995	-0.47915574890017	48.3632561688522	0.280545780961733	-0.390401530378271	-0.000205706327841448	0.00683490534090608
0.74	-2.28667906741653	1.44766267833599	640.73252749254	-0.291072294039117	48.4580654217934	0.277746452323161	-0.386360764456098	8.57862119033603e-05	0.00698279083474129
0.75	-2.42880717043405	1.39785544099201	640.951888115058	-0.125883726719015	48.6032709515981	0.28608290812787	-0.391833142976909	0.00034200851775279	0.00718221870977276
0.76	-2.62370385881755	1.33476379325102	641.363206563335	-0.00215172077816936	48.7911668603548	0.30401668824808	-0.405737408638375	0.000533931806970589	0.00742539448485158
0.77	-2.84981955285042	1.26711766091747	641.905007571713	0.0654049754682377	49.0071676689782	0.328850043327343	-0.425947812320121	0.000638497679429473	0.00769667447038419
0.78	-3.08114616792096	1.203150961437	642.501806253965	0.0684615145913404	49.2321822044281	0.357552823518996	-0.449998501651504	0.000642620210314027	0.00797513400553052
0.79	-3.29154724592534	1.14915398505176	643.074830056011	0.00709664848824774	49.4454865341172	0.387441846487535	-0.475667337054102	0.000546330645157744	0.00823780896447618
0.8	-3.45819064687806	1.10879356457195	643.55202871135	-0.109390806149986	49.6275370388379	0.416506141713213	-0.501256080473925	0.000364049121434062	0.00846289328369954
0.81	-3.56375665890892	1.08329801625422	643.876296805448	-0.263293788019353	49.7622821509343	0.443321587947726	-0.525515042836471	0.000123312015690602	0.00863233243079697
0.82	-3.59761807834445	1.07229499892029	644.011098271716	-0.430959308192815	49.8387182533558	0.466676212077628	-0.54731755379944	-0.000139071005018532	0.00873352415702455
0.83	-3.55644387565847	1.07485852413358	643.943010816149	-0.586468745101816	49.851637234406	0.485160208032899	-0.565307953870159	-0.000382750065503701	0.00876012082551947
0.84	-3.44458610984122	1.09026056588134	643.681225867652	-0.705776144480391	49.8016838600157	0.497000529736964	-0.577770121020284	-0.000570273453269321	0.00871213232065937
0.85	-3.27427119124101	1.11806689989798	643.254704719201	-0.770452836145153	49.6949433883373	0.500317533491268	-0.582872411993324	-0.000672909223672691	0.00859560233050904
0.86	-3.06524817371425	1.15751793267009	642.708230057938	-0.770337681377173	49.5422880898205	0.493784686171847	-0.579269702400413	-0.000674766303965346	0.00842206920136829
0.87	-2.84337049554164	1.20647630061367	642.098626348054	-0.704702491350872	49.3586218387479	0.477461034886017	-0.566854967374033	-0.00057461368067635	0.00820786905756099
0.88	-2.63772996148712	1.26046228198277	641.491742763399	-0.581887964804262	49.1620074587461	0.453432872725301	-0.547334847083606	-0.000385330424877428	0.00797317328253211
0.89	-2.47640513070098	1.31232754559038	640.959598376245	-0.417642013656481	48.9725151121333	0.425912886505694	-0.524315809377694	-0.00013134403307602	0.00774056659791394
0.9	-2.38147984129372	1.35291063521532	640.576009631976	-0.232550741360099	48.8105836988702	0.400612401308481	-0.502738758562841	0.00015534354070168	0.00753303343269085
0.91	-2.36450148963495	1.37264459244925	640.408832771975	-0.0490014401254251	48.6948054726924	0.383470205646225	-0.487740559021429	0.000439867796467541	0.00737143399418988
0.92	-2.42374993988129	1.36369334032754	640.508126895473	0.111902742399515	48.6393151101874	0.379087736002458	-0.483259144247594	0.000689305308846033	0.00727183989703978
0.93	-2.54442158680852	1.32194234688813	640.891852308125	0.233105891296486	48.6512824749579	0.389375050764169	-0.490836073413303	0.000876993583243668	0.00724332183129189
0.94	-2.70209269903404	1.24817446217107	641.533195170577	0.303729596066957	48.7292087311592	0.4128827464737	-0.509042198751893	0.000985878619619296	0.00728679708733332
0.95	-2.86879137556646	1.14803507431445	642.354920028287	0.320333571886573	48.862665271957	0.445080729891569	-0.53375813338954	0.00101051174593714	0.00739529043591319
0.96	-3.0200198877135	1.03082760863884	643.235265917931	0.287167454219133	49.0337579192358	0.479521079109815	-0.559249446798683	0.000957468209908052	0.00755550705199554
0.97	-3.14052997841389	0.907598344508936	644.026713829692	0.21539753367127	49.2200552811204	0.509513090582306	-0.579697861791107	0.000844154195878022	0.00775014783905342
0.98	-3.22686223579471	0.789185428591324	644.5844985089	0.121425028487329	49.3982115760988	0.529765504413175	-0.590692551921916	0.000696181083905345	0.0079601385691081
0.99	-3.2856570752131	0.684823870056882	644.797817312501	0.0245283527981917	49.5472740643127	0.537481423556176	-0.590210592275218	0.00054367188118809	0.00816604261767101
1	-3.32823975018837	0.601558684236822	644.615048808078	-0.055862718040985	49.6508230626317	0.532611109514312	-0.578811289840557	0.000416986319134449	0.00834837375795544
1.01	-3.36343110209343	0.544291585328481	644.055765458033	-0.102924391212641	49.6976011118361	0.517287450230644	-0.559058519346559	0.000342397273003558	0.00848714450112553
1.02	-3.39134861636772	0.515990263744967	643.206391685121	-0.104896798568525	49.6809318903045	0.494762077596574	-0.534457563322471	0.000338241373531556	0.00856150087235041
1.03	-3.40075666181837	0.517579648987027	642.201391988234	-0.0569336411546999	49.597717216533	0.468313573356956	-0.508346099208234	0.000412029900814126	0.008550446367877
1.04	-3.37130940513961	0.54732296073753	641.195905061601	0.0379325675862189	49.4478985662686	0.440556165574056	-0.483156605365762	0.000558951818408593	0.00843532011019232
1.05	-3.28022282982037	0.599940729017965	640.337359849266	0.168926728962362	49.2349177402262	0.413359370014262	-0.460280289986457	0.00076210560534995	0.00820394541637465
1.06	-3.11118525401599	0.666072752533774	639.742539690486	0.318873794019517	48.9670607688084	0.388289129489305	-0.440486548884988	0.000994618892582677	0.00785547760360755
1.07	-2.86233341200877	0.732752102069153	639.483647654445	0.466672330374414	48.6589212630125	0.367228462709059	-0.424601512773274	0.00122353156440058	0.0074043241958282
1.08	-2.55028352859598	0.785256356711687	639.583628395283	0.590592558495952	48.3318920137419	0.352743697763331	-0.414033059672045	0.00141495714786299	0.00688140644899016
1.09	-2.20849244428949	0.810132941991356	640.018669878049	0.671866270263144	48.0127747051725	0.347877888456746	-0.410803046891191	0.00153968597425236	0.00633160586335629
1.1	-1.88018700647572	0.798606386894196	640.725109741605	0.697892145075732	47.7302531259165	0.355331033334596	-0.416983758910937	0.00157817251027359	0.00580735504253488
1.11	-1.60802328362866	0.7492418602578	641.608700354737	0.664387690315613	47.5098529962167	0.376305123518116	-0.433732497113398	0.00152386596968879	0.00535961595836248
1.12	-1.42379310747416	0.668843190152451	642.55549524595	0.57600809539772	47.3687409876349	0.409503474737398	-0.460340830869173	0.00138414281344179	0.00502846273198515
1.13	-1.34143043397916	0.571102720838385	643.444516665801	0.445292483108159	47.3119652059002	0.450773093324733	-0.493756718824179	0.00117863319154188	0.00483575407736569
1.14	-1.35530269591328	0.473299836865983	644.16223312519	0.290200119432664	47.3313671100358	0.493654272007713	-0.528871479310304	0.00093536026556873	0.00478179924353433
1.15	-1.44381015861498	0.392054100520659	644.617768615122	0.130840503063254	47.4075239379475	0.530744111653492	-0.559557244679825	0.000685640197089166	0.00484668243180952
1.16	-1.5764596427825	0.339482746430816	644.756351653825	-0.0138303007223023	47.5140606067626	0.555444931133434	-0.580127635152475	0.000458947446699498	0.00499548332764566
1.17	-1.72157945639261	0.320940795902982	644.567722839009	-0.128635758864998	47.6229271840658	0.563503274896325	-0.586713659793779	0.000278848720055014	0.00518557081411841
