Time [s]	GRFml [N]	GRFap [N]	GRFv [N]	Mml [N.m]	Map [N.m]	Mv [N.m]	Mfree [N.m]	COPml [m]	COPap [m]
0.01	19.9228568855933	-9.68409422560213	630.713048219207	-27.0219207217625	1.70175514337889	-0.053905477700197	0.826238133178407	-0.00621901443964206	0.0055297663390441
0.02	20.1033320631045	-9.83877472953774	631.486676836312	-26.5550876158146	1.77001138486149	-0.038797141502442	0.834742614413938	-0.00610948739244536	0.00474042956293224
0.03	20.2790584212552	-9.99128999405741	632.263323754184	-26.0950488881881	1.83759879625915	-0.0239902535096013	0.842691027195018	-0.0060026158868922	0.00396217920861407
0.04	20.4458688830129	-10.1399467188064	633.033309324497	-25.647701048551	1.90387507209582	-0.00965856982746693	0.849944366116482	-0.00589929762001309	0.00320493824898432
0.05	20.5999549105633	-10.2833011091866	633.786128301564	-25.2183053594163	1.96827194486754	0.00405141134061848	0.856404823163282	-0.00580024386491097	0.00247764782842794
0.06	20.7380379675083	-10.4202070056748	634.510534623609	-24.8113107007291	2.03031055621139	0.0170265327979613	0.86201925392187	-0.00570596761359282	0.00178798361614607
0.07	20.8575070737825	-10.5498465718925	635.194701945868	-24.4302190444959	2.08961371605606	0.0291916056139603	0.866779969741752	-0.00561677930068032	0.00114213630671625
0.08	20.9565145889831	-10.6717415856906	635.826466723182	-24.0775005180023	2.14591473689829	0.0405122816801553	0.870723148401827	-0.00553278944371844	0.000544666615007808
0.09	21.0340257032667	-10.7857445591631	636.393652235536	-23.754562291595	2.19906261742856	0.0509959376189459	0.873925265081819	-0.00545391741428365	-1.55875006700723e-06
0.1	21.089820655832	-10.8920101941848	636.884463778058	-23.4617724530624	2.24902344892134	0.06069042408491	0.876497971829342	-0.00537990549559957	-0.000495348021666418
0.11	21.1244521303972	-10.9909489696752	637.28793812027	-23.1985368196661	2.29587802733053	0.0696806419126887	0.878581816370406	-0.00531033737226515	-0.000937084740114197
0.12	21.1391633168277	-11.08316586001	637.594424847684	-22.9634235049856	2.33981577001361	0.0780830270799817	0.880339119113717	-0.00524466022132158	-0.00132855465545258
0.13	21.1357745510212	-11.1693882094574	637.796073646398	-22.754327214654	2.38112515375066	0.0860381520204516	0.881946251660508	-0.00518220961626085	-0.00167271051194993
0.14	21.1165480911763	-11.2503875562491	637.887300055913	-22.5686628875371	2.42018100557905	0.0937017726247507	0.883585506692949	-0.00512223650210756	-0.00197338964521956
0.15	21.0840413744289	-11.326900652299	637.865202577156	-22.4035765870683	2.45742908578453	0.10123475957164	0.88543673259238	-0.00506393553748248	-0.00223500200442282
0.16	21.0409590201951	-11.3995550252718	637.729906016909	-22.2561605950398	2.49336849960564	0.108792441454997	0.887668928386094	-0.00500647411899504	-0.0024622077981586
0.17	20.9900129775696	-11.468804169889	637.484809227073	-22.1236595272126	2.5285325576471	0.116513948788382	0.890432045739484	-0.00494902139963928	-0.00265960433966285
0.18	20.9337986904495	-11.5348768527826	637.136719582975	-22.0036549800729	2.5634687715784	0.124512177230879	0.893849306909032	-0.00489077658712756	-0.00283144080720673
0.19	20.8746931603159	-11.5977441117674	636.695861291933	-21.8942176793283	2.59871871815583	0.132864981927515	0.898010400385559	-0.00483099576739586	-0.00298137759811491
0.2	20.8147785351834	-11.6571063881018	636.175749649863	-21.7940182318342	2.63479852737611	0.14160817125374	0.902965941364633	-0.00476901645537684	-0.00311230387968835
0.21	20.7557925624656	-11.712401925992	635.592928474318	-21.7023902407588	2.67218074586203	0.150730788070001	0.908723570400478	-0.00470427904597314	-0.00322622303722862
0.22	20.6991051165785	-11.7628361931335	634.966573029502	-21.6193425554858	2.71127829074651	0.160173052502745	0.91524600687705	-0.00463634434098708	-0.00332421125169875
0.23	20.6457182185466	-11.807430708463	634.317965786382	-21.5455206011882	2.7524311394425	0.169827197108728	0.922451278253753	-0.00456490637946543	-0.00340644970502862
0.24	20.5962856265989	-11.8450883949533	633.669857334243	-21.4821198707806	2.79589629531371	0.179541260050973	0.930215221274394	-0.00448979991243369	-0.00347232622054706
0.25	20.5511472596383	-11.874671484933	633.045729687151	-21.4307575735928	2.84184142920531	0.189125723659192	0.938376210540318	-0.0044110020448341	-0.00352059780199256
0.26	20.5103734273749	-11.895087159529	632.468984081929	-21.393310948562	2.89034242579	0.198362705238416	0.946741926713437	-0.00432862781595991	-0.00354960181072445
0.27	20.473814035897	-11.905375552979	631.962080046606	-21.3717327211641	2.94138486881715	0.207017236194392	0.955097843450703	-0.00424291979417255	-0.00355750064406561
0.28	20.441148525721	-11.9047945287275	631.54565684397	-21.367855504751	2.99486929108745	0.214850016857838	0.963216998931039	-0.00415423210302194	-0.00354254291401356
0.29	20.4119331614026	-11.8928957492831	631.237672085774	-21.3831975515732	3.05061980673849	0.221630919679354	0.970870531938024	-0.00406300964782139	-0.00350332336988275
0.3	20.3856432949654	-11.8695870072968	631.052595015162	-21.418782123378	3.10839555070658	0.227152443008148	0.977838409124222	-0.00396976364337891	-0.00343902418052407
0.31	20.3617092405957	-11.8351765333201	631.000693271482	-21.4749818966133	3.16790418924243	0.231242299074406	0.983919752725338	-0.00387504482252472	-0.00334962163714782
0.32	20.3395453144867	-11.7903960010415	631.087451492816	-21.5513983045914	3.22881665140154	0.23377435706748	0.988942198379629	-0.00377941590074253	-0.00323604473430571
0.33	20.3185723299435	-11.7364001540795	631.313157549685	-21.6467836465696	3.29078217709583	0.23467725502268	0.992769770719675	-0.00368342495938548	-0.00310027525566155
0.34	20.2982343479206	-11.6747423098526	631.672687330691	-21.7590112894253	3.35344279074744	0.233940137627566	0.995308857540835	-0.00358758137187191	-0.0029453827125622
0.35	20.2780107574394	-11.6073263797124	632.155511777744	-21.8850965010457	3.4164463931569	0.23161516153472	0.996511986266067	-0.00349233572811944	-0.00277549151217379
0.36	20.2574248214658	-11.5363374027998	632.745940457646	-22.0212675481017	3.47945781348632	0.227816621918714	0.996379250784288	-0.00339806491903127	-0.0025956818158563
0.37	20.2360497187873	-11.4641538489419	633.423604734748	-22.1630838303563	3.54216736692851	0.222716777625964	0.994957391617811	-0.0033050631447549	-0.00241182944441051
0.38	20.2135129020951	-11.3932460349656	634.164171155186	-22.305595169095	3.60429670401499	0.216538669771197	0.992336685246282	-0.00321353913926298	-0.00223039367505096
0.39	20.1894993405325	-11.3260658606884	634.940262712285	-22.4435340642215	3.6656019920058	0.209546422779579	0.988645936545353	-0.00312361940060238	-0.00205816467017652
0.4	20.1637539777118	-11.2649336599203	635.72255309017	-22.5715309064723	3.72587471199148	0.202033672388547	0.984045980277502	-0.00303535672769342	-0.0019019844375003
0.41	20.1360835546252	-11.2119282469599	636.480987671966	-22.6843408730752	3.78494056167251	0.194310870194329	0.978722174658136	-0.00294874293858813	-0.00176845654950022
0.42	20.1063578421315	-11.1687862045905	637.186075903515	-22.7770706089833	3.84265710047	0.186692261695483	0.972876407039607	-0.00286372432513109	-0.00166366030141292
0.43	20.0745103000876	-11.1368161052506	637.810193259099	-22.8453928277584	3.89891084344135	0.179483322344146	0.966719127443809	-0.00278021821921088	-0.00159288456379504
0.44	20.0405382117077	-11.1168326973278	638.328828113558	-22.8857376459661	3.95361449411077	0.172969366965751	0.960461882479324	-0.00269812902684861	-0.00156039533665782
0.45	20.0045024014349	-11.1091151513902	638.721709601096	-22.8954507470782	4.0067049039377	0.16740592988216	0.954310745681077	-0.00261736223233228	-0.00156924902730764
0.46	19.9665266958332	-11.1133922865183	638.973757086714	-22.8729102777937	4.05814216789962	0.163011357813934	0.948460938433131	-0.00253783517189065	-0.0016211608783633
0.47	19.9267972953517	-11.1288563350419	639.075799974977	-22.8175966065493	4.10791003109755	0.159961879347359	0.943092817812914	-0.00245948379459549	-0.00171643491867454
0.48	19.8855621655262	-11.1542053141115	639.02502776781	-22.730111594793	4.15601751752055	0.158389228757482	0.938369284079417	-0.00238226512283743	-0.00185395846996596
0.49	19.843130419959	-11.1877125214182	638.825143886397	-22.6121467063193	4.20250143101487	0.158380723261277	0.93443454124841	-0.00230615564188798	-0.00203126079820354
0.5	19.7998714635117	-11.2273201330707	638.486211970539	-22.4664019622173	4.24742915318597	0.159981534615447	0.931414038647004	-0.00223114633010318	-0.00224463213436595
0.51	19.7562134204095	-11.2707524318435	638.024199257487	-22.2964602939436	4.29090100382105	0.163198768843408	0.929415337463724	-0.00215723543340059	-0.00248929618029076
0.52	19.7126401315173	-11.3156429139906	637.460237302148	-22.1066241191162	4.33305136039613	0.168006878692207	0.928529589929822	-0.00208442034409723	-0.00275962652144525
0.53	19.6696858201642	-11.3596684922814	636.819634860987	-21.9017228445879	4.37404776865681	0.174353885229848	0.92883329302949	-0.00201269003408815	-0.00304939522643033
0.54	19.6279264495862	-11.4006833069317	636.130690454099	-21.6869013924249	4.41408741874005	0.182167877117763	0.930389983719384	-0.0019420194034047	-0.00335204042980188
0.55	19.5879668717943	-11.436844339941	635.423362314279	-21.467400677177	4.45339060094991	0.191363284684181	0.933251575832575	-0.00187236664567515	-0.00366093894287665
0.56	19.5504231243215	-11.4667211516042	634.727860662375	-21.2483411985794	4.49219107041164	0.201846484834609	0.937459095055574	-0.00180367433018177	-0.00396966995098108
0.57	19.5158996698794	-11.4893826484976	634.073231219136	-21.0345205463545	4.53072360898125	0.213520374647055	0.943042640985883	-0.00173587440143635	-0.00427225662940903
0.58	19.4849619675203	-11.5044548507867	633.485999446861	-20.8302346693338	4.56920943806238	0.226287648537148	0.950020487224733	-0.00166889675896685	-0.00456337399808127
0.59	19.4581054565201	-11.5121451227691	632.988942235456	-20.6391312967716	4.60784046698466	0.240052619048115	0.958397315201575	-0.00160268056540756	-0.00483851345157153
0.6	19.4357227456263	-11.5132302006952	632.600047770633	-20.4641020001899	4.6467636197871	0.254721528654495	0.968161659691853	-0.0015371870013967	-0.00509409702639312
0.61	19.4180714348722	-11.5090075005432	632.331715429792	-20.3072171571424	4.68606663609415	0.270201404823517	0.979282720029841	-0.00147241189367853	-0.00532753745093562
0.62	19.4052454560991	-11.5012114919309	632.190236129389	-20.169705649055	4.72576676629974	0.286397609507447	0.991706758385396	-0.00140839652551245	-0.00553724319254365
0.63	19.3971530137606	-11.4918992378671	632.175580071159	-20.0519786297204	4.76580366664833	0.303210324616773	1.00535336341998	-0.00134523501374409	-0.00572257088529658
0.64	19.3935040761529	-11.4833113668524	632.281503857381	-19.9536942786309	4.80603754871806	0.320530294537169	1.02011190238804	-0.00128307690071468	-0.00588373050327177
0.65	19.3938098813214	-11.4777166064321	632.49597309186	-19.8738582398214	4.84625326658681	0.338234212923375	1.03583851492525	-0.00122212403639158	-0.00602165125910431
0.66	19.3973960965915	-11.4772494193665	632.801880539798	-19.8109525666713	4.8861705623422	0.356180190846056	1.05235401420085	-0.00116262137334506	-0.00613781829914073
0.67	19.4034301651793	-11.4837511218963	633.178024423119	-19.7630845523072	4.92546017536946	0.374203773299969	1.06944305217466	-0.00110484190811944	-0.00623409170865596
0.68	19.4109620865422	-11.4986250389551	633.600297247311	-19.7281459053727	4.96376499845517	0.392114977111707	1.08685487205011	-0.00104906661434748	-0.00631252004797649
0.69	19.4189765376958	-11.5227157174406	634.043023467106	-19.7039723838319	5.00072498214874	0.409696801470892	1.10430591058093	-0.000995560763451258	-0.00637516057383541
0.7	19.4264529949397	-11.5562209789697	634.480375046578	-19.6884942435997	5.03600409400406	0.426705609418761	1.1214844257837	-0.000944548463046558	-0.00642391747018073
0.71	19.4324295026425	-11.5986437031635	634.887788223169	-19.6798686774682	5.06931737078243	0.442873692902065	1.13805721468505	-0.000896187518979765	-0.00646040787833975
0.72	19.436065083265	-11.6487877976774	635.24330308341	-19.6765867614017	5.10045598844625	0.457914215885343	1.1536783566354	-0.000850546818322808	-0.00648586338275086
0.73	19.436695582621	-11.7047999836711	635.528750252318	-19.6775492056465	5.12930833224431	0.471528582758191	1.16799977839484	-0.000807588329502212	-0.00650107201910052
0.74	19.4338780431321	-11.7642559930768	635.730716200831	-19.6821073151694	5.15587527742174	0.483416109264989	1.1806832970273	-0.000767155531307667	-0.00650636299998324
0.75	19.4274194898018	-11.82428674781	635.84123021628	-19.6900678641551	5.1802782744348	0.493285689968933	1.19141366545383	-0.000728969639400662	-0.00650163339090637
0.76	19.4173872395326	-11.8817372894266	635.858131484146	-19.7016629359924	5.20275934096165	0.500868972188575	1.19991203271636	-0.000692634433863694	-0.00648641311421549
0.77	19.4040993961566	-11.9333488596377	635.785093213613	-19.7174880228534	5.22367265477704	0.50593437583156	1.20594914497052	-0.000657649849475072	-0.00645996210062171
0.78	19.3880959248821	-11.9759527801758	635.631301245706	-19.7384136733898	5.24346806727799	0.508301157002013	1.20935756104457	-0.000623433821648237	-0.00642139131748251
0.79	19.3700924413127	-12.006663785682	635.410805832138	-19.7654775950971	5.26266746465669	0.507852615702475	1.21004214376121	-0.000589351236488801	-0.00636979791762967
0.8	19.3509204273439	-12.0230603123385	635.141585850402	-19.7997652565917	5.28183544188633	0.504547507504194	1.20798811932322	-0.000554748262580359	-0.00630440396794532
0.81	19.3314588385955	-12.0233399623225	634.844383180596	-19.842287624133	5.301546179925	0.498428745372945	1.20326607436064	-0.000518989889805723	-0.00622468817911456
0.82	19.3125628669463	-12.0064399085696	634.541379952387	-19.8938646738392	5.32234869556709	0.489628575712886	1.19603338389884	-0.000481498204485819	-0.00613050075958375
0.83	19.2949958847	-11.9721142711659	634.254801721193	-19.9550227542285	5.34473274635933	0.47836958104675	1.18653173074508	-0.000441788818143801	-0.00602215289670346
0.84	19.2793702968672	-11.9209633254143	634.00553450668	-20.0259127808772	5.36909761503068	0.464961093111736	1.17508058119896	-0.000399502954045811	-0.00590047431582347
0.85	19.2661021963969	-11.8544125883055	633.811842575467	-20.106254710173	5.39572577887947	0.4497908807755	1.16206671318846	-0.000354432980149802	-0.00576683473198739
0.86	19.2553834401028	-11.7746431434558	633.688266872381	-20.1953118760992	5.4247631127169	0.433312287868503	1.14793013674184	-0.000306539639887301	-0.00562312760781286
0.87	19.2471731717198	-11.6844777643746	633.644771560911	-20.2918967172987	5.45620681296469	0.416027313587424	1.13314698599825	-0.000255959835339594	-0.00547171726966445
0.88	19.241209074426	-11.5872302522231	633.686189116519	-20.3944073163993	5.48990170578978	0.398466427318388	1.11821017811441	-0.000203004506316006	-0.00531535291877542
0.89	19.2370369120329	-11.48652771533	633.811994083108	-20.5008921643204	5.52554505677157	0.38116616559058	1.10360880920645	-0.000148146857667097	-0.00515705522923374
0.9	19.2340553829037	-11.3861171257845	634.016413470862	-20.6091387824067	5.56269947503965	0.364645749066101	1.08980737502555	-9.20018465053341e-05	-0.00499998290808196
0.91	19.2315721059238	-11.289668291009	634.288859493345	-20.7167803974458	5.60081303741946	0.349384064486553	1.07722595271743	-3.52983876644088e-05	-0.00484728770518945
0.92	19.2288657865088	-11.2005853352713	634.614649554976	-20.8214138533694	5.63924537624077	0.335798369400132	1.06622245353201	2.11538779530899e-05	-0.00470196685292694
0.93	19.2252493263177	-11.1218379216954	634.975960600766	-20.9207214097276	5.67729819679367	0.324225993091903	1.05707795460907	7.65012065776626e-05	-0.00456672178977933
0.94	19.2201288431519	-11.0558218442009	635.352951349125	-21.0125890361893	5.7142485254183	0.314910130403767	1.04998594692196	0.0001298837046593	-0.00444383132650397
0.95	19.2130542063487	-11.0042564182414	635.724977395606	-21.095214244392	5.74938293562611	0.307990568846883	1.04504610751895	0.000180472694238078	-0.00433504623559693
0.96	19.2037576735978	-10.9681234768987	636.071821118332	-21.1671973514829	5.78203104787823	0.303499873099561	1.04226293314597	0.000227505834472865	-0.00424151069974291
0.97	19.192178413248	-10.9476499377964	636.374860700904	-21.2276112651833	5.81159673280929	0.301365199182952	1.04154927798316	0.000270318669966026	-0.00416371427324624
0.98	19.1784719735734	-10.9423330578892	636.618109953634	-21.2760463205482	5.8375856480045	0.301415550665504	1.04273454097026	0.000308371616740031	-0.00410147612643463
0.99	19.1630049819785	-10.9510048403515	636.789072130729	-21.3126282754046	5.85962798373379	0.303393948872108	1.04557696852148	0.000341271707387108	-0.00405396148395793
1	19.1463364065102	-10.9719297789817	636.879365507972	-21.338009174392	5.87749556302887	0.306973693856172	1.04977929553937	0.000368788669787984	-0.00401972844552898
1.01	19.1291875046302	-11.0029283615649	636.885094841117	-21.3533323165939	5.8911127186478	0.311777664070264	1.05500675815388	0.000390865098028171	-0.00399680188218873
1.02	19.1124030747805	-11.0415175981856	636.806959669329	-21.3601739185823	5.90056064035615	0.317399455345095	1.06090638844387	0.000407620595499951	-0.00398276989781426
1.03	19.0969068115362	-11.0850593353071	636.650106537356	-21.3604651821501	5.90607514172902	0.323425101751827	1.06712645273191	0.00041934984756695	-0.00397489747339521
1.04	19.0836534805037	-11.1309072513341	636.423746538229	-21.3563993058019	5.90803803193985	0.329454152204856	1.07333492358629	0.000426514641303518	-0.00397025138458333
1.05	19.0735803406118	-11.1765441468559	636.140571329688	-21.3503284971393	5.90696249391253	0.335118989788744	1.07923597819156	0.000429729921189973	-0.00396583029290529
1.06	19.0675598338977	-11.219702346509	635.816009450195	-21.3446562490437	5.90347306714238	0.340101461759586	1.08458368311737	0.000429744076718839	-0.00395869403136288
1.07	19.0663551261628	-11.2584615954333	635.467370155593	-21.3417300562549	5.89828101339952	0.344146118000962	1.08919224324089	0.000427413816402461	-0.00394608649605381
1.08	19.0705796969902	-11.2913206225478	635.112924197028	-21.343739407506	5.89215600738364	0.347069612455796	1.09294244203321	0.000423674196677763	-0.00392554716853739
1.09	19.0806619047446	-11.3172404136887	634.770970278474	-21.352623340354	5.88589524091143	0.348766083016153	1.09578416057586	0.000419504634874703	-0.00389500707651739
1.1	19.0968153220826	-11.3356590571925	634.458932846709	-21.369991146007	5.88029115409807	0.349208569344591	1.09773511222699	0.000415892022052564	-0.00385286590026954
1.11	19.1190156475348	-11.3464796781316	634.192531945244	-21.3970590155446	5.87609910289051	0.348446737452955	1.0988761494424	0.000413792334206188	-0.00379804789876685
1.12	19.1469851138722	-11.3500343753376	633.985059688891	-21.4346045791796	5.87400632942782	0.346601341993741	1.09934367344268	0.000414092383958333	-0.00373003531649974
1.13	19.1801854728209	-11.3470281566336	633.846791020035	-21.4829404518836	5.87460360903182	0.34385596558176	1.09931979617715	0.000417573523731658	-0.00364887889852279
1.14	19.217820760443	-11.3384676011294	633.784549228442	-21.5419070979271	5.87836089460105	0.340446628796419	1.09902096349803	0.000424879174174324	-0.00355518605179781
1.15	19.2588510567592	-11.3255793600494	633.801439569414	-21.6108845898686	5.88560815753032	0.336649870345614	1.09868575086188	0.000436487985573292	-0.00345008801563194
1.16	19.3020182758104	-11.3097236607703	633.896757391832	-21.6888221809464	5.89652242986066	0.332769864364888	1.09856249577046	0.000452694234378834	-0.00333518811890719
1.17	19.345884610401	-11.2923077430409	634.066070572685	-21.7742840421956	5.91112178664597	0.329125084097943	1.09889734603341	0.000473596714991439	-0.00321249378884509
