Time [s]	GRFml [N]	GRFap [N]	GRFv [N]	Mml [N.m]	Map [N.m]	Mv [N.m]	Mfree [N.m]	COPml [m]	COPap [m]
0.01	21.5211471897591	-3.66818829921462	662.930836725075	-67.9291536962579	-4.83077864685218	-1.4816211040701	0.696795424334213	0.00247503173374291	0.0052135959033462
0.02	21.0282298996593	-3.41832081132718	664.494091503047	-68.246305604926	-5.05255412625605	-1.57292584078484	0.560595124678643	0.00215790156886358	0.00544357775061617
0.03	20.5410160267517	-3.17331907539912	666.038441812134	-68.5582886192075	-5.27419177351401	-1.66191632964276	0.427107745780991	0.00184308155173236	0.00566929458315393
0.04	20.0668176853305	-2.93820363796852	667.540303094263	-68.8592759461474	-5.49325501337111	-1.74669293162996	0.298856740591574	0.00153385435497947	0.00588563691093941
0.05	19.612562198686	-2.71768457910793	668.976432955794	-69.1436588820378	-5.70712023660208	-1.82551743181492	0.178178964454676	0.00123367244428762	0.00608775132997189
0.06	19.1845787041896	-2.51597590278192	670.324591348602	-69.4062423910526	-5.91300239795896	-1.8968890380609	0.067130232403716	0.000946141305442304	0.00627122982746328
0.07	18.7884119463391	-2.33663763378258	671.56422781753	-69.6424263146548	-6.10800648354863	-1.95960712964952	-0.0325943389440052	0.000674971333010135	0.00643227456791955
0.08	18.4286700687489	-2.18245313370042	672.677175399741	-69.848364881471	-6.28920630915341	-2.01281724608667	-0.119720832445901	0.000423894689254987	0.00656783141238802
0.09	18.1089112819924	-2.05534647603549	673.648323731445	-70.0210981763193	-6.45374892057302	-2.05603796812464	-0.193434804592836	0.000196547509186728	0.00667568768301634
0.1	17.8315722118286	-1.9563419471842	674.466238084168	-70.1586504302732	-6.59897970887698	-2.08916763721769	-0.253395775638143	-3.67806031363778e-06	0.00675453181002308
0.11	17.5979386669964	-1.88556509728987	675.12368730425	-70.2600913517273	-6.72258055172017	-2.11247118723293	-0.299727970021253	-0.000173803704502375	0.00680397436516371
0.12	17.4081576404647	-1.84228243771182	675.618042653856	-70.3255581784452	-6.82271112023045	-2.12654862598936	-0.332988875376274	-0.000311445205589449	0.00682453156581571
0.13	17.2612876808993	-1.82497500066308	675.951511799449	-70.356237648183	-6.89814215838141	-2.13228781568206	-0.354118539418906	-0.000414989342465257	0.00681757367175134
0.14	17.1553834171733	-1.83143961573801	676.131177841403	-70.3543086239228	-6.9483691812767	-2.13080508709734	-0.364373590486723	-0.000483752360588287	0.00678524187561151
0.15	17.087609026395	-1.85891093925247	676.168822203565	-70.3228476360512	-6.97369570038738	-2.12337782916471	-0.365250680941655	-0.000518104851074093	0.00673033838625685
0.16	17.0543748078278	-1.90419697201836	676.080521971722	-70.2657010837345	-6.97527673217592	-2.1113734920497	-0.358404381843306	-0.000519549045875912	0.00665619545491504
0.17	17.0514907328358	-1.96382096066266	675.886026155582	-70.1873292308394	-6.95511586443845	-2.09617942182452	-0.345564508003042	-0.000490736980045873	0.00656653005991183
0.18	17.0743308327608	-2.03416311397142	675.607930363831	-70.0926283881056	-6.91601235208293	-2.07913762415749	-0.328457462936517	-0.000435421617684234	0.00646529173493707
0.19	17.1180024965161	-2.11159638253325	675.270684352503	-69.98673873304	-6.86145834293289	-2.06148797072226	-0.308735526595196	-0.000358337705529319	0.00635651143411937
0.2	17.1775151078763	-2.19261154662434	674.899480568068	-69.8748460151991	-6.79549010797954	-2.04432256962496	-0.287917144201205	-0.000265014510256576	0.00624415920254731
0.21	17.2479428948193	-2.27392793702345	674.519082915161	-69.7619858589755	-6.7225007670232	-2.02855308705258	-0.267340297390661	-0.000161528299615247	0.00613201763955425
0.22	17.3245773394165	-2.35258718944352	674.152662434761	-69.652859447651	-6.64702516608185	-2.01489180568459	-0.24813003184778	-5.42079359371114e-05	0.006023576681982
0.23	17.4030649752806	-2.42602843341716	673.820709539217	-69.5516690065278	-6.57351001577644	-2.00384621186864	-0.23118025147077	5.06882949115762e-05	0.00592195320861996
0.24	17.4795268704042	-2.49214418694092	673.54009042422	-69.4619806796013	-6.50608393201484	-1.99572598987937	-0.217149026081671	0.00014730303906076	0.00582983662294234
0.25	17.5506565663939	-2.54931693582073	673.323308185189	-69.3866211250381	-6.44834249382024	-1.99066053049108	-0.206465939575254	0.00023049412649543	0.00574945925318385
0.26	17.6137937465464	-2.59643691021115	673.178017359657	-69.3276124858792	-6.40316279158625	-1.98862448203686	-0.199349454262409	0.00029610975494789	0.00568258848524666
0.27	17.6669714700435	-2.63290194064689	673.10682486141	-69.2861484038787	-6.37256021185804	-1.98946851802455	-0.19583189782618	0.000341204054621215	0.0056305363202708
0.28	17.7089354739933	-2.65860051167492	673.107391676597	-69.2626115455216	-6.35759750520151	-1.99295238075314	-0.195789494505992	0.000364176793147536	0.00559418168771798
0.29	17.7391348380673	-2.67387927780132	673.172829619401	-69.2566308307837	-6.35835270027794	-1.99877738088154	-0.198974857105961	0.000364826767011456	0.00557400131994443
0.3	17.7576842421847	-2.67949641716826	673.29236739408	-69.2671743395022	-6.37394840930265	-2.00661586636379	-0.205049520196354	0.000344315098374336	0.00557010609149919
0.31	17.7652991195886	-2.67656232673572	673.452241692569	-69.2926718604719	-6.40264080939162	-2.01613568292354	-0.213614409925131	0.000305041544769333	0.0055822810971313
0.32	17.7632061853752	-2.6664693535784	673.636753474984	-69.3311593778897	-6.44196239340796	-2.02701828265068	-0.224236586876564	0.000250443382119618	0.00561002899332542
0.33	17.7530330496074	-2.6508125378484	673.829418120306	-69.3804365723278	-6.48890877309685	-2.03896984002413	-0.23647113116945	0.000184731892144166	0.00565261692280196
0.34	17.736681828688	-2.6313037180352	674.014131677387	-69.4382277351529	-6.54015667173639	-2.05172544538614	-0.24987762042468	0.000112585587660408	0.00570912748561761
0.35	17.716192757065	-2.60968179580963	674.176274504047	-69.5023364084062	-6.59229800212157	-2.06504710609585	-0.264031231643096	3.88218379855539e-05	0.0057785137070569
0.36	17.6936046740917	-2.58762242802655	674.303678259934	-69.5707845805397	-6.64207376286806	-2.07871684298039	-0.27852902535708	-3.19305292726044e-05	0.00585965695501764
0.37	17.6708198201672	-2.56665083967165	674.387392206427	-69.641928365782	-6.68659149793347	-2.09252658198499	-0.292992396044206	-9.55356895237132e-05	0.00595142557930474
0.38	17.6494805362609	-2.54806175546923	674.422199357656	-69.7145437051852	-6.72351126043558	-2.10626677868601	-0.307066957748207	-0.00014861236805575	0.00605273102730107
0.39	17.6308651577594	-2.53285055236745	674.406851165451	-69.7878776479855	-6.75118732309135	-2.11971576186017	-0.320421254118517	-0.000188735646099806	0.00616257763313001
0.4	17.6158095943537	-2.52165957604619	674.344009778674	-69.8616630697735	-6.76875612053705	-2.13263164230382	-0.332745631969257	-0.000214566309656893	0.00628010235774173
0.41	17.6046597972004	-2.51474310131975	674.239907988372	-69.9360971045875	-6.77616485709832	-2.14474832028321	-0.343752410492898	-0.000225899879448472	0.00640460149129633
0.42	17.5972585791344	-2.51195363913728	674.103757186377	-70.0117859465448	-6.77413957519861	-2.15577666866351	-0.353178145400815	-0.000223632831820577	0.00653554257420552
0.43	17.5929681613091	-2.51275122640049	673.946951518976	-70.0896608503263	-6.76409592875328	-2.16541140941809	-0.360788372782082	-0.000209649147454902	0.00667256129078113
0.44	17.5907274964287	-2.51623603682161	673.782130582531	-70.1708719809711	-6.74800010822396	-2.17334358746817	-0.366384773126491	-0.000186635897103929	0.00681544453587912
0.45	17.5891410214729	-2.52120320748494	673.622172446628	-70.2566681108167	-6.72819100264541	-2.17927793067209	-0.36981427422354	-0.000157841728201755	0.00696410198098035
0.46	17.5865931979114	-2.52621729262403	673.479192836351	-70.348270949566	-6.70717748440081	-2.18295382170232	-0.370979259050677	-0.000126796453010674	0.00711852910510104
0.47	17.5813811871945	-2.52970234942585	673.363624714459	-70.4467530785043	-6.68742645418198	-2.18416814623059	-0.369847796325348	-9.70130580148863e-05	0.00727876478167203
0.48	17.5718564565338	-2.53004244604673	673.283445466595	-70.5529280414205	-6.6711578559235	-2.18279796434057	-0.366462687161898	-7.16950096556115e-05	0.00744484623715978
0.49	17.5565651618914	-2.5256864647142	673.243607006475	-70.6672601639473	-6.66016222398195	-2.17882080929509	-0.36094812553037	-5.34714912624155e-05	0.00761676372856861
0.5	17.5343769185381	-2.51525053898941	673.245708330431	-70.7898002072317	-6.65565450947413	-2.17233046667352	-0.353512893434961	-4.41811039037527e-05	0.00779441685837057
0.51	17.5045920988714	-2.49761137418068	673.287931573291	-70.9201511173034	-6.65817508961936	-2.16354632877956	-0.344449234616095	-4.47207287578057e-05	0.00797757423847327
0.52	17.4670190862841	-2.47198408268997	673.365242827463	-71.0574660346515	-6.66754521025893	-2.15281483925088	-0.3341268489195	-5.49710021161224e-05	0.00816583829934461
0.53	17.4220148935549	-2.43797901671512	673.469839323972	-71.200478517367	-6.6828799248397	-2.14060211082903	-0.32298179837252	-7.38036743052201e-05	0.00835861735043662
0.54	17.3704850954956	-2.39563335883178	673.59180644061	-71.347562747319	-6.70265718978678	-2.12747747202925	-0.311500492315435	-9.91695816546598e-05	0.00855510735230687
0.55	17.3138419486787	-2.34541486173417	673.719932674479	-71.4968194701189	-6.72483748882272	-2.1140884230599	-0.300199301481963	-0.000128259643339856	0.00875428602128839
0.56	17.253922659453	-2.28819700595637	673.842619265524	-71.64618169379	-6.74702451096082	-2.10112819947241	-0.289600719038641	-0.000157725732368132	0.00895492163772151
0.57	17.1928727794474	-2.22520683782457	673.948814387043	-71.7935328493672	-6.76665428921076	-2.08929779478125	-0.280207318133487	-0.000183943879236989	0.00915559814718396
0.58	17.1330024200955	-2.15794871204605	674.028900212497	-71.9368292877042	-6.78119805543174	-2.07926482604863	-0.272475025765549	-0.000203299323320119	0.00935475685014185
0.59	17.0766251691483	-2.08810894202409	674.075464855402	-72.0742187104514	-6.78836304465996	-2.07162199328163	-0.266787415297723	-0.000212471563167536	0.00955075333353919
0.6	17.0258910855421	-2.01744781183745	674.08389992062	-72.2041464350329	-6.78627566780923	-2.06684805098728	-0.26343278935695	-0.000208697781275833	0.0097419265801378
0.61	16.9826258199366	-1.94768640361245	674.052777596009	-72.3254422605947	-6.7736328514154	-2.06527416005003	-0.262585761377382	-0.000189994745880839	0.00992667570958299
0.62	16.9481876954383	-1.88039615285617	673.983977912821	-72.4373820809263	-6.7498098123455	-2.06705821851015	-0.264294838038861	-0.000155322370200685	0.0101035388319604
0.63	16.9233534931253	-1.81689891521579	673.882555793066	-72.5397201887578	-6.71491590562772	-2.07216929590537	-0.268477160648031	-0.000104676338762367	0.0102712681969478
0.64	16.9082417941047	-1.75818461259508	673.756357367921	-72.6326903067458	-6.66979419657253	-2.08038364841925	-0.274921101006482	-3.91023488972297e-05	0.0104288962229388
0.65	16.9022801694003	-1.70485227543598	673.615414287345	-72.7169756113948	-6.6159647559301	-2.09129301557318	-0.283296861132432	3.93697267634125e-05	0.0105757879713564
0.66	16.9042194669839	-1.65707860723652	673.471161868075	-72.7936502205935	-6.55551602453847	-2.10432504848721	-0.293174642329319	0.000127867420585742	0.010711676967348
0.67	16.9121951436473	-1.6146161993737	673.335540613571	-72.8640966266447	-6.49095260711967	-2.11877485632572	-0.304049379535565	0.000222882760029254	0.0108366826929554
0.68	16.9238322688868	-1.57682137550888	673.220049814394	-72.9299052218555	-6.42501122475478	-2.13384584521404	-0.315370533264729	0.000320529325115211	0.0109513093556305
0.69	16.9363877298376	-1.54270951173293	673.134825881852	-72.9927632573739	-6.36045902300216	-2.1486973241092	-0.326575038548933	0.000416829478037726	0.0110564265142596
0.7	16.9469205144486	-1.51103372323347	673.08781647563	-73.0543412102714	-6.29988980803014	-2.16249581935229	-0.337121260782786	0.000508009206943607	0.0111532327948475
0.71	16.9524789347203	-1.48038117532815	673.084114487115	-73.1161845659999	-6.24553396067056	-2.17446671722809	-0.346521719531381	0.000590777087768534	0.0112432043272124
0.72	16.9502924156889	-1.44928008295726	673.12550408355	-73.1796184579476	-6.19909674346305	-2.18394277023955	-0.354372414652385	0.000662564928568091	0.0113280298300534
0.73	16.9379551043236	-1.41630978944198	673.210255220415	-73.245671493598	-6.16163754603802	-2.19040616883643	-0.360376812193105	0.00072171068916387	0.0114095346189422
0.74	16.9135890679036	-1.38020620385127	673.333184493241	-73.3150235291362	-6.13349947284706	-2.19352128791049	-0.364362898419418	0.000767569015410783	0.0114895963085647
0.75	16.8759762120646	-1.33995532654967	673.485980315144	-73.3879802551764	-6.1142948009946	-2.19315583951579	-0.366292161745435	0.000800540746818183	0.0115700556265341
0.76	16.8246501527184	-1.29486856376169	673.657770642206	-73.4644753720237	-6.1029475173842	-2.18938895589054	-0.366259885358585	0.000822019466272871	0.0116526264441899
0.77	16.7599419697915	-1.24463494634558	673.835893268413	-73.544099021559	-6.09778971075618	-2.18250563199915	-0.364486699114477	0.000834259922860651	0.011738809675813
0.78	16.6829768607502	-1.18934711556451	674.006813393617	-73.6261491630267	-6.09670438341065	-2.17297790726453	-0.361301918617649	0.000840179365295759	0.0118298158984429
0.79	16.5956219797138	-1.12949988515931	674.157121839443	-73.7097008801028	-6.09730358346074	-2.1614340908983	-0.357119761168848	0.000843107969671072	0.0119265012453444
0.8	16.5003889662404	-1.06596218513579	674.274540775295	-73.7936873147608	-6.09712792728793	-2.14861816523744	-0.352410037924433	0.000846508275811508	0.012029320276072
0.81	16.400297616639	-0.999925085195895	674.348862609603	-73.8769851383446	-6.09385180955644	-2.13534217530892	-0.34766534143084	0.000853685668593515	0.0121382982026245
0.82	16.2987096324689	-0.932830239877693	674.372751919426	-73.9584972535603	-6.08547803289299	-2.12243488141155	-0.343367039259938	0.000867512408034146	0.0122530232480493
0.83	16.1991432337741	-0.866284369158278	674.342349669364	-74.0372257917284	-6.07050628873196	-2.11069018181558	-0.339952513543103	0.000890186591299844	0.0123726582945555
0.84	16.1050805322485	-0.801966195273062	674.257632869143	-74.1123294009655	-6.04806184556186	-2.10081878999212	-0.33778602876354	0.000923044861785747	0.0124959696102066
0.85	16.0197798579125	-0.741532546850832	674.122500262469	-74.1831602413893	-6.01797381575653	-2.09340637932438	-0.337135358106052	0.000966443849580695	0.0126213695315462
0.86	15.9461047135067	-0.686530108051405	673.944574378378	-74.2492779008139	-5.98079625505943	-2.08888091044571	-0.338155863563688	0.00101972044769754	0.0127469696178026
0.87	15.8863797401304	-0.638318570912105	673.734730875577	-74.3104394742466	-5.93776980613104	-2.08749117074155	-0.34088313895293	0.00108123534515333	0.0128706409451041
0.88	15.8422821132197	-0.598009821226407	673.50638605632	-74.3665671475216	-5.89072628680477	-2.08929773367753	-0.345234638099202	0.00114849804414692	0.0129900787282293
0.89	15.8147742912396	-0.566426360704389	673.274591242981	-74.4176966172966	-5.84194317979783	-2.0941766480983	-0.351019985416119	0.0012183652417449	0.0131028691279422
0.9	15.8040811861403	-0.544080568901341	673.05499707561	-74.4639114017368	-5.79395904493818	-2.10183525981386	-0.357958970752631	0.00128729838725334	0.0132065567045605
0.91	15.8097118127406	-0.53117477184997	672.862760638344	-74.5052694056363	-5.74936412384218	-2.11183871511932	-0.365705629451481	0.00135166092698989	0.0132987113502265
0.92	15.8305225110892	-0.527620539020265	672.711472933594	-74.5417288912859	-5.7105825776303	-2.12364495946519	-0.373876355903529	0.00140803173482803	0.0133769936096826
0.93	15.8648161243861	-0.533074288609085	672.612183264473	-74.5730812053041	-5.67966370978674	-2.13664547679688	-0.382079731382374	0.00145350897812306	0.0134392171295398
0.94	15.9104692402762	-0.546985232372938	672.572590637753	-74.5988972021841	-5.65809909401984	-2.15020865633551	-0.389945681033846	0.00148597854757676	0.0134834066952245
0.95	15.9650779198506	-0.568650997068902	672.59646083591	-74.6184933153412	-5.64668076944266	-2.16372254879893	-0.397151706150918	0.00150432335759446	0.0135078500981153
0.96	16.026111359944	-0.597275953292109	672.68331215097	-74.6309217281936	-5.64541270303038	-2.17663389112936	-0.403444243588035	0.00150855422437926	0.0135111420750424
0.97	16.0910627240917	-0.632027369515204	672.828394030968	-74.6349872016077	-5.65348376578526	-2.18848062760186	-0.40865364823085	0.00149984931029394	0.0134922188536746
0.98	16.1575869448213	-0.672084968969839	673.022962368925	-74.6292909600056	-5.66930581554788	-2.19891570816619	-0.412701833164749	0.00148049670629393	0.0134503823907056
0.99	16.2236165974723	-0.716680255735684	673.254834285314	-74.6122997868217	-5.69061547336535	-2.20772065885027	-0.415602189919222	0.00145374286849187	0.0133853140782184
1	16.2874488724235	-0.765123029399952	673.509185462653	-74.5824363009049	-5.7146331999736	-2.21480823842443	-0.417452004379402	0.00142355753141175	0.0132970783343344
1.01	16.3477990803518	-0.816813742841742	673.769535766411	-74.5381844479875	-5.73826870539502	-2.22021435655055	-0.418418143459904	0.00139433264518445	0.0131861169103279
1.02	16.4038188291608	-0.87124167963555	674.018855261445	-74.4782027025143	-5.75835791349635	-2.22408026448516	-0.41871727912959	0.00137053823325764	0.0130532348284631
1.03	16.4550798035482	-0.927970232793665	674.240713809978	-74.4014364687505	-5.77191395763023	-2.22662677551465	-0.418592310211054	0.00135636145806408	0.0128995786120839
1.04	16.5015267432995	-0.986611750370248	674.420393914426	-74.307220795815	-5.77637322994185	-2.22812287158081	-0.418286913541342	0.00135535645773068	0.0127266069964194
1.05	16.5434055478225	-1.04679537785449	674.545888680544	-74.1953648349497	-5.76981747744959	-2.22885145990378	-0.418020285117766	0.00137013172215696	0.0125360538148342
1.06	16.5811742509433	-1.10813198955963	674.608714650907	-74.066210473409	-5.75115435778497	-2.22907522917584	-0.417964106874356	0.00140209910657834	0.0123298824679331
1.07	16.6154057701252	-1.17018060194085	674.60448230042	-73.9206592268816	-5.7202416510341	-2.22900550699571	-0.418223593986131	0.00145130432013656	0.0121102314882517
1.08	16.6466917479095	-1.23242057124102	674.533184293939	-73.7601636555157	-5.67794427991495	-2.22877674475084	-0.418824151694136	0.00151635320037965	0.011879351297663
1.09	16.6755564392642	-1.29423339981457	674.399181928938	-73.5866821323438	-5.62611813400176	-2.22842877661935	-0.419704723506233	0.00159444162564318	0.0116395332722404
1.1	16.7023884872737	-1.35489714744452	674.210892009042	-73.4025985438822	-5.56752006807219	-2.22789835449133	-0.420718380473219	0.00168148986309411	0.0113930335050234
1.11	16.7273966617945	-1.41359533398335	673.980198058763	-73.2106112247103	-5.50564894781735	-2.22702070122856	-0.421640129449736	0.00177237485512136	0.0111419949253075
1.12	16.7505933552847	-1.46944091976981	673.721629631397	-73.0135979003534	-5.44452783174245	-2.22554100979658	-0.422181356494072	0.00186124680360043	0.0108883724022822
1.13	16.7718070234956	-1.52151456778511	673.451369952223	-72.8144654304732	-5.38844190791006	-2.22313500823527	-0.42200981795035	0.0019419098667831	0.0106338658881865
1.14	16.7907220408686	-1.56891503905751	673.186164018052	-72.6159945357019	-5.34165029946091	-2.21943697227411	-0.420773687064228	0.00200824133232049	0.0103798664116574
1.15	16.8069418377175	-1.61081835880188	672.942205658506	-72.4206903341972	-5.30809204152785	-2.21407295553282	-0.418127887020533	0.0020546197831934	0.0101274188350686
1.16	16.8200689187134	-1.64654141106981	672.73408251965	-72.2306493458278	-5.29110724005987	-2.20669656919211	-0.413760806342493	0.00207633099695121	0.00987720390658972
1.17	16.8297936259436	-1.67560495141416	672.573852500039	-72.0474526453126	-5.29319358724047	-2.19702441332576	-0.407419499415326	0.00206992095388469	0.00962954053838509
