Time [s]	GRFml [N]	GRFap [N]	GRFv [N]	Mml [N.m]	Map [N.m]	Mv [N.m]	Mfree [N.m]	COPml [m]	COPap [m]
0.01	-0.845377980320184	0.106734131940033	596.492063842666	8.23376350353067	42.5016655531415	0.354481621061152	-0.373797339690192	0.00245836866556115	-0.0101480389838344
0.02	-0.712317259705016	0.104977858735052	594.9030005211	8.22284249644363	42.3871571463788	0.382558684530527	-0.399781757886459	0.00247221223689009	-0.0101421728095347
0.03	-0.591665796484051	0.135291686743846	593.262033618369	8.22231969815718	42.2752971830373	0.403100768530982	-0.420736900451788	0.00250506683580831	-0.0101251752924084
0.04	-0.496226953446973	0.224437354199268	591.556946773386	8.24077073480632	42.1718445120864	0.410402351475787	-0.433093907630379	0.0025718463509492	-0.0100855853307666
0.05	-0.439819675800241	0.383969990034454	589.880889440543	8.28260548871606	42.0913270250272	0.401802905581839	-0.435251607726088	0.00267778646268713	-0.0100101932226933
0.06	-0.436198235197636	0.607356369382944	588.436479647581	8.34727128902236	42.0567982443349	0.378066784228375	-0.427728491016213	0.00281699019916992	-0.00988499824904415
0.07	-0.496482484145547	0.871546741749776	587.494525615424	8.4295772425842	42.0951406455127	0.342861964736058	-0.41270903456883	0.00297399778629193	-0.00969807489619851
0.08	-0.625792189186162	1.14217839514892	587.320601572449	8.52093371663024	42.2293049378083	0.301578979064801	-0.393179444479909	0.00312770565095644	-0.00944361466132393
0.09	-0.820138996531429	1.38081626815756	588.093083024978	8.61109878363803	42.4699914013994	0.259908353076176	-0.37197550065441	0.00325635756065368	-0.0091258137733089
0.1	-1.06463882581969	1.55243697055324	589.838306434217	8.68997358512371	42.80952534004	0.2226138170345	-0.351069375139759	0.00334219294848037	-0.00876113534560141
0.11	-1.33382464638428	1.63164837067906	592.402317030278	8.74908402901693	43.2200178094615	0.192811179418369	-0.331309326665484	0.0033746526171371	-0.00837784414422199
0.12	-1.59435442605393	1.60669369570227	595.466808439463	8.78256667732276	43.6565845808549	0.17185101302159	-0.3126446519148	0.00335164426306045	-0.00801248204414867
0.13	-1.80981895824023	1.48089000896911	598.603558900832	8.78765705318393	44.064871385588	0.159690638908839	-0.294687838550246	0.00327900959780403	-0.00770387648013876
0.14	-1.9467785373285	1.27163953163622	601.35136219746	8.76478885591488	44.390907669348	0.155500402912068	-0.277351109261138	0.00316878019459055	-0.00748604860370583
0.15	-1.98074573883412	1.00747236303164	603.29526523999	8.71742850133512	44.5907744103258	0.158219973737638	-0.261283171190602	0.00303693972905972	-0.0073817510223495
0.16	-1.90073373239525	0.723751342055719	604.130589184552	8.65171730066191	44.637859746461	0.16685865833179	-0.247923712500357	0.00290125195425506	-0.00739819180687218
0.17	-1.71128935114503	0.457740246016937	603.701857441556	8.57592715337985	44.526421522653	0.1804795117783	-0.239151578166091	0.0027794055744147	-0.00752585355012775
0.18	-1.43158049240886	0.243733850839849	602.015758597617	8.49970167528082	44.2713757768559	0.197960673234799	-0.2366680375867	0.00268744138112464	-0.00774042539834868
0.19	-1.09191433080457	0.108873650324868	599.233858527361	8.43307023124897	43.9052138112176	0.217730323702181	-0.241366738165337	0.00263828881698713	-0.00800704956719644
0.2	-0.728742492484874	0.0701214682943447	595.652673466604	8.38527476876296	43.4733763645978	0.237685567146639	-0.252953633144873	0.00264028425812302	-0.00828562152958007
0.21	-0.37950380720733	0.132652884335897	591.676109605077	8.36351356141444	43.0292105410028	0.255425106263519	-0.269986237434975	0.00269572291313369	-0.00853590399819154
0.22	-0.0784538399970649	0.289711713049566	587.780591168404	8.3717616159007	42.6290220366602	0.268781505200439	-0.290335840653395	0.00279971217639352	-0.00872164675701126
0.23	0.145966997945756	0.523791317755854	584.469820272716	8.40986359985482	42.3271052459525	0.276488320391114	-0.311902838476244	0.00293974077171177	-0.00881351080889803
0.24	0.272392160385904	0.808906572550242	582.216639859771	8.47310370853513	42.1703609469534	0.278723691592587	-0.333304245472299	0.00309637589372058	-0.00879108530098471
0.25	0.28708791020043	1.11367709104191	581.394373579169	8.55242642183573	42.1923673782741	0.277279156471523	-0.354251326995967	0.00324532083602735	-0.00864444629608158
0.26	0.184558387600321	1.40491775791308	582.207303855873	8.63540059303874	42.4074404938432	0.27521568871542	-0.375448669895505	0.00336074180493884	-0.00837549655768349
0.27	-0.0314335313920902	1.65139746844809	584.636047578419	8.70788628013374	42.8059530628046	0.276050165789659	-0.398032409690968	0.00341939716747386	-0.00799888959366407
0.28	-0.346676110963364	1.82738700018326	588.415005462115	8.75620151674536	43.3525591359504	0.282696812476158	-0.42275306526709	0.00340480144382449	-0.00754193924545221
0.29	-0.735922079219784	1.9156044480616	593.05407374164	8.76943937296491	43.9886988174093	0.296498387965974	-0.449223397691284	0.00331054511630713	-0.00704280141154789
0.3	-1.16382495604745	1.90921071284113	597.906389294289	8.74150554919544	44.6398230387245	0.316674578186406	-0.475546044484255	0.00314202554461618	-0.00654651207787083
0.31	-1.58798044624126	1.81260990515303	602.271416685887	8.67246870484412	45.2264655109126	0.340387627252564	-0.498506843917218	0.00291619187157588	-0.00609910450541173
0.32	-1.9639659876627	1.640945042162	605.512588442916	8.56894125579412	45.6770765718383	0.363421318575515	-0.514313143475404	0.00265935665155193	-0.00574076005251761
0.33	-2.25153574435166	1.41831653872041	607.164545326339	8.44340238144889	45.9398874117061	0.381263332668395	-0.519649601024369	0.0024035338063505	-0.00549945186013479
0.34	-2.42066945571646	1.17487289193228	607.00803377058	8.31257965845975	45.9912450326992	0.39024962966017	-0.512697494773311	0.00218200731087648	-0.00538657501474765
0.35	-2.45617503017911	0.943033051842935	605.099225796771	8.19516468494723	45.8387782378133	0.388421678830923	-0.493768129961154	0.00202487146755714	-0.00539557393854717
0.36	-2.35996882619731	0.753211439875556	601.751278004184	8.10921908263349	45.5190712433117	0.375863419712319	-0.465335643672368	0.00195514999414659	-0.00550375612963078
0.37	-2.15078398066941	0.629535328246808	597.475715354892	8.06963268440406	45.0907681627393	0.354475922370035	-0.431466127130723	0.00198589264312699	-0.00567664259172562
0.38	-1.86161264509002	0.586154524822501	592.897332383647	8.08595468655146	44.6248344454489	0.327336607721503	-0.396845327005348	0.00211846475662991	-0.00587366274003159
0.39	-1.53548910760998	0.624801058600108	588.65829440688	8.1608649523981	44.1939186273951	0.297904845102144	-0.365728831995703	0.00234214077171913	-0.00605391864556309
0.4	-1.22025171899813	0.734196937468319	585.326089938356	8.28950135860837	43.8624938703287	0.269340979390903	-0.341136872460563	0.00263507014317665	-0.00618107187708156
0.41	-0.962810812884106	0.891672005090976	583.317517016954	8.45979611484955	43.6789608055254	0.244113738431522	-0.324501886921773	0.00296663209060133	-0.00622692991818258
0.42	-0.803369888427221	1.06693132084445	582.848010793888	8.6538691581814	43.6704003942089	0.223931309954831	-0.315803348184187	0.00330105954806847	-0.00617376409402842
0.43	-0.770100859583342	1.22737911333808	583.912399009423	8.85036270991189	43.8402965220004	0.209905115619035	-0.314059375137102	0.00360197403462026	-0.00601559608709268
0.44	-0.87493100157568	1.34392850027309	586.299076870394	9.02740013062979	44.1692791461654	0.202787733253366	-0.317944939200856	0.00383719957192985	-0.00575862528458015
0.45	-1.11121580945925	1.39599941437688	589.634349055701	9.16567950051644	44.6186715158081	0.20313223522978	-0.326298375209816	0.00398304659896342	-0.00542076468609665
0.46	-1.45397921803105	1.37456716528882	593.447978815582	9.25114782231849	45.1362915255827	0.211284355696533	-0.338353230930873	0.00402729956312275	-0.00503010225194189
0.47	-1.86301382943535	1.28266252297786	597.24650023287	9.27679295307738	45.6635951824913	0.227208562320798	-0.353656266193395	0.00397043706301359	-0.00462214868403477
0.48	-2.28851439361801	1.13346754085054	600.579557388805	9.24331616108761	46.1429986797244	0.250229007509004	-0.371757672047595	0.00382506218272705	-0.00423598123053048
0.49	-2.67827523584026	0.946822946872198	603.087556312611	9.15872070044071	46.5242335911929	0.27881060538486	-0.391843533499751	0.0036139308262142	-0.00390972302225207
0.5	-2.98507454465625	0.745304529687333	604.52565333243	9.0370601954752	46.7689441124996	0.310503181562059	-0.412497443101621	0.00336715526238385	-0.00367602914091947
0.51	-3.1728738539536	0.550918657361064	604.767170698398	8.89666170481542	46.853328968258	0.342126304257386	-0.431725591245028	0.0031190647834739	-0.00355825655968223
0.52	-3.2208806356091	0.382988929421953	603.795641792379	8.75807566391637	46.7692205187873	0.370198264274513	-0.447277511161552	0.00290492304979395	-0.00356777604715058
0.53	-3.12517106089111	0.25719331310708	601.696139813087	8.64188260272085	46.5243003739735	0.391530421252857	-0.457177970753421	0.00275743881008084	-0.00370256803697738
0.54	-2.89816776335678	0.185243397701541	598.652576052513	8.56640342202604	46.1420069958341	0.403841397614916	-0.460293902044256	0.00270295985511837	-0.00394700957629435
0.55	-2.56657656010908	0.174565373169776	594.949997821398	8.54538262612784	45.6611479996282	0.406217047573553	-0.456726633449731	0.0027574806886248	-0.00427272675819756
0.56	-2.16832989834683	0.227567172398217	590.973195677365	8.58584005180999	45.134562414808	0.399267293484017	-0.447859959258291	0.00292302093837093	-0.00464054430969724
0.57	-1.74878189796982	0.340516652294093	587.189123437132	8.68644688613974	44.6257704712195	0.384910146279197	-0.436000715825839	0.00318531426094604	-0.00500376494776805
0.58	-1.35610042955739	0.502489342471834	584.10326018305	8.83687476761672	44.202714739613	0.365826239345713	-0.423688075946419	0.00351384037172553	-0.00531305038661639
0.59	-1.0357553546099	0.695073107069841	582.188878686742	9.01850869591516	43.9285152690682	0.344736255094877	-0.412872517794417	0.00386489576457771	-0.00552290290720847
0.6	-0.824320176922204	0.893444258256171	581.800121096589	9.20667989672683	43.8504035826326	0.323716951716422	-0.404228236618661	0.00418767329770275	-0.00559916302386154
0.61	-0.743384196844016	1.06908154584142	583.089945016776	9.37421295966536	43.989190488751	0.303761954052703	-0.396836557631416	0.00443242759369966	-0.00552623213337555
0.62	-0.794925665153559	1.1938838740221	585.957716303967	9.49570341852961	44.3322175185684	0.284712254695361	-0.388368012396402	0.00455906292366748	-0.00531221675397825
0.63	-0.959677948890082	1.24497245904008	590.046042277416	9.55168207198952	44.8323613163065	0.265558636052874	-0.375734059345649	0.00454419018257335	-0.0049901911802977
0.64	-1.1996002352146	1.20914684724732	594.793373531101	9.53178789302496	45.4142762700197	0.244999905692473	-0.356030221496824	0.00438501043308859	-0.00461445040621572
0.65	-1.46456221931122	1.08593092496233	599.532278168503	9.43629572349838	45.9870562802885	0.222068644535931	-0.327501140778322	0.00409922474013535	-0.00425186996451321
0.66	-1.70206687086439	0.888411018316627	603.609181082832	9.2757660693664	46.4605538728519	0.196631020377048	-0.290252780878323	0.00372126413359486	-0.00396992879512997
0.67	-1.86773959767988	0.641564244288546	606.495161382617	9.06906118227094	46.7614368036174	0.169623510081137	-0.246514953146334	0.00329608968597372	-0.00382406811920966
0.68	-1.93386056093242	0.378360402135522	607.861545587036	8.84033666308554	46.8451496898751	0.142980788364986	-0.200388532137634	0.0028722857229001	-0.00384740776978643
0.69	-1.89364895177862	0.134426262130353	607.606849309914	8.6157464427035	46.7012676183152	0.119301302411727	-0.157151942728578	0.00249600635649461	-0.00404524958123081
0.7	-1.76023382545955	-0.0576515152415517	605.837927038591	8.42046566458908	46.3517793243864	0.101361189335511	-0.122308486515075	0.0022066495168348	-0.00439545602500219
0.71	-1.56086550769439	-0.173300380932181	602.821483167203	8.27632822622194	45.8438380694424	0.0916084458426877	-0.100603077267468	0.00203425838910365	-0.00485417914298125
0.72	-1.32836901762799	-0.199367615635241	598.927360781774	8.20005449902798	45.2397431367681	0.0917495440712215	-0.095219222180455	0.00199799602836526	-0.00536509019888465
0.73	-1.09259949951322	-0.135499653532709	594.580893434223	8.20186669458278	44.6070018813926	0.102495051660618	-0.107299981608039	0.00210489598729646	-0.00586963372735094
0.74	-0.874461957864138	0.00654661555408755	590.230879110051	8.28432950340099	44.0104076271858	0.123479961923021	-0.135847236221523	0.00234849364880862	-0.00631600926202469
0.75	-0.683993087017801	0.205347932495687	586.327998893919	8.441469156712	43.5066895103543	0.153336214582931	-0.177969650356683	0.00270764910906118	-0.00666537329653488
0.76	-0.522485433318414	0.433454703012562	583.301514264071	8.65847759178034	43.1411141575775	0.189877755830521	-0.229390491072286	0.00314648538798823	-0.00689477563032731
0.77	-0.387237102792158	0.661537734559071	581.523137359413	8.9124382735223	42.944935582692	0.230359564953902	-0.28509857278898	0.00361652473363538	-0.00699721845287438
0.78	-0.276736808941873	0.862337934836727	581.255458621412	9.17441124496521	42.9329079129545	0.27178062335156	-0.340024907610224	0.00406166244176465	-0.00697971707635681
0.79	-0.194178601026772	1.01381793724748	582.594052538775	9.41289047998161	43.1009106568607	0.311205459697762	-0.389645006814649	0.00442570931966701	-0.00686031312903479
0.8	-0.148029635643954	1.10113279416535	585.421586429459	9.59820902442608	43.4245764081168	0.34607455887217	-0.430433795101074	0.00466122398984203	-0.00666477373350055
0.81	-0.149561029727799	1.11734232620489	589.394213159077	9.70708930752283	43.8601757392534	0.374464213177438	-0.460131591680847	0.00473767194584385	-0.00642340035900668
0.82	-0.208323660579367	1.06310766820193	593.973708327205	9.72637562444054	44.3486801292772	0.395250784509147	-0.477812495699692	0.00464689371639726	-0.00616812848643733
0.83	-0.327155355155873	0.945839248035554	598.505525267898	9.6551198875917	44.8230163146981	0.408142074589596	-0.483777372731278	0.00440449127152953	-0.00592998421768498
0.84	-0.498333559530769	0.778787250022839	602.32827740996	9.50458310297359	45.2174432960097	0.413563230824273	-0.47931791456457	0.00404682984329818	-0.0057369380068753
0.85	-0.702060092977878	0.580348271044013	604.889753700805	9.29622746574044	45.4772004613114	0.412422212779998	-0.46641182597061	0.0036245049679634	-0.00561217641500916
0.86	-0.907819661682503	0.373475581032437	605.842236674289	9.05822872163489	45.5664180081726	0.40581920201029	-0.447410483337535	0.00319393491496567	-0.00557274683706921
0.87	-1.07850769002434	0.184705477256406	605.096136553915	8.82128899448226	45.4727853454882	0.394790260974677	-0.424770569744982	0.00280895653806201	-0.00562843924060147
0.88	-1.1766904201509	0.0421669708065394	602.82301962465	8.61452274347225	45.2083892985347	0.380173514998928	-0.400862631341295	0.00251392994722566	-0.00578073883379349
0.89	-1.17195997495136	-0.0278284129372013	599.412370969265	8.4619787796443	44.8070656760681	0.362648896826013	-0.37786481182389	0.0023391300854585	-0.00602179950424692
0.9	-1.04806427215053	-0.00543844135394123	595.396446324285	8.38007995360258	44.3192125770398	0.342936528606005	-0.357722924419182	0.00229846853411808	-0.00633365686387238
0.91	-0.808341822189515	0.117716867901995	591.361787833565	8.37604442936298	43.8051567477882	0.322066323537665	-0.342135237680554	0.00238913785815631	-0.00668821303195333
0.92	-0.478044841068845	0.334661104823863	587.864429665758	8.44727000184052	43.32795221893	0.301583935380743	-0.332511310933057	0.0025927089727068	-0.00704869338980096
0.93	-0.102487809934346	0.62177205072426	585.360578713597	8.58169379661923	42.9461788068304	0.283562453343693	-0.32986672752026	0.00287743027527221	-0.00737312562528175
0.94	0.259329441047988	0.941080047067632	584.15845342184	8.75919112361696	42.7071405958157	0.270351741022928	-0.334649554186085	0.00320173293702286	-0.00761987574578227
0.95	0.544957941452561	1.24615497365298	584.392226325852	8.95404616992048	42.6409364027986	0.264097608683314	-0.346538520527781	0.00351900639105296	-0.00775452812121447
0.96	0.700811308934951	1.49047434660014	586.016482611154	9.13836411332087	42.7560898065426	0.266161017144609	-0.364288249167527	0.00378347523412847	-0.00775669830772086
0.97	0.693884936420674	1.6363351101819	588.818793124344	9.2860359929311	43.0375683933781	0.276622054335199	-0.385705887790495	0.00395657206289901	-0.00762503131666553
0.98	0.51992944905971	1.6621314091984	592.447806611205	9.37662315756753	43.4478881305944	0.29404158407988	-0.407819516712887	0.00401278357167345	-0.00737886417011696
0.99	0.205686835941812	1.56626286343828	596.453834513849	9.39842408481764	43.9315274408188	0.315580150748504	-0.427249088414922	0.00394378863165901	-0.007055804381561
1	-0.19581064488173	1.36690101393907	600.338104481497	9.35010066274018	44.4221909403555	0.337467406327071	-0.4407324450661	0.00375993562110288	-0.00670555465648565
1.01	-0.616002010165659	1.09797609582242	603.606184342216	9.24055739074978	44.8518163872144	0.355713974951085	-0.445710574813883	0.00348867091904392	-0.0063813254978034
1.02	-0.984978957817751	0.802656298026172	605.821079416951	9.08717676200695	45.1598592418354	0.366893261714113	-0.440850758645831	0.00317022441540837	-0.00613077028803516
1.03	-1.24543204418874	0.525994848492964	606.652234459453	8.91286691969976	45.3014356260557	0.368809185820726	-0.426389110297375	0.0028514239309505	-0.00598836800558472
1.04	-1.36284608265688	0.308257348357751	605.917513944243	8.74255455947422	45.2532867527458	0.360904512988365	-0.404204163702534	0.00257876988438843	-0.00597062099607665
1.05	-1.3296986693194	0.179884865631678	603.615301079931	8.59972540974319	45.0170344663621	0.344335784697952	-0.377584421658873	0.00239183481034955	-0.0060745847043846
1.06	-1.16334541733504	0.158401564608301	599.942697569242	8.50344043623048	44.6195973823439	0.321720122062208	-0.350714663488141	0.00231778778848468	-0.00627943755786708
1.07	-0.899137926710142	0.247117039837565	595.293991940057	8.46605442772629	44.1108110429003	0.296624416014178	-0.327965138222304	0.0023675645503336	-0.00655029649002592
1.08	-0.581440767224078	0.435322947269709	590.23268012725	8.49173504009772	43.558301648851	0.272907143258074	-0.313111916420033	0.00253403131924013	-0.00684337476812835
1.09	-0.255256971648599	0.699769423528709	585.432253545375	8.5758553156978	43.039697211374	0.254038019522732	-0.308637016839755	0.00279241561649324	-0.00711175965928801
1.1	0.0397286011236606	1.00734186332181	581.586767870915	8.70536279313326	42.6325306321241	0.242517997543331	-0.315249951506456	0.00310318155284761	-0.00731133745061785
1.11	0.272211747107202	1.31887067042022	579.30112696049	8.86022396484182	42.4027714202152	0.239506059518543	-0.331738123630839	0.00341727590408236	-0.00740650190680042
1.12	0.420101258086328	1.59384189016488	578.980329258377	9.01593353710901	42.3936727777209	0.24472697799284	-0.355194500011438	0.00368322302402513	-0.0073751649302245
1.13	0.470289470092652	1.79551818673916	580.742745260293	9.14686036925134	42.6172035805299	0.256680410040477	-0.381593515165224	0.00385500930503291	-0.007212336793601
1.14	0.418322652618987	1.89578017367826	584.381403219723	9.22994971636684	43.050364683137	0.273098934192128	-0.406603614422514	0.00389929668687627	-0.00693138306280333
1.15	0.268295597658128	1.87897696459527	589.388004072145	9.24813082541744	43.6379272284214	0.291528519518785	-0.426458054946996	0.00380047312112097	-0.00656223230716274
1.16	0.0326742956142087	1.7442447181645	595.038858181289	9.19278795500836	44.3016467101246	0.309858645906932	-0.43867769731578	0.0035624954833009	-0.00614640381263881
1.17	-0.268493403709105	1.50601989036956	600.524853342592	9.06486461155264	44.9542144341919	0.326637911636001	-0.442466346934985	0.00320730837941907	-0.00572962135877059
