Time [s]	GRFml [N]	GRFap [N]	GRFv [N]	Mml [N.m]	Map [N.m]	Mv [N.m]	Mfree [N.m]	COPml [m]	COPap [m]
0.01	-4.08603700401172	-1.1384488203855	643.380357127971	5.14835758945577	24.5105588991651	0.416696727227391	-0.406957481134326	-0.00295617028630724	0.0145876862033543
0.02	-3.51277148276851	-0.72515296785253	651.703950548265	4.9939671546366	24.328100751718	0.410363526165641	-0.410880032913831	-0.00328445577872993	0.0138512097110338
0.03	-2.9642395730416	-0.301481737310543	659.639436119163	4.87547610881683	24.0851689741217	0.409353503753036	-0.420479540214518	-0.00355441228482489	0.0130501193944771
0.04	-2.46485012359785	0.139642023811283	666.830528891217	4.82276192793897	23.7369330812547	0.417624813075773	-0.439936282840358	-0.00371717223959811	0.0121410327303882
0.05	-2.03394416568886	0.588167790042185	672.841128543813	4.85270547510648	23.2572844417811	0.437207019093658	-0.470967089558607	-0.00374213251619637	0.0111090529678167
0.06	-1.68299625416739	1.01470544965814	677.16950087304	4.96619769256957	22.6421621850343	0.46814683153475	-0.512720074736026	-0.00362151288686652	0.00997113213856599
0.07	-1.41366124915089	1.37494541356277	679.320761641487	5.14855455189832	21.9086434685801	0.508959159196161	-0.562384542383514	-0.00337060726398475	0.0087713221536237
0.08	-1.21739558226224	1.61918931118793	678.91576905352	5.37305899972441	21.090339022787	0.557277915256991	-0.616151872677668	-0.00302390763906224	0.00756977472522707
0.09	-1.07704916909671	1.70427817245979	675.802699688492	5.60669796574983	20.2303521558331	0.610370204870016	-0.670095076994718	-0.0026280800810613	0.00642874536756005
0.1	-0.970258077057242	1.60492835606858	670.137623475395	5.81679796388581	19.3734253643413	0.665316824513903	-0.72067131296627	-0.00223327881286517	0.00539921021803946
0.11	-0.873904882214814	1.32188924931667	662.409862085877	5.97721125431295	18.5588871837803	0.718885629400225	-0.764797887424949	-0.00188444547202915	0.00451114857811513
0.12	-0.768563096591458	0.885115442416794	653.402662700743	6.0729156108586	17.8156604763193	0.767313258799884	-0.799675472933433	-0.00161409752216812	0.00376935703495213
0.13	-0.641824897609049	0.351093334589869	644.095365121241	6.10227962344813	17.1600019498295	0.806273827351278	-0.822630552195472	-0.00143774249028183	0.00315518752305366
0.14	-0.489735152107251	-0.205497839621067	635.526089370781	6.07672247258414	16.595965603834	0.831227255910217	-0.831194181286121	-0.00135254463169232	0.00263320281144869
0.15	-0.316118204862839	-0.704510979339655	628.641525212707	6.01797918013203	16.1179943423204	0.838153557825761	-0.823473534657914	-0.00133929298233082	0.00216073678340184
0.16	-0.130207800894047	-1.07511541467278	624.161625919288	5.95359416801671	15.714685550756	0.82448420265778	-0.798696968899605	-0.00136715432174761	0.00169793701468551
0.17	0.0565268451137654	-1.26956497341048	622.482363007595	5.91154281727914	15.3727098141778	0.78992692796201	-0.757708383250743	-0.0014002317726125	0.00121608665075712
0.18	0.233281455959232	-1.27273773285949	623.630924866047	5.91497907345225	15.0800534509416	0.736893131560095	-0.703194315161358	-0.00140467689553492	0.000702708143841713
0.19	0.391640572135552	-1.10493458454448	627.27730540121	5.97801890320073	14.8280984558342	0.670365030584862	-0.639531653350487	-0.00135507408981406	0.00016287966924422
0.2	0.525703403828214	-0.816928922868944	632.796584524541	6.10322848062733	14.6124163083741	0.5972229189561	-0.57228667909493	-0.00123902514403285	-0.000382939959676754
0.21	0.630835198832399	-0.478223839656515	639.369108636996	6.28115799258006	14.4324294278023	0.52521462759229	-0.507509689748205	-0.00105924266160806	-0.000903690784268496
0.22	0.701876347507633	-0.161316295417621	646.101915712082	6.49191967346417	14.2902391130896	0.461831840044195	-0.451009759676582	-0.000832915319167293	-0.00136396592557697
0.23	0.731995314414645	0.0741147595742441	652.153785827437	6.70850668017405	14.1889482225849	0.413343410857371	-0.407757649919905	-0.000588545184189493	-0.00173065492256247
0.24	0.713283105616647	0.193176158524683	656.847357172328	6.90131320373328	14.1307789791436	0.384147035502847	-0.381483175689268	-0.000360822618881818	-0.00197907523033419
0.25	0.639575456592385	0.191086165054353	659.754021966266	7.04315114187335	14.11526415837	0.37648415317619	-0.374452663303341	-0.000184377190545315	-0.0020978693935414
0.26	0.510965623233124	0.0909340510702261	660.740505607096	7.11396928452068	14.1378048762041	0.390465920334744	-0.387369105242816	-8.74158151304982e-05	-0.00209204643768612
0.27	0.338377785056445	-0.0650294323255741	659.970359893857	7.10448453979728	14.1889207414991	0.42430911589704	-0.419343707461265	-8.63149034777688e-05	-0.00198360777664663
0.28	0.145907203620736	-0.227906879833289	657.859408018418	7.01805738458257	14.2545066827317	0.474682526815977	-0.467927478879732	-0.000182140873239534	-0.00180934068402877
0.29	-0.0311478719424907	-0.355087145359275	654.991330505936	6.87040051429974	14.3172872976634	0.537098072912895	-0.52923465281947	-0.00035980736213026	-0.00161570910156039
0.3	-0.153379091450698	-0.420414157807189	652.007062121857	6.68708145206466	14.3593971432154	0.606319829209859	-0.598207171771207	-0.000590145851991131	-0.00145135389583423
0.31	-0.188311701921908	-0.419361566574859	649.487658684278	6.49920325287389	14.3656623353954	0.676787348913407	-0.669048702296956	-0.000834629852955349	-0.0013584150859689
0.32	-0.122239233684934	-0.368352172321214	647.852758368949	6.33802654592843	14.3268367092313	0.743050808363969	-0.735806621138227	-0.00105195960421567	-0.00136445876983277
0.33	0.0313936294303561	-0.29879108153237	647.29433879623	6.22953298393939	14.2419034016403	0.800201730951582	-0.793025317960612	-0.0012053107208515	-0.00147695196931058
0.34	0.230827585262876	-0.247570968851425	647.758196115182	6.18995930491812	14.1186941810281	0.844267906042217	-0.836360216285986	-0.00126887968322653	-0.00168180756448799
0.35	0.413722014905439	-0.24654145594474	648.975095218879	6.22314257509751	13.9725017235498	0.87253567354941	-0.863044625576501	-0.00123246856601944	-0.00194656256457149
0.36	0.512415363401383	-0.313590264375487	650.53265677284	6.32015699946876	13.8229390831203	0.883770468730692	-0.872139463932561	-0.00110321980119954	-0.00222753002857556
0.37	0.472494760884096	-0.447539077559975	651.970722271543	6.46127434481116	13.6898313727691	0.878323004479297	-0.864552628309326	-0.0009041613350671	-0.00247918535846869
0.38	0.268980897364114	-0.628100789610739	652.879248636294	6.61983642124497	13.5892092364415	0.858124428309905	-0.842866726496419	-0.000669844030681044	-0.00266348532160099
0.39	-0.0850093001435469	-0.820879164560815	652.979242657475	6.76726936410084	13.5304078602364	0.826579442861287	-0.81103998377326	-0.000439930433642322	-0.00275695502696777
0.4	-0.539844100118058	-0.986107053494765	652.172791317581	6.87825392309527	13.5148944256539	0.788356240802798	-0.77403563114771	-0.000252019350272303	-0.00275413090507359
0.41	-1.02060090358567	-1.08883477373726	650.555840069898	6.93503142212443	13.536907240588	0.749049415705948	-0.737396630110923	-0.000135172878689027	-0.00266701457708596
0.42	-1.4444060904019	-1.10786522312389	648.394881877064	6.92999006204133	13.5854951917299	0.714670794956117	-0.706737712255013	-0.000105488472577187	-0.00252119294257525
0.43	-1.73890762738505	-1.0410273371229	646.074635575502	6.86603180280477	13.647257729048	0.690925354090547	-0.687106354957438	-0.000164616469022438	-0.00234991770863358
0.44	-1.8572707691242	-0.905342518027062	644.027509229087	6.75471387474015	13.7090585089686	0.682275660496632	-0.68219455864305	-0.000301430864650509	-0.00218760736488005
0.45	-1.7868320132768	-0.732034439592137	642.657271678272	6.61268673831899	13.760162760362	0.690894019229031	-0.693470041298591	-0.000496276134716034	-0.0020640255897047
0.46	-1.55068574613366	-0.557778351721894	642.26927487969	6.45737104462218	13.7935073345405	0.715724074286152	-0.719413657492645	-0.000726555807257556	-0.00199999916511484
0.47	-1.20306758961089	-0.414653373599768	643.01806182166	6.30299575506976	13.8060389156219	0.751970567032781	-0.755145025237925	-0.000972110751868982	-0.00200514739520313
0.48	-0.820016038260157	-0.321613091919853	644.880350134124	6.15798644037236	13.7981991700749	0.791341409664005	-0.792725720953865	-0.00121897311468877	-0.00207778244266971
0.49	-0.486688415073185	-0.279805545478679	647.657297346504	6.02427650882255	13.7727177254054	0.823234400188939	-0.822306817340257	-0.00146063898675519	-0.0022068744302714
0.5	-0.282535329088083	-0.272908110939648	651.005030718714	5.89854383201046	13.7329516367641	0.83680071817987	-0.834046802941364	-0.00169679405963508	-0.00237568346009964
0.51	-0.26586254062097	-0.272180363868491	654.487508735217	5.77483334044409	13.6811171076067	0.823505332712542	-0.820441882507575	-0.00193018805358636	-0.00256632161578341
0.52	-0.460178120492191	-0.244652563674113	657.642001862497	5.64767812150498	13.6168677151249	0.779560935592037	-0.778495940154148	-0.00216284719228932	-0.00276420505541164
0.53	-0.845591825830936	-0.162143459618147	660.045829547265	5.51476533273508	13.5367015800229	0.707547034280693	-0.711110864721725	-0.00239291347390591	-0.0029612507084395
0.54	-1.35857855209908	-0.00879551335096799	661.37387320513	5.37839633203649	13.4345435704455	0.616683637063333	-0.627234181265419	-0.0026131223186785	-0.00315690859553058
0.55	-1.9020512792987	0.214577503660923	661.43939379147	5.2453711517035	13.3035249130626	0.521563868548522	-0.540611657467092	-0.00281140422785975	-0.0033567218567534
0.56	-2.36498456623875	0.49010561714738	660.214730615035	5.1253624740369	13.1385474805553	0.439548042559265	-0.467350289775243	-0.00297349153500592	-0.00356891970071943
0.57	-2.64761048117334	0.78628623230959	657.832209200245	5.0282240187119	12.9388335793122	0.387355398759104	-0.422787279660597	-0.00308687844935362	-0.00380028342384786
0.58	-2.6857436015146	1.0643529274754	654.567984348901	4.96093042872329	12.7095045667624	0.377571157487328	-0.41831036650444	-0.00314512246196763	-0.00405286969432073
0.59	-2.4672346186222	1.28629590755525	650.812221923285	4.92493522718236	12.4614189316011	0.415793043006515	-0.458771898724833	-0.00315134292661945	-0.00432293594643041
0.6	-2.03538876983512	1.42303107472253	647.028427814575	4.91465153807244	12.2090177707902	0.499004019367586	-0.541016590647071	-0.00311989204393559	-0.00460262257885063
0.61	-1.47794841349671	1.46115758056713	643.703918014206	4.91751867786638	11.9666132693304	0.615529099691371	-0.653847268085619	-0.0030755405122207	-0.00488387791841305
0.62	-0.904639256527454	1.40684929513148	641.293540529204	4.91575303529647	11.7441603065251	0.746658483344198	-0.779517225157111	-0.00305008812347451	-0.00516318299308571
0.63	-0.419716794984178	1.28578864998869	640.160431869886	4.88946406493714	11.5438266466852	0.869725711203459	-0.896578567076127	-0.00307697001385576	-0.00544523551898668
0.64	-0.0971856411819797	1.13876283969655	640.52045919191	4.82044810262783	11.3584948138129	0.962143544253569	-0.983649859118419	-0.00318501255448267	-0.00574407071589472
0.65	0.0349466402138346	1.01356184929747	642.399716346858	4.69576675477588	11.1727433715245	1.00566340845038	-1.02343202530168	-0.00339280715238022	-0.00608101027528224
0.66	-0.00179632384812649	0.95489815835384	645.615213225954	4.51025625955121	10.9660886624717	0.990000105172355	-1.0061646927403	-0.00370507229054684	-0.00647995758754588
0.67	-0.144506251446105	0.994807738171117	649.786383133566	4.26741211404906	10.7176122717342	0.91501888492791	-0.931748530693421	-0.00411184367702577	-0.00696142730184673
0.68	-0.305326203993303	1.14601446929437	654.379179606075	3.97856912625628	10.410785997185	0.790949016753091	-0.810001076486159	-0.00459051112227638	-0.00753697520880298
0.69	-0.391557071398471	1.39991394695656	658.776871266943	3.66079211120658	10.0374061713261	0.636528791965916	-0.658931611041266	-0.00510988588827699	-0.00820533430040926
0.7	-0.325151699254018	1.72939857741709	662.364803220423	3.33422355530888	9.59995594255028	0.475487142431134	-0.501404377824142	-0.0056349498479572	-0.0089508134903572
0.71	-0.0585080085470673	2.09525164109757	664.613002616357	3.01967139052552	9.1122126417491	0.332170907036316	-0.36095551677438	-0.0061309273134672	-0.00974377490563366
0.72	0.415298684050311	2.45389395852228	665.141957310127	2.73695055297984	8.59830016795913	0.227300770213341	-0.257705260421323	-0.00656584168497776	-0.0105426069311223
0.73	1.05889358786101	2.76424641095744	663.762627079663	2.50403927448847	8.09055047851695	0.174732068569175	-0.205211783098147	-0.00691154614370837	-0.0112966564808573
0.74	1.79416355564397	2.99232198464248	660.48941585707	2.33668462126649	7.62651491279038	0.17976349613532	-0.208798333086193	-0.00714397605608907	-0.0119499185468274
0.75	2.5130209451781	3.11342947460746	655.531349930971	2.24789191538038	7.24537487875791	0.239109259549079	-0.265477933631	-0.00724370668246566	-0.0124455995818303
0.76	3.09442014164725	3.1129302869678	649.269616981417	2.24685434499091	6.98396526220959	0.342275678391665	-0.365241165328188	-0.00719764841764614	-0.0127317040899937
0.77	3.42532331260003	2.98684436833898	642.22819661066	2.33726565504093	6.87269618028311	0.473861511221187	-0.493257231869589	-0.00700197954324533	-0.0127674554170154
0.78	3.42200557796533	2.74312160531894	635.039850126846	2.51542860030237	6.93180073205147	0.616253286932971	-0.632485749496437	-0.00666553531074854	-0.0125297925888224
0.79	3.04742528999503	2.40336982883625	628.404929735311	2.76890302476132	7.16845015003176	0.75226466232496	-0.7662610211243	-0.00621224951811772	-0.0120186733608799
0.8	2.32079126676996	2.00381993037625	623.038155234111	3.07646814720835	7.57526825854942	0.867394961070749	-0.880520627634015	-0.0056811828161264	-0.0112597466560114
0.81	1.31696190961706	1.59387283254737	619.600356968346	3.40987047896119	8.13060716065023	0.951493545441964	-0.965450069229396	-0.00512323915738189	-0.0103032806527313
0.82	0.155504796514698	1.23100774776852	618.617893486367	3.73729701070213	8.80065432892177	0.999690729755262	-1.01638729568472	-0.0045946772174007	-0.00921898351797434
0.83	-1.01853420964306	0.972029988946486	620.399831495794	4.02794941823985	9.54311777954496	1.01250940233273	-1.03389305763679	-0.0041485990080653	-0.00808729736293534
0.84	-2.0584930476569	0.862136547558258	624.96887547903	4.25670637020959	10.3119726325403	0.995139760023961	-1.02297657893867	-0.00382634642569046	-0.00698858596143537
0.85	-2.84028276266364	0.924458651729609	632.023697447032	4.40778637741095	11.0625996643437	0.955968870807514	-0.991590054828679	-0.00365088566245608	-0.00599213971057538
0.86	-3.2828882045376	1.1530873221097	640.94654304557	4.47658516649683	11.7566021227359	0.904603912999499	-0.948658836699446	-0.00362375899993661	-0.0051469928594518
0.87	-3.36205200826333	1.51190334951392	650.861600539357	4.46936295107188	12.365619741647	0.849775152617935	-0.902054238782734	-0.00372621448147792	-0.00447623043141943
0.88	-3.11509303289396	1.94001776030105	660.739057179542	4.40102421936194	12.8735466285539	0.797591974181827	-0.856983278743319	-0.00392402175716189	-0.00397587291519674
0.89	-2.63583480076438	2.36279855632501	669.530052823328	4.29168041624181	13.2767136295954	0.750595353521355	-0.815213734041642	-0.00417460710651973	-0.00361868591331571
0.9	-2.0596167999413	2.70593899051755	676.311297778992	4.16288478585671	13.581851654054	0.70787761048165	-0.7753587111581	-0.00443474440327341	-0.0033624533761194
0.91	-1.53955842848698	2.90930252084351	680.416030300276	4.03434895582453	13.8020348500035	0.666251980536126	-0.734149647284001	-0.0046671809121307	-0.00316143411651998
0.92	-1.21684243876185	2.93753682536777	681.529964644684	3.92166546268562	13.9512836712099	0.622130574104081	-0.688315928100599	-0.0048451200962184	-0.00297896565413458
0.93	-1.18970118475591	2.78550123665288	679.735889407908	3.83520507032071	14.0389856568705	0.573519798339216	-0.636471035236444	-0.00495417253586616	-0.00279861916347185
0.94	-1.48752012343441	2.47795707260598	675.497615824864	3.78006693863138	14.0656027812083	0.521467106059782	-0.580369004549704	-0.00499196875181562	-0.00263114073017562
0.95	-2.05716984368139	2.06422861732456	669.582490284567	3.75680924961687	14.0211042410025	0.470439298095713	-0.525073454833963	-0.00496596218789436	-0.00251484567077426
0.96	-2.76747132797498	1.6093069421176	662.931357737899	3.76267168635138	13.8870827152609	0.427449145673721	-0.477929344030041	-0.0048900444936717	-0.00250828041217216
0.97	-3.43417236747743	1.18307265589966	656.494977772597	3.79305165183144	13.6426081216374	0.400166561872797	-0.446630927494008	-0.00478056489266643	-0.00267573805638938
0.98	-3.86241239493342	0.849154970366225	651.064780196343	3.84303388232903	13.272745079691	0.394604188597873	-0.436993419854743	-0.00465232364122758	-0.00306824693326851
0.99	-3.89779504680814	0.654734183382104	647.130902500674	3.90875707213917	12.7776455491399	0.413121130856257	-0.45114082075058	-0.00451515585191953	-0.00370436487651188
1	-3.47291560003579	0.622548316596129	644.798956316529	3.98835271601458	12.1795963814631	0.453380573903805	-0.486675222655618	-0.00437178373980518	-0.00455587922956402
1.01	-2.6354321221556	0.746452201383846	643.787391203065	4.08218011627572	11.5256147794667	0.508568580783943	-0.537051147211892	-0.00421756131560169	-0.00554290370839822
1.02	-1.54747739181438	0.991827539828327	643.510506535106	4.19217964142555	10.8841777371873	0.568764294171037	-0.592979891827313	-0.00404244325778436	-0.00654085167422525
1.03	-0.45377581281932	1.30161769946453	643.23171626622	4.32039669311109	10.3362100315427	0.623010713201356	-0.644391415118363	-0.00383496075242973	-0.00739880086703021
1.04	0.37490331223215	1.60761236977733	642.253201440556	4.46703570174422	9.96209390409219	0.661491964218759	-0.682390031991322	-0.003587314871772	-0.00796566812814742
1.05	0.708391471435228	1.84505531168056	640.097412720789	4.62866604409806	9.82768721268483	0.677302232383957	-0.700760238012337	-0.00330015396452277	-0.00811832245028954
1.06	0.415507671195449	1.96726000431974	636.636906491108	4.79728722397786	9.97273494954648	0.667517882740895	-0.696820356266107	-0.00298544853674998	-0.00778502433907086
1.07	-0.502329962640771	1.95636121728158	632.142036698805	4.96079097416118	10.4044711051482	0.633531065097439	-0.671653342922225	-0.00266626013094373	-0.00695867667715966
1.08	-1.91174165761599	1.82703029762635	627.237402139908	5.10495571123592	11.0977905352463	0.580762386145382	-0.629864872466443	-0.00237305995019477	-0.0056970202016679
1.09	-3.58175738154555	1.62186416244477	622.781093743363	5.2165973977055	12.0015588657	0.517904304040998	-0.579005529353896	-0.00213732715487192	-0.0041103159634977
1.1	-5.24173794745709	1.39962776282787	619.698570035542	5.28705947747467	13.0489973483064	0.455795547562277	-0.528702825779011	-0.00198407701343828	-0.00234018749656867
1.11	-6.64639745784241	1.21970523550206	618.810396691539	5.31501900137805	14.1691452507269	0.405972405671857	-0.489474556299239	-0.00192540163877497	-0.000535211273433978
1.12	-7.63041310952993	1.12720156193928	620.689047227145	5.30770483604091	15.2964365764579	0.378956383949785	-0.471213117764448	-0.00195688279133521	0.00117095756855107
1.13	-8.13917705467416	1.14276116649164	625.567469606964	5.28004271450208	16.3763613748984	0.382437197274327	-0.481454015490403	-0.00205792115221137	0.00267456344280553
1.14	-8.22971827237115	1.2595218246144	633.30662338738	5.25182943260944	17.3666416593654	0.41964908359861	-0.523714202072251	-0.00219589325109126	0.00390790795995333
1.15	-8.04412464078289	1.44734644935263	643.416089774077	5.24360215645415	18.234816927003	0.488331761725705	-0.596310781795099	-0.00233297613658956	0.00483734573947014
1.16	-7.7645166541679	1.66238312457315	655.114414143641	5.27222624114993	18.9541350120909	0.580637589796786	-0.692062875624717	-0.00243381355655536	0.00545573016161588
1.17	-7.56225263977861	1.85874482428171	667.414393955158	5.34727310491148	19.4999181763259	0.684168042154831	-0.799110807376673	-0.00247211429149574	0.00577279632464095
