Time [s]	GRFml [N]	GRFap [N]	GRFv [N]	Mml [N.m]	Map [N.m]	Mv [N.m]	Mfree [N.m]	COPml [m]	COPap [m]
0.01	18.9983169420605	-4.4059584955946	572.185066282658	-5.82913529707633	-18.0463618151961	4.62156695086838	-4.9540025641414	0.00451091273406534	-0.00495826027982194
0.02	18.7674953755293	-4.39051280175934	573.815270327385	-5.85789013638421	-18.0930106670761	4.5680926024092	-4.8981613856381	0.00449088346470128	-0.00494928492532332
0.03	18.5597346730408	-4.35535276172903	575.227302860421	-5.87768848099078	-18.1443428906588	4.52162368180956	-4.84879960524435	0.00448271084325846	-0.00496035113246901
0.04	18.4004108173462	-4.28206286456581	576.237051268824	-5.88256869594436	-18.2043548174502	4.48843161256572	-4.81178263872136	0.00449361768432388	-0.00500849602588399
0.05	18.317567478361	-4.16161721098238	576.719510739764	-5.87002190014357	-18.2770247043605	4.47330499006877	-4.79187940770415	0.0045258494342828	-0.00510762300978873
0.06	18.3389660340271	-3.99586881720593	576.624809762227	-5.84103605268122	-18.3660267969121	4.4787514531153	-4.79197523524487	0.00457687650925931	-0.00526713141502999
0.07	18.4858228754949	-3.79659520920092	575.981940565201	-5.7990716087254	-18.4740071269607	4.50438151228783	-4.81233431912237	0.00464123733864219	-0.00549039388169537
0.08	18.7651754189775	-3.58320029022644	574.889853014176	-5.74846278954872	-18.6015981480752	4.54676667375076	-4.85027277356529	0.00471315716089982	-0.00577342429491257
0.09	19.1637204300108	-3.38017667246157	573.498222845478	-5.69289273309183	-18.746509642168	4.59995023266466	-4.90050019902512	0.00478885621581793	-0.00610422895919782
0.1	19.6457834508689	-3.21479764062098	571.982246403124	-5.63445994589248	-18.9030677726592	4.65654553877331	-4.95611604309649	0.00486772482771525	-0.00646328769888321
0.11	20.1568812715407	-3.11473122494902	570.516527008079	-5.57354144343241	-19.0624644284679	4.70911206934204	-5.0099560936685	0.00495209896101911	-0.00682537611151257
0.12	20.6325587486152	-3.10489132194273	569.252394744469	-5.50932972625286	-19.2137651029063	4.75138364452986	-5.05583056575634	0.00504592888677002	-0.00716259273145847
0.13	21.0104488156923	-3.20313538335643	568.301342861522	-5.44071504052034	-19.345485835904	4.77899684956637	-5.08925837494744	0.00515296221369332	-0.0074481119242652
0.14	21.2424323636552	-3.41524449816894	567.725478531723	-5.3671569118225	-19.4473752337717	4.78959506820888	-5.1075482162405	0.0052750773035527	-0.00765995748630777
0.15	21.3037306771552	-3.73051580653529	567.53465673511	-5.28930439096283	-19.5119852182225	4.78245333879431	-5.10938104121303	0.00541117756669118	-0.00778405379524738
0.16	21.1967341148401	-4.11973440453802	567.689525959693	-5.20929065427959	-19.5356935924867	4.75795391911748	-5.09426202570507	0.00555675688036195	-0.00781596919124822
0.17	20.9489736361799	-4.53696883768564	568.109795945949	-5.13074953897123	-19.519013506101	4.71726012646623	-5.06223476440135	0.00570403378095652	-0.00776106806425486
0.18	20.6062817251885	-4.92561822574125	568.687109336446	-5.05862868899729	-19.4662213208435	4.66238557568111	-5.014080774978	0.00584250724861635	-0.00763314277981642
0.19	20.2233022298218	-5.22781863835873	569.301533412364	-4.99882039493552	-19.3844873778784	4.59661147295862	-4.95194645721406	0.00595987784587992	-0.00745190469112406
0.2	19.853786851528	-5.39520307396279	569.839842506724	-4.95756192187281	-19.282761303834	4.52497809143469	-4.88007623261962	0.00604338938902238	-0.00723989704586964
0.21	19.5426162369289	-5.39850651582445	570.212812922447	-4.94054799712368	-19.1706395714221	4.45446933523759	-4.80520259734011	0.00608165028969776	-0.00701941579599036
0.22	19.320566090815	-5.23375712942476	570.36828044267	-4.95179001159596	-19.0573567229047	4.3935728088652	-4.7362116879594	0.00606682695397232	-0.00680990165717071
0.23	19.201963019909	-4.92365817610739	570.297167460206	-4.99242625515479	-18.9509406354268	4.35111513318206	-4.6829479745745	0.00599681140082065	-0.00662605656991772
0.24	19.1848589593468	-4.51392128677764	570.031132462834	-5.05985174214489	-18.8575027750277	4.33456408668931	-4.65435341604737	0.00587669894429033	-0.00647672099570573
0.25	19.2532297279873	-4.06540722210501	569.63253654882	-5.14758891534697	-18.7806227756865	4.34824172395592	-4.65642579985166	0.0057188497358267	-0.00636439815904594
0.26	19.3807562852865	-3.64370885032807	569.179375047652	-5.24618951657616	-18.7208293109591	4.39200013218493	-4.69060945531466	0.00554106698706369	-0.00628526438650878
0.27	19.5357043574973	-3.30816894500303	568.749007252361	-5.34515185281836	-18.6752469733852	4.46081960777355	-4.75313955034075	0.00536297950269071	-0.00622955126873631
0.28	19.6861719587542	-3.10228804046956	568.404548105379	-5.43545667463043	-18.6375332951153	4.54552147113136	-4.83557625518508	0.00520138508771428	-0.00618228019290284
0.29	19.8046791050434	-3.04713155424943	568.1867163781	-5.51202347541563	-18.5982421847092	4.6344410828673	-4.92639369002408	0.00506582358305807	-0.00612441714320272
0.3	19.8710426741503	-3.13877624373612	568.112197250473	-5.5753074347689	-18.5457106279745	4.71561206249957	-5.01317246574805	0.00495576375623796	-0.0060345517196187
0.31	19.8729405959279	-3.35011116991301	568.177764744317	-5.6314548546254	-18.4674819167219	4.77887997031531	-5.08479949896407	0.00486041169163176	-0.00589116583114785
0.32	19.8044514464381	-3.63650622522399	568.368026923185	-5.69085931984896	-18.3521654111418	4.81743403693589	-5.13314538075285	0.00476137992669223	-0.00567543987501157
0.33	19.66375958548	-3.94411095024339	568.663985940103	-5.76546658521531	-18.1915061257852	4.82847696009534	-5.15392096325832	0.00463755680917621	-0.00537436030991112
0.34	19.4516215852229	-4.21902803783041	569.04970566947	-5.86558296584091	-17.9823191681191	4.81304360928371	-5.14670405707328	0.00447080310867876	-0.00498367914808368
0.35	19.1717730779758	-4.4154922294249	569.515162925303	-5.99710445637235	-17.7278689133123	4.77521608612981	-5.11435884644962	0.00425083238151258	-0.00451010085259235
0.36	18.8333204379479	-4.50155111570295	570.054636988049	-6.15994552765584	-17.4382855460551	4.72108728979951	-5.06216983522958	0.00397789907852852	-0.00397202562268395
0.37	18.4538311463402	-4.46150360651953	570.66147864909	-6.34805879284351	-17.129747924968	4.65778275354897	-4.99696887870361	0.00366262839134956	-0.00339833825383318
0.38	18.0610000953636	-4.29526807144496	571.321404700199	-6.5509373568439	-16.8224204326253	4.5927061152972	-4.92639757285216	0.00332322426406872	-0.00282511618564529
0.39	17.6909316725283	-4.01562539338154	572.00716351651	-6.7560533021534	-16.5374569006797	4.5330066142266	-4.85829810672913	0.00298107487516097	-0.00229066215816504
0.4	17.3822930746006	-3.64466696251458	572.67720121312	-6.95145272669121	-16.2936756289244	4.48515478884266	-4.80013695113453	0.00265617835017606	-0.00182978389200134
0.41	17.1674146583382	-3.21067245791137	573.279786619916	-7.12776504343117	-16.1046560528853	4.45449778542387	-4.75837249524422	0.00236372056166079	-0.001468554978934
0.42	17.0630680727147	-2.7461153753702	573.762235592243	-7.2791578163803	-15.9769392927109	4.44474056372575	-4.73776349909951	0.00211261785989203	-0.0012207596644217
0.43	17.0643761782596	-2.28674932613572	574.082995336892	-7.40316377945892	-15.9097353040768	4.45741306408438	-4.74072313295464	0.00190610360464505	-0.00108682773523439
0.44	17.1446711653357	-1.87103780868945	574.223063761496	-7.49967725179754	-15.8961300050893	4.49147030092894	-4.76688734557862	0.00174375952191363	-0.00105541474785703
0.45	17.2622317465703	-1.5388210192172	574.193007825274	-7.56964092846074	-15.9253762531204	4.54318621263733	-4.81304730465807	0.00162399541588509	-0.00110708031904277
0.46	17.3723426235637	-1.32824738885063	574.032832934842	-7.61396485867209	-15.9855730666654	4.60643892093097	-4.87350263428647	0.00154596483142944	-0.0012189837270451
0.47	17.4409769154043	-1.27065543411083	573.803872372652	-7.63305760114687	-16.0659735125414	4.67338059162994	-4.94077458964329	0.00151022876498363	-0.00136931304405297
0.48	17.4554831974137	-1.38408429331357	573.57415060639	-7.62708245529684	-16.1583281720725	4.73539019549953	-5.00653475424473	0.00151799704750544	-0.00154034404121023
0.49	17.428410020131	-1.66704731383207	573.400663689516	-7.59677817063677	-16.25701206438	4.78415770266542	-5.06258792798143	0.00156930030527469	-0.00171952255655822
0.5	17.3928360750922	-2.09469310021001	573.313141451752	-7.54448901300336	-16.3580916150607	4.81274734843267	-5.10178796955378	0.00166081264408902	-0.00189862112201761
0.51	17.3905242753445	-2.61920546709297	573.303770984913	-7.47498270631825	-16.4578389425465	4.81651385320711	-5.11882268842745	0.00178416277146975	-0.00207163555292256
0.52	17.4568127185352	-3.17525361808724	573.326040779024	-7.39570238076095	-16.5513832979976	4.79377302232758	-5.1108381793764	0.00192542784329597	-0.00223247020894018
0.53	17.6074250593932	-3.68982144370606	573.303608573933	-7.31626885240688	-16.6321407285955	4.74614615351685	-5.07786915444028	0.00206616037626117	-0.0023734872215046
0.54	17.8318225468038	-4.09435323044262	573.147481368173	-7.24726867976499	-16.6923878744143	4.67851405333942	-5.0230153567311	0.0021858594015477	-0.0024856449749201
0.55	18.0954837624096	-4.33637014074706	572.777550500683	-7.19857296519107	-16.7249219828388	4.59854634231338	-4.95228607851254	0.00226537991947795	-0.00256032332702977
0.56	18.3503564635846	-4.38782438582371	572.143318392031	-7.17758149727863	-16.72531095048	4.515822552208	-4.87405023218996	0.00229048198629789	-0.00259222754617755
0.57	18.5498034220959	-4.24841437659284	571.238869661674	-7.18784031051428	-16.6939384572604	4.44062697141684	-4.79808480165951	0.00225462499697204	-0.00258222898609434
0.58	18.6627413475407	-3.94353065473259	570.108719828374	-7.228418142086	-16.6370137747188	4.3825641384614	-4.73429834716306	0.00216024932446612	-0.00253885736264736
0.59	18.6819829118106	-3.51793260663913	568.843621015904	-7.29425009212138	-16.5659877272482	4.34919100581283	-4.6912968424937	0.00201814524015576	-0.00247751006379854
0.6	18.6239619358497	-3.02720203793587	567.567939468653	-7.37739690368156	-16.4953302525673	4.34488369400214	-4.67503104016812	0.00184501728724695	-0.00241721414526891
0.61	18.5202608600845	-2.52921482641728	566.42205257476	-7.46889262930307	-16.4392139407515	4.37014238901213	-4.68779194587567	0.00165987753685992	-0.0023757149474728
0.62	18.4044390566043	-2.07733288624287	565.543808727667	-7.56065305280285	-16.4080942957899	4.42147994859606	-4.72778285427345	0.00148027204823098	-0.00236441816795485
0.63	18.2993872244232	-1.71602569366756	565.05236818576	-7.64687650446801	-16.4062954105318	4.49193826440049	-4.78938734491807	0.0013194101122338	-0.00238495826268253
0.64	18.2101315978685	-1.47861222764271	565.036111035427	-7.72452604135129	-16.4314258677611	4.57214787285949	-4.86409378065184	0.00118496484984965	-0.00242875507740292
0.65	18.1248045437227	-1.38617750848877	565.54452686581	-7.79280177022789	-16.4758447263703	4.65172588083757	-4.94187607217671	0.00107972294041803	-0.00247995450154259
0.66	18.0232576202271	-1.44668745926159	566.58289754755	-7.8518860324011	-16.5296852692957	4.72073744688155	-5.01272571238146	0.00100358581880922	-0.00252096067837526
0.67	17.8897840213536	-1.65385589840932	568.108626273373	-7.90152691247365	-16.5843916355583	4.7709554823705	-5.06802184379824	0.000955928187266863	-0.00253879932489587
0.68	17.7247916819832	-1.98611608929357	570.029149652258	-7.94009343047349	-16.6355440827138	4.79673904544595	-5.10151531600557	0.00093721632898458	-0.00253018208922606
0.69	17.5506274281463	-2.40670492811196	572.202837023317	-7.96454440155019	-16.6840157565282	4.79547687910355	-5.10984814299896	0.000949143380715722	-0.00250353110540186
0.7	17.4089391938762	-2.86602590588972	574.445229450231	-7.9713662331836	-16.7351196404055	4.76765527508594	-5.092667409906	0.000993222801236038	-0.00247724484753475
0.71	17.3501426232158	-3.30697316849734	576.542700250661	-7.95810774107648	-16.7961371843304	4.71666398673029	-5.05246617260632	0.00106851240125305	-0.0024747720500633
0.72	17.4185349549893	-3.67291030642764	578.273986911621	-7.92485629280898	-16.8731939201753	4.64843566007256	-4.99427110303533	0.00116959829115049	-0.00251813702851383
0.73	17.6382531051458	-3.91688135719482	579.437551250478	-7.87499023357349	-16.9686477949909	4.57094610003623	-4.92521932126205	0.00128593461393978	-0.00262203124216021
0.74	18.004973490342	-4.00986267521873	579.880307883015	-7.81482221382052	-17.0799130308335	4.49353398909287	-4.85397954623738	0.00140310487782258	-0.00279028656487224
0.75	18.4861091087933	-3.94581704694513	579.521908017744	-7.75220281972593	-17.2000584045416	4.42598051313662	-4.78993553068044	0.00150576092850629	-0.00301560593165284
0.76	19.0291114840846	-3.74208555685835	578.369115393904	-7.69458901783175	-17.3198297183043	4.37734721954922	-4.74209734526555	0.00158125520565067	-0.00328222425992486
0.77	19.5745810451331	-3.43500657553763	576.51689077947	-7.64730802237602	-17.4302274579252	4.35468770484502	-4.71782713010703	0.00162263782665739	-0.00357018116202379
0.78	20.069381060251	-3.07208468637914	574.135986835596	-7.61266471907712	-17.5246249936437	4.36187062203998	-4.721604735825	0.00162990075453984	-0.00385948558695826
0.79	20.47539627297	-2.70299444562841	571.450081794974	-7.59018339862296	-17.5996858873699	4.39881007009517	-4.75414037404329	0.0016090364465865	-0.00413276907646876
0.8	20.7717041050575	-2.37183230225024	568.707646408441	-7.57779392619559	-17.6549014590747	4.46134853763258	-4.81211002151323	0.00156935325413143	-0.00437588639211894
0.81	20.9507687433668	-2.11230854107573	566.154155252548	-7.57337313356724	-17.6911747228241	4.54187991698256	-4.88863949646869	0.00152018709960278	-0.00457693587059216
0.82	21.0116191391576	-1.94632971316008	564.008939800546	-7.57590586137611	-17.7092667477865	4.63059084489143	-4.97444751130403	0.00146837266655542	-0.00472489270891868
0.83	20.9539092939438	-1.88518148150276	562.448642357676	-7.58570434380229	-17.7089373223032	4.71702158384127	-5.05936433869351	0.00141748564543331	-0.00480917060994251
0.84	20.7760046924479	-1.93176329554975	561.596918333037	-7.60355355434572	-17.6892563266973	4.79157550397094	-5.13385151278571	0.00136907678793896	-0.00482090952520514
0.85	20.4782035267946	-2.08229767588765	561.518654408855	-7.62915769283967	-17.6499941622194	4.84666542639213	-5.19019324299214	0.00132521219130666	-0.00475586527908695
0.86	20.0697538362652	-2.32657788097295	562.216894785333	-7.65963196713215	-17.5934638856818	4.87734400448534	-5.22318426419862	0.0012909958945384	-0.00461785992530472
0.87	19.5764281727996	-2.64681858756229	563.631645047068	-7.68884522544506	-17.5259130290607	4.88145113119721	-5.23032847663318	0.00127566719768823	-0.00442124788450493
0.88	19.0447793407934	-3.01611772095385	565.64108633237	-7.70812661111771	-17.4576688286411	4.85944545402045	-5.21170609129892	0.00129140127097327	-0.00419099687499985
0.89	18.5400765029645	-3.39805263375399	568.066759213539	-7.70830637588676	-17.4016904698263	4.81412006098435	-5.16971070146015	0.00134990295604087	-0.00395973839871505
0.9	18.1370373372992	-3.74880939892895	570.684495628381	-7.68248355416916	-17.3708010073951	4.75033282893016	-5.1087967587401	0.00145788529729807	-0.00376222083307004
0.91	17.9051106078926	-4.02248570882992	573.24218766314	-7.62854337128702	-17.3744176129888	4.67475323620867	-5.03525289408655	0.00161314539232482	-0.00362857831460256
0.92	17.8922778777223	-4.17904052346256	575.484092752826	-7.55045041862388	-17.4158575471639	4.59550791447318	-4.9568936971481	0.00180290984073028	-0.00357832963381
0.93	18.1122808317121	-4.19317956943187	577.179660759756	-7.45773576924533	-17.4911641916214	4.521561919464	-4.88250703806496	0.00200540241671754	-0.00361685072493717
0.94	18.5394190768957	-4.06171387018387	578.153248624407	-7.36323337950518	-17.5899158829641	4.46173602622228	-4.82094337770141	0.00219444740779684	-0.00373528706086884
0.95	19.1128136978353	-3.80695464191173	578.309965901049	-7.2797571257136	-17.697823588408	4.42341771244545	-4.7798793386127	0.00234579906173227	-0.00391377843542279
0.96	19.7490906714351	-3.47460037454369	577.652622816125	-7.21679714273034	-17.8003294821953	4.41121123869489	-4.76447305050931	0.00244321649823986	-0.00412685673720209
0.97	20.3598729057774	-3.12608938945922	576.285574686959	-7.17830457193346	-17.8860999218668	4.42590070001786	-4.77626706344708	0.00248234462325059	-0.00434930055572952
0.98	20.8691787705172	-2.8270289292991	574.40320691683	-7.162236549598	-17.9493713036625	4.46409362728563	-4.81270794867453	0.00247119799765172	-0.00456076566560576
0.99	21.2261864324001	-2.63449404592965	572.263619566997	-7.16190715627267	-17.9905212828064	4.51875009788967	-4.86751095570139	0.00242719378569545	-0.00474810091761585
1	21.4105904533531	-2.5863019182446	570.151178142561	-7.16857623232686	-18.0148420355403	4.58053326886805	-4.93184426087998	0.00237181094571381	-0.00490515135176717
1.01	21.4302418674015	-2.69472104467477	568.33422698699	-7.17433209400771	-18.0300690325839	4.63964575147096	-4.9960386204181	0.00232465801243387	-0.00503070521020477
1.02	21.3130662077601	-2.94573091451952	567.025650935959	-7.17430948878187	-18.0435745562116	4.68765435520414	-5.05135649028628	0.00229878154881258	-0.00512576693233024
1.03	21.0966853377743	-3.30339808746485	566.353610743061	-7.16761021300191	-18.0601655919249	4.71882145263916	-5.09135259559909	0.00229846682238222	-0.00519138770702227
1.04	20.8193572053331	-3.71770167171242	566.3476201944	-7.15681454606111	-18.0811424046235	4.73064714419095	-5.1125246603228	0.00231982521307827	-0.00522788987298234
1.05	20.5148247495974	-4.13358357045275	566.941678043048	-7.14648001400811	-18.1047903312938	4.72360476359148	-5.11421596028325	0.00235350120815858	-0.00523565740210452
1.06	20.2118312115618	-4.49919531526429	567.992368307223	-7.14133361500126	-18.1279644804873	4.70031173111508	-5.09798138458079	0.00238821197370365	-0.0052169805782934
1.07	19.9370687668902	-4.77206217806518	569.306813917721	-7.14487518450894	-18.1480582772535	4.66452188902587	-5.06676893307053	0.00241375289958401	-0.00517797774961026
1.08	19.718903420725	-4.92281056463111	570.673994963076	-7.15884143697704	-18.1645431201079	4.62030992482275	-5.02425347492971	0.00242255051235851	-0.00512952879577477
1.09	19.5889138210711	-4.93682307347351	571.893531496203	-7.1835568138612	-18.1794587854153	4.57166347176951	-4.97450891742311	0.00240960752979946	-0.00508647554819447
1.1	19.5792558059354	-4.81446536756706	572.798175611008	-7.21880019923505	-18.1966526286507	4.52247586051488	-4.92199152903942	0.00237143368979342	-0.00506496931810385
1.11	19.7157825196843	-4.57037420636979	573.268979737894	-7.26461382651644	-18.2200599923728	4.47673636724254	-4.87162635282506	0.00230497043825328	-0.00507856347579849
1.12	20.0089667086403	-4.23191863465824	573.244237495685	-7.32155839226756	-18.2517064264367	4.4386260911971	-4.82872083126383	0.00220741758136345	-0.0051342046439628
1.13	20.4461070201621	-3.83664001166059	572.723954946764	-7.39024240726249	-18.2902425742024	4.41228329309904	-4.79850791783088	0.00207729569137938	-0.00522945317717727
1.14	20.9883971754904	-3.42845550892438	571.77063270807	-7.47038021000784	-18.3306311427276	4.40117873648003	-4.78531416643724	0.00191628222865825	-0.00535196317316611
1.15	21.5750509953375	-3.05269818722165	570.505201094481	-7.55996615805582	-18.3651489386356	4.40726140870952	-4.79157012039307	0.00173070901301842	-0.00548154133260847
1.16	22.1342606455589	-2.75049975312685	569.095350128002	-7.6552270291915	-18.3853132874625	4.43019593277622	-4.81702339579538	0.00153143369445696	-0.00559421136833249
1.17	22.5982104495363	-2.55335551501693	567.733587289969	-7.75176723939099	-18.3839150138751	4.46703456345716	-4.85850075462593	0.00133124874027757	-0.00566696007343898
1.18	22.9176587426712	-2.47877066621187	566.604849543075	-7.84682230013276	-18.3562333430568	4.51253027898047	-4.91038647876561	0.00113996329767141	-0.00568153649329411
