Time [s]	GRFml [N]	GRFap [N]	GRFv [N]	Mml [N.m]	Map [N.m]	Mv [N.m]	Mfree [N.m]	COPml [m]	COPap [m]
0.01	18.1974124082206	-5.54668848606663	631.159315163644	-67.322244984836	8.42565377021089	0.365740756102161	2.38092869119756	0.00124343610111275	-0.00279453968083211
0.02	17.4958802616894	-5.42262623461948	630.6231996209	-67.1888033963086	8.46488239652052	0.305374264762611	2.24235907306083	0.00131919874168865	-0.00291296819214713
0.03	16.8094826828029	-5.30167381131348	630.096334634534	-67.0569987078839	8.50223740043886	0.246065033680099	2.10665267940908	0.00139180244661388	-0.00303028126062727
0.04	16.1520159443549	-5.18658471345844	629.587970279388	-66.9284758516383	8.53620389774352	0.18890272656278	1.97640036508149	0.00145863116385139	-0.00314544882862222
0.05	15.5362791657176	-5.07997398874229	629.106740850417	-66.8047109704752	8.56534471062549	0.134922815931151	1.85402185294878	0.00151720276004992	-0.00325761389095076
0.06	14.9735531365725	-4.98421166857743	628.660348653039	-66.686963759854	8.58836909259818	0.0850697706867741	1.74167376182366	0.00156528646880516	-0.0033661119233666
0.07	14.4731605777837	-4.90132556572973	628.255295155128	-66.5762413086048	8.60419357417025	0.0401639801773204	1.64117048875632	0.00160100713065332	-0.00347047915332839
0.08	14.0421303259809	-4.83291823045796	627.896672286778	-66.4732750351012	8.61199151397324	0.000873917411185032	1.55392169845677	0.00162293028920444	-0.00357044982933392
0.09	13.6849807848	-4.7801022060942	627.588022934978	-66.3785114944726	8.61122873512748	-0.0323051957486423	1.48088919359668	0.00163012352385205	-0.0036659433701459
0.1	13.4036301905045	-4.74345682588559	627.331275483744	-66.292116963605	8.60168354094763	-0.059065276766712	1.42256482450008	0.00162219095598012	-0.00375704290135059
0.11	13.1974333847479	-4.72300869198945	627.126752894139	-66.2139948587997	8.58345036986997	-0.0792912591500641	1.37896991378829	0.00159927954733981	-0.00384396717084547
0.12	13.0633374115695	-4.71823673770494	626.973252602939	-66.1438142708518	8.55692730374315	-0.0930588101705001	1.34967549337396	0.00156205750141149	-0.00392703815132711
0.13	12.9961418148816	-4.72810147123582	626.868189719409	-66.0810472718528	8.52278853104354	-0.10062416867832	1.33384154967677	0.00151166667313168	-0.00400664677792448
0.14	12.9888443568506	-4.75109671587523	626.807792848003	-66.025012203019	8.48194364169986	-0.102406788842328	1.33027251448357	0.0014496522948664	-0.00408321923828259
0.15	13.0330492389574	-4.78532097973906	626.787339531452	-65.9749199231122	8.43548625882301	-0.0989658353362842	1.33748547965271	0.00137787446174519	-0.00415718604631425
0.16	13.1194128972533	-4.82856458387361	626.801416895373	-65.9299199941431	8.38463497229013	-0.0909718651869176	1.35378709542577	0.00129840663577863	-0.00422895581142976
0.17	13.2381020564897	-4.87840791440034	626.844192612967	-65.8891439978124	8.33066981888521	-0.0791752342414437	1.37735485817633	0.00121342689957464	-0.0042988951875523
0.18	13.3792398556488	-4.93232568905882	626.909681760359	-65.8517435877554	8.27486765315843	-0.0643728719950377	1.40631850815235	0.00112510781631458	-0.00436731597768791
0.19	13.533318304927	-4.98779196726995	626.991996405806	-65.8169214493541	8.2184396810245	-0.0473750746107982	1.43883752585461	0.00103551055499876	-0.00443446980892503
0.2	13.6915588414716	-5.04238078932203	627.085566729528	-65.7839540098305	8.16247420038117	-0.0289738766496842	1.47317120432795	0.000946488458954247	-0.00450055021034824
0.21	13.8462070163361	-5.09385778530841	627.185324933497	-65.752205459224	8.10788723113543	-0.0099143878427902	1.50773843704665	0.000859604523657397	-0.00456570135603655
0.22	13.9907520478462	-5.14025880762852	627.286845982719	-65.7211333488603	8.05538324608202	0.00912976217131878	1.54116514121201	0.000776066365719032	-0.00463003221314175
0.23	14.1200667999384	-5.17995255406623	627.386442127305	-65.6902866725864	8.00542766129252	0.0275760215236118	1.57231807414204	0.000696681267752264	-0.00469363439816492
0.24	14.2304683940007	-5.21168519091175	627.481211002057	-65.6592978596213	7.95823213810256	0.0449470283443923	1.60032463728291	0.000621832829508407	-0.00475660172851329
0.25	14.3197038841138	-5.23460608016724	627.5690397194	-65.6278704798738	7.91375311639707	0.0608790379866353	1.62457904537639	0.000551479693516184	-0.00481904929152352
0.26	14.3868690138092	-5.24827478484377	627.648569620954	-65.5957646601735	7.87170336788835	0.0751247796863367	1.64473592408316	0.000485175785557635	-0.00488112986042542
0.27	14.4322708809889	-5.25265050180678	627.719128124027	-65.5627822251641	7.83157575438622	0.0875511384004146	1.66069295612506	0.000422110551793142	-0.00494304567443871
0.28	14.4572472807081	-5.24806589484826	627.780635319779	-65.5287534166266	7.79267782388211	0.098132291281364	1.67256460440939	0.000361166814718594	-0.00500505396134818
0.29	14.4639565468316	-5.23518792995218	627.833493616404	-65.4935267305531	7.7541753986222	0.106939103817952	1.68064919319963	0.000300993134849341	-0.00506746509254907
0.3	14.4551519013927	-5.2149687263964	627.878468778796	-65.4569629748464	7.71514292345503	0.114125702235773	1.68539172826776	0.000240086976681781	-0.00513063288501342
0.31	14.4339537199638	-5.18858962599222	627.916570238448	-65.4189341333383	7.6746180653496	0.119914185212708	1.68734479569695	0.000176884556227211	-0.00519493725251639
0.32	14.4036318448841	-5.15740165994375	627.948937609198	-65.3793270704803	7.63165789758405	0.124578422682683	1.68712971455835	0.000109853010324476	-0.00526076010318258
0.33	14.36740826469	-5.12286538439514	627.976739049179	-65.3380515737902	7.58539397121315	0.128427819688665	1.68539985333374	3.75804875048548e-05	-0.00532845602339459
0.34	14.3282882820128	-5.08649269839105	628.001085579611	-65.2950517540256	7.53508367297517	0.131791809118908	1.68280767852753	-4.11400777768217e-05	-0.0053983198241974
0.35	14.2889258730795	-5.04979279503973	628.022963840001	-65.250319446557	7.48015548781585	0.135005690933565	1.67997671237441	-0.000127237384209309	-0.00547055340860551
0.36	14.2515264549739	-5.01422387388119	628.043188159976	-65.2039080132211	7.4202461147765	0.138398270301234	1.67747916087832	-0.000221301705110831	-0.00554523461184417
0.37	14.2177878649952	-4.98115170399711	628.062371382235	-65.1559448525774	7.35522781058961	0.142281575928214	1.67581955863589	-0.000323540972538987	-0.00562229065138782
0.38	14.1888781443571	-4.95181561249794	628.080912679747	-65.1066409956083	7.2852248344994	0.146942774711435	1.67542438615166	-0.000433754789306936	-0.0057014785956585
0.39	14.1654468078572	-4.92730201352174	628.098999744839	-65.0562963875888	7.21061841519357	0.152638249755439	1.67663726898692	-0.000551327237618105	-0.00578237483169972
0.4	14.1476647482215	-4.90852521168852	628.11662222461	-65.005299815942	7.13204022824475	0.159589683428975	1.67971908268397	-0.000675238405357935	-0.00586437491094834
0.41	14.1352868181704	-4.89621492451087	628.133593136246	-64.9541229073663	7.0503549308526	0.16798189045688	1.68485207493568	-0.00080409362547987	-0.00594670442020948
0.42	14.127730477965	-4.89090977483563	628.149575182728	-64.903308144989	6.96663282107316	0.177962080287484	1.69214698361149	-0.000936168572310736	-0.00602844071528186
0.43	14.124163689111	-4.8929559030955	628.164109340378	-64.8534514013537	6.88211414423907	0.189640192911209	1.70165207712129	-0.0010694676278688	-0.00610854452847205
0.44	14.1235954504896	-4.90250982947562	628.176643720361	-64.8051799972872	6.79816693658402	0.203089945686914	1.71336306790573	-0.0012017923600434	-0.00618589968316617
0.45	14.124962965133	-4.91954474280613	628.186561421415	-64.7591277339515	6.71624055677339	0.218350246901987	1.72723294153957	-0.0013308165706135	-0.00625935848214035
0.46	14.1272103301553	-4.94385948814968	628.193206795124	-64.7159086658525	6.63781719770241	0.235426670328969	1.74318089029922	-0.00145416419026563	-0.0063277898383992
0.47	14.1293547810391	-4.9750896500752	628.195910152344	-64.6760915562508	6.5643636878854	0.254292739360072	1.76109972604977	-0.00156948632299826	-0.00639012693366535
0.48	14.1305378070253	-5.01272026603962	628.194011381879	-64.6401769657249	6.4972857854464	0.274890835114726	1.78086135707922	-0.00167453396428401	-0.00644541115011489
0.49	14.130059794575	-5.05609983917693	628.186883186528	-64.6085787658579	6.43788694658047	0.297132616493065	1.80232013166441	-0.00176722331568309	-0.00649282923655434
0.5	14.1273981593586	-5.10445544047256	628.173954650589	-64.5816115536447	6.3873332293898	0.320898918325587	1.82531406382008	-0.00184569116344012	-0.00653174113127021
0.51	14.1222101089732	-5.15690878866589	628.154735648026	-64.5594849920581	6.34662559391406	0.346039173726497	1.84966415207479	-0.00190833844286932	-0.00656169653985691
0.52	14.1143221654607	-5.21249326738662	628.128842218601	-64.5423055535468	6.31658040514452	0.372370485637826	1.87517217070353	-0.00195386083212834	-0.00658243920813179
0.53	14.1037093121923	-5.27017188066721	628.096022538111	-64.5300855401069	6.29781846594135	0.399676547036634	1.90161744717575	-0.00198126596417361	-0.00659389877312888
0.54	14.0904670776991	-5.32885615954206	628.056182560469	-64.5227586452869	6.29076243030978	0.427706675277656	1.92875323396713	-0.00198987757061203	-0.00659617104417962
0.55	14.074780016065	-5.38742601453223	628.009409892439	-64.5202007608778	6.29564200291327	0.456175278607078	1.95630333315435	-0.0019793275351906	-0.00658948848217211
0.56	14.0568898992766	-5.44475048281756	627.955994052428	-64.5222542622423	6.31250594383059	0.484762106412045	1.98395963561777	-0.00194953740256309	-0.00657418343174825
0.57	14.0370665332289	-5.49970924708506	627.896441028176	-64.5287536727896	6.34123958986529	0.513113643546504	2.01138119209424	-0.00190069133180786	-0.00655064725124689
0.58	14.0155834967892	-5.55121470896671	627.831480031133	-64.5395504411673	6.38158639094407	0.540845988035904	2.0381953416671	-0.00183320278467078	-0.00651928882682325
0.59	13.9927003479368	-5.59823428902983	627.762060570403	-64.5545345822154	6.43317185146211	0.567549497130764	2.06400128802751	-0.00174767738573559	-0.00648049601883025
0.6	13.9686520168746	-5.63981250514757	627.689338431881	-64.5736511371844	6.49552826407038	0.592795398066331	2.08837634147993	-0.00164487438510842	-0.00643460336223031
0.61	13.9436452898059	-5.67509226188576	627.614649817627	-64.596909786762	6.56811872279277	0.616144439240277	2.11088484490241	-0.00152566900198721	-0.00638186884513398
0.62	13.9178615510544	-5.70333467753585	627.539473721999	-64.624386473491	6.65035909274939	0.637157510728027	2.13108958745158	-0.00139101764576316	-0.00632246186064141
0.63	13.8914643570494	-5.72393669613163	627.46538352308	-64.6562165166852	6.74163687909087	0.655407999593651	2.14856529585937	-0.00124192762282997	-0.00625646352714915
0.64	13.8646100093816	-5.73644569280936	627.393989669368	-64.6925793821107	6.84132625778149	0.670495477847004	2.16291359616109	-0.00107943247015343	-0.00618387957595062
0.65	13.8374591024469	-5.7405702944244	627.32687616076	-64.7336759449339	6.94879888244878	0.682060163694905	2.17377867500811	-0.000904573542917139	-0.00610466499479942
0.66	13.8101870500761	-5.73618671276364	627.265534185097	-64.7796997025222	7.06343043992947	0.689797465118446	2.18086275412487	-0.000718387957661968	-0.00601875867462716
0.67	13.7829918304277	-5.72334003005636	627.211296715961	-64.8308039037947	7.18460326757807	0.693471822987328	2.18394043562507	-0.000521902489402436	-0.00592612550866926
0.68	13.7560975963937	-5.70224008542903	627.165278061606	-64.8870669240276	7.31170564448325	0.692929030500546	2.18287098707782	-0.000316132575064616	-0.00582680279925329
0.69	13.7297533323808	-5.67325187987091	627.128322256442	-64.9484584015985	7.44412860603087	0.688106224287271	2.17760771540685	-0.000102085216609456	-0.00572094747827682
0.7	13.7042263405246	-5.63688073298172	627.100963804418	-65.0148086545881	7.58126129071362	0.679038822497403	2.16820372423143	0.00011923566995011	-0.00560888056130812
0.71	13.6797909491315	-5.59375276764107	627.083403637073	-65.0857837144754	7.72248589925861	0.665863823567776	2.15481355089796	0.000346823031829965	-0.00549112542786746
0.72	13.6567133940882	-5.54459164353268	627.075502276087	-65.1608679697851	7.8671733250173	0.648819067541191	2.13769042312407	0.00057966113732928	-0.00536843692666621
0.73	13.6352342777999	-5.49019277776525	627.076791145888	-65.2393559348008	8.01468040400261	0.628238286641197	2.11717914308577	0.000816722117068366	-0.00524181890267057
0.74	13.6155503189393	-5.43139654919389	627.086501834943	-65.3203540862411	8.16434954261342	0.604542016672634	2.09370487891197	0.00105696571964554	-0.00511252847986592
0.75	13.5977972434661	-5.36906215165287	627.103611933714	-65.4027930876226	8.31551122677199	0.578224687369665	2.06775839939278	0.00129934304361495	-0.00498206625122199
0.76	13.5820356227094	-5.30404381315879	627.126904966698	-65.4854500911898	8.46748961877657	0.549838439697965	2.03987850800309	0.00154280457220545	-0.0048521523675527
0.77	13.5682412438514	-5.23717101336177	627.155040968432	-65.5669802122281	8.61961113200205	0.519974414681841	2.01063260074286	0.00178631237204378	-0.00472468932658492
0.78	13.5563012230801	-5.16923410050623	627.18663350423	-65.6459557461297	8.77121556465616	0.489242408037644	1.98059637675938	0.00202885586167835	-0.00460171299767539
0.79	13.5460165759336	-5.10097633507887	627.220328466804	-65.7209112729822	8.92166909769629	0.458249878350979	1.95033376451103	0.00226947014872403	-0.00448533404128842
0.8	13.5371113865911	-5.03309288757117	627.254879830533	-65.7903924873722	9.07037824182736	0.427581328988348	1.92037808845332	0.00250725561093564	-0.00437767237092461
0.81	13.5292481177949	-4.96623672408275	627.28921773153	-65.8530064134864	9.21680367293704	0.397779055311447	1.89121539678024	0.00274139718461138	-0.0042807876435763
0.82	13.5220480277605	-4.90103067036573	627.322504751789	-65.9074706201431	9.3604728370878	0.369326163250777	1.86327070977337	0.00297118174231611	-0.00419660894609715
0.83	13.5151151603795	-4.8380843066069	627.354177080049	-65.9526591324779	9.50099024086505	0.34263263058346	1.83689774509035	0.00319601199895321	-0.00412686686897404
0.84	13.5080619955874	-4.77801377125685	627.38396823666	-65.9876429357589	9.63804446842184	0.318025008575294	1.81237244784259	0.00341541557703039	-0.00407303103128791
0.85	13.5005346246482	-4.72146210180699	627.411914202548	-66.0117232662757	9.77141117341147	0.29574016072274	1.78989041752429	0.00362904817357243	-0.0040362558513682
0.86	13.4922352752325	-4.66911746669584	627.438339990641	-66.0244562645489	9.90095156593357	0.275923219442052	1.76956809796866	0.00383669017757339	-0.00401733696150817
0.87	13.4829401640629	-4.62172658668227	627.463828847979	-66.0256680045606	10.0266062301479	0.258629722721521	1.75144739543444	0.00403823655542508	-0.00401668016129453
0.88	13.4725109949521	-4.58010083032636	627.489176292541	-66.0154593849584	10.1483844424397	0.243831682173693	1.7355032251328	0.00423368031474342	-0.00403428421617835
0.89	13.4608989247906	-4.54511290036612	627.515332000819	-65.9942008494088	10.2663494867781	0.231427141611888	1.72165336536405	0.00442309033505382	-0.00406973816348721
0.9	13.4481404510997	-4.51768268702099	627.543333123099	-65.9625173693458	10.3806007579061	0.221252619874584	1.70976992413706	0.00460658477903772	-0.00412223311802414
0.91	13.4343453804724	-4.49875170961032	627.574232891534	-65.9212645510362	10.4912536819109	0.213097700310662	1.69969169510637	0.00478430163726508	-0.00419058790660552
0.92	13.4196777569082	-4.48924653856769	627.609028405703	-65.8714971008276	10.5984186499089	0.206720937749954	1.6912366942929	0.00495636818659152	-0.00427328723861219
0.93	13.4043312984915	-4.49003260989573	627.648591259318	-65.8144311820944	10.7021802424449	0.20186620590013	1.68421422070731	0.0051228712410463	-0.00436853056964817
0.94	13.3885014484246	-4.50186082821671	627.693604256757	-65.7514024134904	10.8025780149607	0.198278606126737	1.67843586589537	0.00528383003795728	-0.00447428936613062
0.95	13.3723565388264	-4.52531021596926	627.744506917851	-65.6838213840012	10.8995900205258	0.195719102726868	1.67372500241381	0.00543917343598975	-0.0045883701533997
0.96	13.3560107530751	-4.56073052410015	627.801451847278	-65.613128593933	10.9931200737288	0.193977138215073	1.66992440223738	0.00558872282068734	-0.00470848054547904
0.97	13.3395015319587	-4.60818910630252	627.864273411695	-65.540750674739	11.0829895235906	0.192880610667039	1.66690176625048	0.00573218174073322	-0.00483229541991721
0.98	13.3227737969026	-4.66742642679031	627.93246957412	-65.4680596009086	11.168934022218	0.192302757382333	1.66455307865254	0.00586913286479688	-0.00495752051661034
0.99	13.3056728761359	-4.73782429788745	628.005197217225	-65.3963363940253	11.2506054708869	0.192165676413789	1.66280382877166	0.00599904238863114	-0.00508195099656589
1	13.2879473515669	-4.81839033322988	628.081280863189	-65.3267405456014	11.3275790183403	0.192440419366263	1.66160826098773	0.00612127157001823	-0.0052035228777868
1.01	13.2692622459586	-4.90776118842105	628.159234367687	-65.2602860668653	11.3993646983401	0.193143793434861	1.66094691501379	0.0062350946580407	-0.00532035574523661
1.02	13.2492221042821	-5.00422600338436	628.237294913461	-65.1978247275145	11.4654230434504	0.194332205446295	1.66082279809628	0.00633972214088739	-0.00543078567781974
1.03	13.2274026593085	-5.10577014146302	628.313468427335	-65.140036689637	11.5251838142942	0.196093053434161	1.66125658334197	0.00643432798376516	-0.00553338791038509
1.04	13.2033889804049	-5.21013793729312	628.385585360389	-65.0874283956813	11.5780668480759	0.198534310909784	1.66228125165332	0.00651807937761767	-0.00562698931379486
1.05	13.1768173527409	-5.31491182401486	628.451365571828	-65.0403372477004	11.6235039616922	0.201773046379961	1.66393658813149	0.0065901674731226	-0.00571067129302733
1.06	13.1474176787768	-5.41760401453656	628.50849081753	-64.9989423343187	11.6609608427791	0.205923669439642	1.66626390918884	0.00664983762675303	-0.00578376413848256
1.07	13.1150529779914	-5.51575595500224	628.554683051017	-64.9632802342949	11.6899579212465	0.211086691814897	1.66930133824511	0.00669641782268046	-0.00584583419314229
1.08	13.0797526096019	-5.60704012648341	628.58778640044	-64.933264759803	11.710089324993	0.217338737463655	1.6730798719436	0.0067293441362852	-0.00589666540229639
1.09	13.0417361616921	-5.68935849339811	628.605850310117	-64.9087094030992	11.7210391744425	0.224724434211262	1.67762039275436	0.00674818234900806	-0.00593623688932922
1.1	13.0014255228291	-5.76093200543046	628.607210965388	-64.8893512173384	11.7225946476392	0.233250677641196	1.68293169550413	0.00675264508654019	-0.00596469815874263
1.11	12.9594434425237	-5.82037604468032	628.590567803684	-64.87487489228	11.7146554369215	0.242883586100298	1.68900951224689	0.00674260411107435	-0.00598234338500751
1.12	12.9165978401216	-5.86675753355368	628.55505170748	-64.8649358716709	11.6972394065896	0.253548275811174	1.69583644828229	0.00671809763560076	-0.00598958602960691
1.13	12.8738521686558	-5.89963051886857	628.500281429284	-64.859181492192	11.6704844372485	0.265131390516081	1.70338268668761	0.00667933273133004	-0.00598693476929132
1.14	12.8322832021841	-5.91904834226007	628.426404958468	-64.8572692938588	11.6346465978081	0.277486134349219	1.71160728215439	0.00662668306134703	-0.00597497144625556
1.15	12.7930286101462	-5.92555190287899	628.334122930686	-64.8588818483514	11.5900949144636	0.290439392544029	1.72045984795785	0.00656068229314456	-0.0059543314914741
1.16	12.7572275314864	-5.92013491803682	628.224691807122	-64.8637376651096	11.5373031041803	0.303800393259197	1.72988244152334	0.00648201362300922	-0.00592568704438091
1.17	12.7259579954041	-5.90418839652136	628.099905392303	-64.8715979562178	11.4768387078666	0.317370273929456	1.73981147185923	0.00639149589295204	-0.00588973280544461
1.18	12.7001754004871	-5.87942767342175	627.96205427243	-64.8822692620166	11.4093500975253	0.330951872738037	1.75017948266381	0.00629006680455834	-0.00584717451472071
