Time [s]	GRFml [N]	GRFap [N]	GRFv [N]	Mml [N.m]	Map [N.m]	Mv [N.m]	Mfree [N.m]	COPml [m]	COPap [m]
0.01	-3.2393310410478	0.657902322638803	876.433679276857	-31.9160620973249	67.0666197148024	0.554860016984348	-0.487245455756588	0.00300383717092645	0.0147597869231945
0.02	-3.26605589270655	0.681761822459557	876.86155739144	-31.8337301336052	67.0939286548971	0.551152557894167	-0.484748536967166	0.00311320298774365	0.0147457964152928
0.03	-3.28812129851548	0.709702874444647	877.281160870279	-31.7690970848183	67.1233121900565	0.547895521877189	-0.483119905598946	0.00320225285113696	0.0147348863402277
0.04	-3.30322240829239	0.744119625318826	877.677507062732	-31.7357987474847	67.156830884137	0.545112234556276	-0.482600084551419	0.00325496956751825	0.0147307042778267
0.05	-3.31321789925925	0.785663480714281	878.024965544379	-31.7402521941229	67.1963488766328	0.542331504947344	-0.482676304752291	0.00326303421336605	0.0147376100493188
0.06	-3.32413022660842	0.833472644006521	878.289572294001	-31.7805926381121	67.243152987727	0.53865521050963	-0.482171578681879	0.0032271237645104	0.014760042654729
0.07	-3.34441714870491	0.885915804187887	878.437000096688	-31.8477704186397	67.2974461839529	0.533055504392533	-0.479657819186975	0.00315600989469478	0.0148012478784827
0.08	-3.38212104111213	0.94143279923571	878.44335451047	-31.9283250812223	67.357921714747	0.524797130284166	-0.474036245400297	0.00306388521786027	0.0148618481120114
0.09	-3.44191488165304	0.999039879750626	878.304778809541	-32.0079299125131	67.4216573208196	0.513829408902182	-0.465062747094645	0.00296677044085369	0.0149388780033992
0.1	-3.52310286920003	1.05825895921033	878.042202636847	-32.074707367883	67.4844891256142	0.500999761492714	-0.453616740551282	0.00287897450471908	0.0150257888513152
0.11	-3.61930736711574	1.1185264613944	877.699213294333	-32.121523369659	67.5418589093202	0.487998282823311	-0.441603470549712	0.0028104143395189	0.0151135926708336
0.12	-3.72000898747338	1.17840527726376	877.333338476081	-32.1468552408638	67.5899390400809	0.477028563688851	-0.431505079883184	0.00276526225241647	0.0151928995026729
0.13	-3.81349306726169	1.23505039206096	877.003210958881	-32.1542478920164	67.6266983677236	0.47028556181265	-0.425711957355762	0.00274200881158482	0.0152562501820147
0.14	-3.89028507321215	1.28430866179549	876.755417128867	-32.1507087080252	67.6525359344188	0.469381190157331	-0.425836364143725	0.00273470851322521	0.015299988489451
0.15	-3.94597169715527	1.321584976217	876.614885959708	-32.1445815511663	67.6702004098541	0.474876013665567	-0.432215171724247	0.00273496524919159	0.015325014838619
0.16	-3.98246207753084	1.34327195558222	876.58146765602	-32.143475450571	67.6839143093348	0.486047463182476	-0.443749035460929	0.0027341242088339	0.0153360972916644
0.17	-4.00720511167485	1.34825313250429	876.633333484511	-32.152728211317	67.6978780864007	0.500960557132841	-0.458122420739729	0.00272515743152646	0.0153398824192921
0.18	-4.03051436676533	1.33887777206221	876.735718185717	-32.1746968462665	67.7145599908791	0.516825300200534	-0.472336007631739	0.00270385026061903	0.0153421946586101
0.19	-4.06177313388027	1.32093394349014	876.852030013341	-32.2089277726574	67.733300925103	0.530549372016021	-0.4833954935623	0.0026690988795921	0.0153454835389099
0.2	-4.10570236894709	1.30248283303571	876.953907413904	-32.2530202629936	67.7497234574309	0.539347220872006	-0.488964973786692	0.00262237847000191	0.015347272084716
0.21	-4.15992843978065	1.29183841034142	877.027447886139	-32.3038164123906	67.7562256700765	0.541260328706417	-0.487817615948761	0.00256667275737488	0.0153401676292305
0.22	-4.21474228846143	1.29531643592256	877.074261584874	-32.3584870457551	67.7435189253606	0.535477750982619	-0.479989447294022	0.00250529095662011	0.0153135079353289
0.23	-4.25527980817426	1.31549611647766	877.10769511724	-32.4151642089456	67.7028355406964	0.522406918206418	-0.466635830327057	0.00244098201745391	0.0152561905744606
0.24	-4.26557071537521	1.35058332798786	877.145991983586	-32.472973988377	67.6282008752047	0.50350996249159	-0.44967140307915	0.00237559029143308	0.0151598466207921
0.25	-4.23325438046569	1.39509175468328	877.204895643292	-32.5315724991201	67.5181167348727	0.480969729398479	-0.43131744657354	0.00231024825335913	0.0150213997719666
0.26	-4.1534767932815	1.44160819474192	877.292083529507	-32.5904825939662	67.3761592372639	0.457271239302024	-0.413677636269479	0.00224587620589889	0.0148442374117734
0.27	-4.03068561542932	1.48304823755418	877.404951435645	-32.6485892734542	67.2103047637466	0.434780743396161	-0.398424598998046	0.00218365139217114	0.0146376463814056
0.28	-3.87768862481569	1.51466639698314	877.531998966557	-32.7040563255126	67.0311623033453	0.415386981909843	-0.386628199945262	0.00212516028876175	0.0144146901644996
0.29	-3.71222898337112	1.53520190474152	877.656865323842	-32.7547223204099	66.8495951344974	0.400250091843936	-0.378714699124601	0.00207212612760921	0.0141891559242485
0.3	-3.55215215897094	1.54686239010691	877.76333396911	-32.7988136369263	66.6743698996696	0.389688540318708	-0.374526105902355	0.00202582157402087	0.0139724421688035
0.31	-3.41069772521788	1.55424770480113	877.839557217343	-32.8356709721686	66.5104392724372	0.383220450626337	-0.373449146891505	0.00198643408612487	0.013771230315084
0.32	-3.29337539975711	1.56265103335829	877.880281479902	-32.8661788877997	66.3582676280713	0.379755412304351	-0.374590993182045	0.00195268278837313	0.0135865155263223
0.33	-3.19730871702446	1.57633401445895	877.886717005257	-32.8927091387115	66.2143158410327	0.377902616149218	-0.376981206417041	0.00192188572552343	0.013414163822343
0.34	-3.11307362728668	1.59731799480111	877.864553822152	-32.9185784474824	66.0725002034197	0.376326773107486	-0.379771335851108	0.00189049760549231	0.0132467439190543
0.35	-3.02824745512309	1.62500558455292	877.821188043618	-32.9471984385572	65.926211981218	0.374059662711269	-0.382391701288136	0.00185496089590975	0.0130760711174999
0.36	-2.93140930511607	1.65664361814134	877.763334512357	-32.9811928068413	65.7703793595402	0.370678764899531	-0.384622535389867	0.00181260707884234	0.0128957694837145
0.37	-2.81534032430068	1.68837310706674	877.695877437376	-33.0217480096874	65.6030845636326	0.36630253602209	-0.386554436306626	0.00176234113254503	0.0127032208673336
0.38	-2.67860692572802	1.71646698278986	877.622214505845	-33.0683671018065	65.426391292562	0.361415155013346	-0.388449852861964	0.00170492743129969	0.012500483150118
0.39	-2.52535869049535	1.73836025087576	877.545726214591	-33.1190592140799	65.2462422556888	0.356597376257743	-0.390558225614799	0.00164282566876328	0.0122940482485217
0.4	-2.36376610578107	1.75320233276293	877.471577220829	-33.1708715972251	65.0714974782523	0.352275416315415	-0.392960983263842	0.00157965125004178	0.0120935887476685
0.41	-2.203852502451	1.76184613587349	877.407953037425	-33.2205931229798	64.9123547975267	0.34858823854127	-0.395513374563075	0.00151941954186752	0.0119100465977152
0.42	-2.05546671962301	1.76636495203793	877.366039800878	-33.2654394036046	64.7784978257754	0.345418511380427	-0.397908910510286	0.00146576298883128	0.0117535183724386
0.43	-1.92687110721277	1.76930646911945	877.358453218163	-33.3035616683852	64.6773464273898	0.342558592418548	-0.399837207892783	0.0014212892193739	0.0116313908880333
0.44	-1.82405067440624	1.77293239143041	877.396278127995	-33.3342851860414	64.612746178506	0.339924156706609	-0.401163603167235	0.00138719314125779	0.0115470972736051
0.45	-1.75056109922622	1.77865971958797	877.485296402323	-33.3580576572402	64.5843381084609	0.33771072386317	-0.402049277683704	0.00136316694439675	0.0114997190405093
0.46	-1.70763485613058	1.78683913307137	877.62231143181	-33.3761557496835	64.5877138459367	0.336418107500585	-0.402957397069974	0.00134758808077085	0.0114844763399252
0.47	-1.69435405323825	1.79690288057344	877.792680641147	-33.3902449970125	64.6153056529492	0.336728695960937	-0.404540036897198	0.00133792105511088	0.0114939543619881
0.48	-1.70787563871578	1.80780986580608	877.970162032142	-33.4019059658723	64.6578147419772	0.339288934545075	-0.407449323606122	0.00133125039663229	0.011519748227743
0.49	-1.74382315726954	1.81862749264702	878.119855890419	-33.4122269015119	64.7058770258447	0.344482237787329	-0.412143631179259	0.00132486509229413	0.011554117478498
0.5	-1.79694659959734	1.8290394426472	878.204316816252	-33.421528774219	64.7516284625545	0.352281505577708	-0.418756569601311	0.00131682537706468	0.0115912583732853
0.51	-1.8620025781492	1.83957774182823	878.191913254143	-33.4292495423375	64.7898702596403	0.36223363448256	-0.427067421934698	0.00130644505936661	0.0116279292572078
0.52	-1.93461824329387	1.85145670535324	878.06550847375	-33.4339878016482	64.8186336314767	0.373574535081754	-0.436571235912822	0.00129460901069411	0.011663361839199
0.53	-2.01180388012595	1.86602169696952	877.828944575954	-33.4336991517173	64.8390752293821	0.385424645891712	-0.446612357267347	0.00128382609993472	0.0116985912559368
0.54	-2.09185479690658	1.88397661439264	877.508996434938	-33.4260425468172	64.854765390861	0.396990808355423	-0.456529623257031	0.00127791963925827	0.0117354725769889
0.55	-2.17362000708327	1.90466585013577	877.15153555959	-33.4088673665041	64.8705380706685	0.407707713971316	-0.465768253264586	0.00128131002657417	0.0117756840367071
0.56	-2.25540878033137	1.92571022926739	876.812342408945	-33.3807965562908	64.8911427283904	0.41728438060192	-0.473936493897131	0.00129795766966145	0.0118199566033709
0.57	-2.33401566507321	1.94320828610822	876.544758065898	-33.3417989292589	64.9199723797726	0.425662461559942	-0.480812086881005	0.00133018136459218	0.0118676605215835
0.58	-2.40436513637834	1.95252932237322	876.387517358183	-33.29358356139	64.9581367943645	0.43292628293188	-0.486322309938118	0.00137768632321456	0.0119167752748039
0.59	-2.46008843420966	1.94950067639193	876.356196972782	-33.2396349831893	65.0040991836384	0.439217317294483	-0.490524588196139	0.00143715681401602	0.0119642020087177
0.6	-2.49501607926249	1.93161519807388	876.440676591793	-33.1847724234847	65.0539916898659	0.444695161559813	-0.493603031525081	0.00150265032709263	0.0120063455018836
0.61	-2.50522142937872	1.89883816196067	876.609195579454	-33.1342573025419	65.102573471957	0.449558595676623	-0.495876815073955	0.0015667910420144	0.0120398723895539
0.62	-2.49100597984774	1.85371153934795	876.817611513408	-33.0926455087374	65.1446208635621	0.454105862383725	-0.497799168328595	0.0016224783645038	0.0120625209301006
0.63	-2.45815729507993	1.80070097366393	877.020988102744	-33.0627129543906	65.1763897501187	0.458787293499989	-0.499919721517454	0.00166461181646727	0.0120737936917786
0.64	-2.41795541789738	1.74500714550447	877.184123924315	-33.0448082412069	65.1967222263577	0.464197870953939	-0.502792268425742	0.00169128232680971	0.0120753320561322
0.65	-2.38571304390318	1.69125088488943	877.288198698576	-33.0368774988907	65.2074244865208	0.470977055424344	-0.506832408619898	0.00170402847096196	0.0120707870013519
0.66	-2.37802439453078	1.6424632306642	877.332106924371	-33.0351923585759	65.2127259538427	0.479622583286714	-0.51215676671023	0.00170706072401128	0.0120650911783198
0.67	-2.409263516877	1.59966917779666	877.328754524117	-33.0355693619797	65.2178991190918	0.490268588987764	-0.518455968202909	0.00170570754982335	0.0120631990829856
0.68	-2.48811699719509	1.56212285348003	877.298039320874	-33.034691385825	65.2273944959161	0.502507022193797	-0.52495683724544	0.00170460268462003	0.0120685522334952
0.69	-2.61499066035996	1.52803735514165	877.258997273716	-33.031099066873	65.243031109623	0.515330325256661	-0.530510777769633	0.00170621472658283	0.0120816737718779
0.7	-2.78097263552657	1.49553188107297	877.223525623886	-33.0255301243785	65.2628075672884	0.527240399740735	-0.533809067335116	0.00171019158773933	0.012099332182865
0.71	-2.968697232199	1.46350873154178	877.193324336169	-33.0205060122089	65.2807424886668	0.536515708321216	-0.533683651842216	0.00171370566509521	0.0121146030581358
0.72	-3.15501517457357	1.43223748844254	877.160554416945	-33.0193180234383	65.2878610999186	0.541575199807797	-0.529418899970223	0.00171264674138627	0.0121179240008755
0.73	-3.31494694129587	1.40351361437655	877.111588727278	-33.0247607174462	65.2741119337537	0.54134385945224	-0.520987488076226	0.00170323660030403	0.0120989544922147
0.74	-3.42609037349578	1.38034739688148	877.032462566468	-33.038034962469	65.2307318460015	0.535520332974549	-0.509136588220444	0.00168352069232558	0.0120488137182641
0.75	-3.47255267034947	1.36623072223986	876.914392969171	-33.058175743851	65.1524588053721	0.524671462946502	-0.495285513411384	0.00165425900695348	0.011962151109762
0.76	-3.44760396047506	1.36413406781141	876.757992349518	-33.082179628804	65.0390447494193	0.510123174569718	-0.481244262239767	0.00161895654595601	0.0118385386407758
0.77	-3.35456396953012	1.37548951573045	876.575339383203	-33.1057785735609	64.8957128487516	0.493670293284797	-0.468812508696209	0.00158305925890156	0.0116828436561504
0.78	-3.20584457640493	1.39946981043373	876.389612384757	-33.1246080133314	64.7324661858112	0.477177290548646	-0.459357690297731	0.00155259301721922	0.0115044928842188
0.79	-3.02046904235465	1.43282652559451	876.23235689354	-33.1354094505979	64.5624133509915	0.462175183218329	-0.453486431810017	0.0015326625405887	0.0113158032263262
0.8	-2.82067608061944	1.4703905859274	876.138659210113	-33.1369166095584	64.399473934489	0.449565468551601	-0.450906801127165	0.00152622527737178	0.011129766886095
0.81	-2.62833493089546	1.5061183479217	876.140693797262	-33.1301849074856	64.2559340299881	0.439513854471555	-0.450529732863169	0.00153343622019908	0.01095778882024
0.82	-2.46183790116143	1.53438281570047	876.260465447262	-33.1182925659752	64.1403332781831	0.431559018390114	-0.450788394422481	0.00155168105714232	0.010807861875496
0.83	-2.33393809596934	1.5511468769747	876.503068148298	-33.105514222871	64.0560898661788	0.424891869135248	-0.450086547222587	0.00157623845976818	0.0106835392262721
0.84	-2.2507325013081	1.55473281780802	876.852200003499	-33.0961986397532	64.0011247242103	0.418704135133409	-0.447245434370117	0.00160138011789734	0.0105838627374764
0.85	-2.21173433907589	1.5460628928405	877.269667415819	-33.0936441340767	63.9685528732734	0.412484376338949	-0.441819154355492	0.00162164544813126	0.0105041837839673
0.86	-2.21080033819533	1.52839733555288	877.699949092513	-33.0992524737907	63.9482979465059	0.406163955055072	-0.434190805159799	0.00163301387906545	0.0104376240010483
0.87	-2.23761117683511	1.50667487410425	878.079622913231	-33.1121641702075	63.9292933187014	0.400075818865264	-0.425430566885657	0.00163373220130747	0.0103768072856475
0.88	-2.27943468349464	1.48656907195425	878.349951291714	-33.1294558095281	63.9018024140503	0.39476111737531	-0.416968805897432	0.00162463018966341	0.0103154693810167
0.89	-2.32297984235312	1.47336657301081	878.469712710087	-33.1468403679938	63.85935840354	0.390714149945133	-0.410189561681321	0.00160886673984439	0.0102496145309709
0.9	-2.35620974751125	1.47080515445625	878.424941759871	-33.1596861396557	63.7999077561337	0.388173584202416	-0.406067511512105	0.00159117520802254	0.0101780202443461
0.91	-2.36998137714351	1.48008502153164	878.232816350829	-33.1640915576254	63.7259313343702	0.387041556715517	-0.404950891015903	0.00157679211528428	0.010102059571564
0.92	-2.35932893949781	1.49933154948644	877.938372848351	-33.1577464634291	63.6435663851501	0.386954096384711	-0.406541474996217	0.00157032337131469	0.0100249759456362
0.93	-2.32416378072206	1.52376516777791	877.6046075546	-33.1403803861436	63.5609948125581	0.387460914949845	-0.410057411117011	0.00157480217776806	0.00995086666375616
0.94	-2.2691966017932	1.54668164423107	877.298281624442	-33.1137236969345	63.4865274439025	0.388227232795743	-0.414506952279332	0.00159112370173564	0.00988367343901175
0.95	-2.20302634062622	1.56109196494915	877.074897149282	-33.0810450165765	63.4268543755291	0.389163694044636	-0.418970652135472	0.0016179322458435	0.00982642972319009
0.96	-2.13654610810233	1.56161018534946	876.966560883743	-33.0464302409556	63.3858432697571	0.390425079806712	-0.422797278770336	0.0016519295359757	0.00978089349770683
0.97	-2.08100136940994	1.54602818922376	876.975745081832	-33.0140037180153	63.3640876691503	0.392279486963548	-0.425661603746614	0.00168850179870217	0.00974754747071693
0.98	-2.04611266308826	1.51606103710807	877.076465517441	-32.9872591034342	63.3591974784902	0.39491032418895	-0.427493092159582	0.0017225376007679	0.00972583195182047
0.99	-2.03861222962394	1.47698927399142	877.222485854518	-32.9685930776174	63.3666451622728	0.398246709789136	-0.42833767713087	0.00174931252458432	0.00971442959461594
1	-2.06138020968804	1.43628280705173	877.360309057663	-32.9590589170328	63.3808759760803	0.401907861731817	-0.428236979566381	0.00176532578687516	0.00971145400003054
1.01	-2.11318556383496	1.40162962370175	877.44343537625	-32.9583107046572	63.3963743119098	0.405297243233021	-0.42719091091906	0.00176897265031795	0.00971448209659576
1.02	-2.18891792064378	1.37898217100256	877.444042250547	-32.9647025949104	63.4084431661314	0.407814474904083	-0.425220117375796	0.00176093006543432	0.00972047193992148
1.03	-2.2801711648759	1.37120666204004	877.359013077926	-32.9755271697428	63.4135748837052	0.409098070051277	-0.422488800425268	0.00174414317023797	0.009725682699053
1.04	-2.37608491202833	1.37769617500885	877.208918285072	-32.9873952810444	63.4094320985479	0.409195048858773	-0.419413606467588	0.00172335026671611	0.00972573566668195
1.05	-2.46441189148703	1.3949808988681	877.030640978669	-32.9967525875574	63.3945761485551	0.408582154511587	-0.416687083497369	0.00170418068808131	0.00971591672280481
1.06	-2.53280719744868	1.41805996372246	876.866189628827	-33.0004882638369	63.3681392849352	0.408024591175397	-0.415182202020523	0.00169198401280246	0.00969173374106513
1.07	-2.57030654762327	1.44198841084162	876.751257570416	-32.9965347109005	63.3296188028693	0.40832453763817	-0.415758215616795	0.00169065725043538	0.00964963619026854
1.08	-2.56888358841233	1.46322557540957	876.706943676837	-32.9843151462701	63.2788863662404	0.410054563487806	-0.419031978151614	0.00170177867035248	0.00958771856454926
1.09	-2.52488038721882	1.48037445060655	876.736798276381	-32.9648999992158	63.216390581288	0.41337364711992	-0.425193782797277	0.00172429945456176	0.00950620121901202
1.1	-2.44002896900627	1.49415963866612	876.829443420109	-32.9407957849729	63.1434321485669	0.41798733541356	-0.433928936083214	0.00175489150825459	0.00940752870210609
1.11	-2.32176397086297	1.5067303519472	876.965117230268	-32.9153953861383	63.062346430611	0.42325628569562	-0.44446650619723	0.00178884902115117	0.00929603322848083
1.12	-2.1825975797998	1.52056593058046	877.123287279994	-32.8922260204699	62.9764524064666	0.428403412012262	-0.45573345340758	0.00182126776722202	0.0091772393612698
1.13	-2.03849598618467	1.53735665771234	877.288388636535	-32.8741947758969	62.8897075373853	0.432739586275333	-0.466562513195412	0.00184814977466896	0.00905698618540379
1.14	-1.90643406542409	1.55721257535721	877.451765043308	-32.8630234648859	62.8061133202708	0.435830353314463	-0.475894477923113	0.00186713348156786	0.00894057914469559
1.15	-1.8015475707106	1.57842856231346	877.609599837568	-32.8589894349234	62.7290083005896	0.437557073796094	-0.482928750836957	0.00187770714236768	0.00883214726698384
1.16	-1.734467171282	1.59784642199043	877.758333540684	-32.8609821848269	62.6604340342138	0.438070669848879	-0.487201531558175	0.0018809568771303	0.00873429508793166
1.17	-1.70943789464845	1.61166747104407	877.890103797231	-32.8667948222112	62.6007525054838	0.437676010665206	-0.488596991821014	0.00187904772422043	0.00864804398304675
1.18	-1.72367761619701	1.61644618989376	877.990705241917	-32.8735303506202	62.548637248327	0.436704588738028	-0.487313330981476	0.00187467868724345	0.00857299587371779
1.19	-1.7681440466943	1.6099731939283	878.041471535242	-32.8780222528962	62.5014733118023	0.435426735318246	-0.483808172640404	0.0018706843624392	0.00850764286840211
