Time [s]	GRFml [N]	GRFap [N]	GRFv [N]	Mml [N.m]	Map [N.m]	Mv [N.m]	Mfree [N.m]	COPml [m]	COPap [m]
0.01	-0.650643547400283	0.890562479303269	879.781035279748	-13.1011867322531	48.051101647103	0.680953139914141	-0.719903403930952	0.00111468346908161	-0.00725317940705894
0.02	-0.485196214062753	1.03700266586382	880.002438028291	-13.1189799704118	48.0659137645367	0.694956876518447	-0.744369367240149	0.00109896806246812	-0.00725132672366252
0.03	-0.3317098720781	1.17116270169697	880.203725570975	-13.134609323364	48.0898162252407	0.708161545216528	-0.76720446398325	0.00108529180342087	-0.00723800805677793
0.04	-0.200022732077581	1.2830309153018	880.36309571123	-13.1457410840462	48.128643908195	0.720107643729276	-0.787269097574051	0.00107588370585665	-0.00720532678122099
0.05	-0.0988203889965451	1.36576883315209	880.459973249669	-13.1503487423609	48.1866067081965	0.730815801289896	-0.804090326254979	0.00107268489358481	-0.00714726233027108
0.06	-0.0348644316063371	1.41642176216309	880.478248251862	-13.1471282670463	48.2662609051674	0.740787855278906	-0.817912462343356	0.00107693103691853	-0.00705989397375761
0.07	-0.0121073690331507	1.43590470666185	880.410673019293	-13.1359580983075	48.368694612101	0.750804764468884	-0.829507218654622	0.00108868976679899	-0.00694146788181738
0.08	-0.0310648639452003	1.42832379623997	880.262759133084	-13.1182038353601	48.49380759988	0.761587614950577	-0.839807304375603	0.0011065594934172	-0.00679233982810284
0.09	-0.0887910452019749	1.39983839120132	880.054333972188	-13.0966797652259	48.6405709740806	0.773444742641975	-0.849492430908257	0.0011277208441689	-0.00661480471103676
0.1	-0.179610753851321	1.35734831184056	879.817582427084	-13.0751881461715	48.8072156447085	0.78603598819607	-0.858671943642507	0.00114841723950232	-0.0064127903976765
0.11	-0.296483034012687	1.30729791397456	879.591596266324	-13.0577136903569	48.9913759534371	0.798341526654484	-0.866769368081054	0.00116477878708132	-0.00619137886916171
0.12	-0.432608574809086	1.25483485648034	879.414661279825	-13.047486296177	49.190257042443	0.808848186280071	-0.872640601423963	0.00117376543430425	-0.00595614623674162
0.13	-0.582754400435074	1.20346160760321	879.316257016106	-13.0461824560875	49.4008757751716	0.815892594906231	-0.874880435088694	0.00117395023106459	-0.00571238440395955
0.14	-0.743822203949225	1.15519057480974	879.310798211433	-13.0534939406261	49.620356562012	0.81805516633807	-0.872218840904181	0.0011659122425135	-0.00546435306303406
0.15	-0.914436303948102	1.11108499994403	879.394593757664	-13.0671738324046	49.8461880681658	0.814493692549915	-0.863892246245368	0.00115213624734467	-0.00521476668164217
0.16	-1.09369540492861	1.07196982389918	879.546637546857	-13.08352681598	50.0763162114673	0.805134773187969	-0.849893527435161	0.00113646731340966	-0.00496470575428554
0.17	-1.27957811514756	1.03905947533042	879.733004031323	-13.0981976228896	50.308994282454	0.790688953536498	-0.831044947503784	0.00112328457761468	-0.00471403875044579
0.18	-1.46766584817994	1.01428680812234	879.91399265228	-13.1070615757113	50.542421651965	0.772502680855668	-0.808885189074305	0.001116605307523	-0.00446227441212027
0.19	-1.65075950810624	1.00021782996541	880.052759377034	-13.1070352148866	50.7743257256744	0.752293993212569	-0.785402598254342	0.00111930686831196	-0.00420959372384355
0.2	-1.81963904347377	0.999566743792532	880.123900009142	-13.0966789983006	51.0017079567594	0.731834954785983	-0.762675227962993	0.00113258701939012	-0.00395771141760376
0.21	-1.9647765368158	1.01444418711539	880.120260962499	-13.0765259124499	51.2209358758119	0.712645146320718	-0.742492872762175	0.00115570838128887	-0.00371024187256397
0.22	-2.07844602906191	1.04554768375486	880.056239566933	-13.0491156898353	51.4282235565862	0.69575244041397	-0.726037996333191	0.00118601986219435	-0.00347239719656944
0.23	-2.15652856716224	1.0915252942162	879.966196726657	-13.0187375446445	51.6203625164238	0.681563315890813	-0.713691822886946	0.00121922716355893	-0.00325007294274254
0.24	-2.19944111651137	1.14871433703225	879.897497822525	-12.9908953757998	51.7954309628184	0.669865257356414	-0.705008465338097	0.00124988681822413	-0.00304859090794629
0.25	-2.21195484683462	1.21138540711007	879.899065925169	-12.971528076324	51.9531913006047	0.659957696976725	-0.698864627450402	0.00127210005471445	-0.00287148456681324
0.26	-2.20205998815741	1.27251629967931	880.007828943606	-12.9660600747757	52.094999277435	0.650878041898989	-0.693750407701906	0.00128036014999255	-0.00271968854115989
0.27	-2.17931857622567	1.32499234385443	880.236530980067	-12.9784222945319	52.2232450166945	0.64166321823872	-0.688128728906967	0.00127045231610035	-0.00259134599250288
0.28	-2.15322307459108	1.36300063158393	880.566551315883	-13.010246549953	52.3405380282121	0.631575214573393	-0.680770055327632	0.00124023808599016	-0.0024822425633354
0.29	-2.1319492023778	1.38329022908542	880.948394559288	-13.0604568613063	52.4489491640943	0.62022898542106	-0.670975094077591	0.00119011775648925	-0.00238669418554155
0.3	-2.12164620466194	1.38594861536364	881.310550984832	-13.1254253811053	52.5495897041456	0.607592611603306	-0.658632051091971	0.00112299542159822	-0.00229861927754715
0.31	-2.12617600830596	1.37442469614792	881.575028755857	-13.1997249429393	52.6426602161589	0.593873311792448	-0.64410706006425	0.00104368447719561	-0.00221253018501938
0.32	-2.14709676391308	1.35470945875981	881.675790057152	-13.2773321558431	52.7279082622734	0.57934311599278	-0.628019372067201	0.000957857410936569	-0.0021242580619168
0.33	-2.18371808079261	1.3338265215699	881.575283693011	-13.352981117494	52.805278640627	0.564179310906751	-0.610988404242339	0.000870798780294613	-0.00203133162033242
0.34	-2.23318930781253	1.31801413591771	881.274639449155	-13.4233031824957	52.8754838317047	0.5483883152739	-0.593445216883224	0.000786297888764498	-0.00193301930383466
0.35	-2.29072539168374	1.31111524964574	880.814782682516	-13.4874430274839	52.9402794110369	0.531848786371207	-0.575574148949784	0.000705982652088988	-0.00183009416908742
0.36	-2.35013578717009	1.31367142631249	880.268201822942	-13.5469954352416	53.0023649789828	0.514461586572559	-0.557399936281414	0.000629262678192521	-0.00172439343831882
0.37	-2.40475628353799	1.32302678666235	879.723573170927	-13.6053018308589	53.0649832820714	0.49634772575642	-0.538978555961049	0.00055387143344876	-0.00161823825129997
0.38	-2.44871502509405	1.33443832959276	879.267180845891	-13.6663128673339	53.1313973870575	0.47800781896502	-0.520606173479017	0.00047683869274906	-0.00151377386594792
0.39	-2.47827151281431	1.34285868133509	878.965627870646	-13.7333164247181	53.204451829387	0.460359998129573	-0.502946787841816	0.000395630441209827	-0.00141229850379154
0.4	-2.4928474983579	1.3448237669796	878.853686664678	-13.8078371479163	53.2863679928788	0.44461009778694	-0.487003589575974	0.000309176596454686	-0.00131366916747233
0.41	-2.49539078071773	1.3398307335685	878.929602944593	-13.8889512374212	53.3788173590146	0.431969105751533	-0.473916839983316	0.000218552856335097	-0.00121589164845975
0.42	-2.49188807738943	1.33075460281164	879.158253223586	-13.9731584350983	53.4832057258695	0.423298442442021	-0.464643677635648	0.000127166215367791	-0.0011149999622192
0.43	-2.49011814691977	1.32317047931523	879.480778642137	-14.0548386137259	53.6010304784983	0.418808169634309	-0.459634786568795	4.03928334963277e-05	-0.00100529238996816
0.44	-2.49801234164001	1.3238066419249	879.82806934275	-14.12720940626	53.7341640100033	0.417934757188852	-0.458641994279658	-3.52796757080442e-05	-0.000879917459115365
0.45	-2.52215731774789	1.33862301085412	880.134957708385	-14.1836032098431	53.8849631016373	0.419475276764802	-0.460755221032337	-9.34526410703018e-05	-0.000731714216992418
0.46	-2.56695374618339	1.37109834749693	880.352201176587	-14.2188073241543	54.0561763617578	0.42196594335722	-0.464684551509315	-0.000129119869354599	-0.000554141806571984
0.47	-2.63471871267202	1.42120195706498	880.454135348436	-14.2301767640379	54.2506819662724	0.424195805847123	-0.469203689593515	-0.000139783778278391	-0.000342116226711875
0.48	-2.72665054514064	1.48528182174992	880.440990134681	-14.2182539865203	54.4711102636344	0.425680205534591	-0.473596252605033	-0.000126103526410626	-9.26192498377776e-05
0.49	-2.8441939137707	1.55682322219224	880.335996114541	-14.1867219049128	54.719390304584	0.426914134897813	-0.477930978200485	-9.18798026391388e-05	0.000194963014737093
0.5	-2.99010788723997	1.62781397941651	880.178333634991	-14.1416640296752	54.9962317931506	0.429290773090927	-0.483047037645996	-4.33316364776282e-05	0.000518720722799737
0.51	-3.16857153960115	1.69034312462882	880.013575799911	-14.0902745604809	55.3005505836887	0.434685094717398	-0.490237251712382	1.21995908145545e-05	0.000874222637088695
0.52	-3.3839854034039	1.738057611101	879.883546807926	-14.0393061005914	55.6288889689357	0.444824996660742	-0.500733312659605	6.78263013677016e-05	0.00125456935735807
0.53	-3.63864432659753	1.76717793577468	879.817518325086	-13.9936215369721	55.9749597799025	0.460655957569995	-0.515176359704911	0.000118591218477904	0.00165050917178489
0.54	-3.92997451576068	1.77689876311419	879.826440971577	-13.9552051819907	56.3295088761499	0.481916327905506	-0.533266486769487	0.000162475023388509	0.00205071239385413
0.55	-4.24833142987705	1.7691528195013	879.901437639184	-13.9228861528034	56.6806862550162	0.507072670561651	-0.553721872492716	0.000200673874300561	0.00244232376281017
0.56	-4.57630383676244	1.74787076644899	880.017024259378	-13.892856948606	57.0150109549099	0.533642292103346	-0.574567025392026	0.000237063783289471	0.00281184604223328
0.57	-4.89005705792861	1.71798884264951	880.138493273943	-13.8598724232919	57.3188324926162	0.558798722236412	-0.593653140546473	0.00027697282138095	0.0031462770301548
0.58	-5.1626143289292	1.68449662228183	880.231774566549	-13.818837700015	57.5800055561958	0.580064298148096	-0.60923543774828	0.000325560431153171	0.00343429682962049
0.59	-5.3683500362045	1.65175582527306	880.273218001633	-13.7663846764518	57.7893932747713	0.595874887118864	-0.620419886226517	0.000386209814548844	0.00366725589996664
0.6	-5.48758110467812	1.62317787801189	880.256503959463	-13.7020279208962	57.9418520292046	0.60585873890162	-0.627345991369976	0.000459345089309449	0.0038397787380704
0.61	-5.51012543471088	1.60118683734458	880.194515566179	-13.6285895087956	58.0365163747446	0.610778423419034	-0.631069142903414	0.000541985103385434	0.00394994184265929
0.62	-5.43703264037321	1.58729372922351	880.115418160903	-13.5517668909402	58.0764231073687	0.612197925360684	-0.633206837189122	0.000628163157279649	0.00399913033033872
0.63	-5.2802319673315	1.58211727309111	880.05396980467	-13.4789410506313	58.0676910169342	0.612013661663948	-0.635480965387142	0.00071012174249474	0.00399174558628024
0.64	-5.06037499588499	1.58529314725315	880.040620731591	-13.4175235665859	58.0185353480435	0.612004700409683	-0.639302385268856	0.00077999092587111	0.00393489119028134
0.65	-4.80350249053068	1.59535153174051	880.091698195065	-13.3732639749581	57.9383328461365	0.613516950930608	-0.645506018188011	0.00083153264252922	0.00383803620421552
0.66	-4.53726542105209	1.60972413908133	880.203654463541	-13.3489470693928	57.8368175265662	0.617324263812044	-0.654276255234459	0.000861517225023922	0.00371252421016927
0.67	-4.28732214595315	1.62501344178528	880.353103526454	-13.3438008606485	57.7233637259333	0.623640620613075	-0.665233925694639	0.000870398587565546	0.00357075033718379
0.68	-4.0743267905156	1.63753078101849	880.502625063483	-13.3537431948082	57.6062710561074	0.632218964526667	-0.677613541610038	0.000862141035105513	0.00342491245156995
0.69	-3.91172976940199	1.64395973556572	880.610641588799	-13.3723772076579	57.4920237527209	0.642472611827352	-0.690454548084918	0.00084326761612119	0.0032854339073341
0.7	-3.80449496400004	1.6419176950122	880.642571702303	-13.3924654477872	57.3846144475183	0.653583905102316	-0.702756649521752	0.000821385335054159	0.00315937046503534
0.71	-3.74880193737331	1.63022548290934	880.580205010294	-13.4075135791315	57.2851246281883	0.664599465060284	-0.713587626310659	0.000803551360631038	0.00304924739069773
0.72	-3.73280038783087	1.60883372524802	880.426836425864	-13.4130909603495	57.1917712756354	0.674530809298784	-0.722160467558094	0.000794860497317251	0.00295274559230718
0.73	-3.73845355765074	1.57851512986496	880.206907028762	-13.4075952982217	57.1005333931136	0.682474034850795	-0.727901757915653	0.000797566214065348	0.00286345463554544
0.74	-3.74439720349783	1.54052073337588	879.960355405692	-13.3923075009257	57.006292582941	0.687739179503108	-0.7305165075777	0.000810916015697383	0.0027725974697882
0.75	-3.72954206468845	1.49636739225385	879.733201525101	-13.3707531926191	56.9042319862278	0.689955827041516	-0.730030382773067	0.000831711110530819	0.00267131941808152
0.76	-3.67690516156658	1.44779978820857	879.566764185662	-13.3475585529468	56.7911206723309	0.689113744184088	-0.726777165132188	0.000855419779403843	0.00255293858398975
0.77	-3.57695601890627	1.39683522604082	879.488187257499	-13.3271227381224	56.6661190350646	0.685513450839779	-0.721309108924252	0.000877523955182591	0.00241454775528244
0.78	-3.42970547547617	1.3457379728492	879.504589482405	-13.3124854821493	56.5308746469409	0.679635407752843	-0.714238584042585	0.000894706948379898	0.00225753954023594
0.79	-3.24491311212172	1.29681611586566	879.602244846113	-13.3047159120965	56.3888869252983	0.671971307997101	-0.706055558156512	0.0009055340019547	0.00208693190673831
0.8	-3.04014694143096	1.25205432281312	879.750936427489	-13.302988043035	56.2443283442956	0.662878799224847	-0.696986724010279	0.000910438840331484	0.00190970131480356
0.81	-2.83692626350743	1.21271441959982	879.912288568325	-13.3052834741795	56.1006545874104	0.652512325588054	-0.686954726725195	0.000911063490958375	0.00173259087672911
0.82	-2.65569115286531	1.17908201227794	880.049808666897	-13.309449245675	55.9593832375783	0.640851637594055	-0.675660936789027	0.000909223284825011	0.00155999053690375
0.83	-2.51072546337027	1.15048656325066	880.1378801809	-13.3142189541692	55.8193729375108	0.627810811147905	-0.662767763476778	0.000905897582551884	0.00139246592270031
0.84	-2.40629055908502	1.12560479019837	880.167238878371	-13.3198264010886	55.6768166292508	0.613381961862009	-0.64811795439824	0.000900627433299328	0.00122635620447542
0.85	-2.33503762760619	1.10293678856556	880.145511928501	-13.3279966653606	55.5260022846332	0.597760501512437	-0.631915189062111	0.000891541161234577	0.00105460342468483
0.86	-2.27927353714933	1.08128029270731	880.092920401498	-13.3413295556624	55.3607182326582	0.581412790339681	-0.61480648400794	0.000875991550992383	0.000868665646425182
0.87	-2.21496296759055	1.06004516406045	880.034752672092	-13.3623067488285	55.1760149965464	0.565072584696873	-0.597843062094214	0.000851566430064676	0.000661069573536066
0.88	-2.11763022928476	1.03932889761769	879.993180286019	-13.3922768619887	54.9699172504659	0.549676379452056	-0.582335547250174	0.00081711029988818	0.000427953731242936
0.89	-1.96877457682972	1.01977010430109	879.981054656139	-13.4307626104619	54.7446493127666	0.536260054592303	-0.56964638492133	0.000773407725922604	0.00017091368530664
0.9	-1.76119832067052	1.00226759128947	879.99947657166	-13.4753051546481	54.5070244329466	0.525838881927708	-0.560970614100296	0.000723313211670629	-0.000102379255778995
0.91	-1.50184946282266	0.987676741739214	880.039509889088	-13.5218710312307	54.2678457311289	0.519285969578935	-0.557148662378121	0.000671306255682125	-0.000378986154772942
0.92	-1.2113667892079	0.976576572325773	880.086962773152	-13.5656714034723	54.0404234757761	0.517218675932538	-0.558540134208036	0.000622627679704779	-0.000642737510640645
0.93	-0.920339760546093	0.969159183372342	880.128205334211	-13.6021400500582	53.8385475189906	0.519902681554297	-0.564972996445524	0.000582255685545374	-0.000876964920310863
0.94	-0.66313901605843	0.965248955476589	880.154826593583	-13.627805933893	53.674387179564	0.527187362749923	-0.575770751810576	0.000553988618150925	-0.00106722899548906
0.95	-0.470806681783306	0.964426036007988	880.165546680413	-13.6408607010634	53.5567839697642	0.538488096328242	-0.589849848262213	0.000539836057332876	-0.00120339844289874
0.96	-0.364745573863798	0.966212746763646	880.164924187489	-13.6413232394652	53.4902686914054	0.552826438067854	-0.605869227774336	0.000539819981411505	-0.00128067059168263
0.97	-0.352741966167418	0.970278796498223	880.15962711622	-13.6308067061331	53.4749287688177	0.568928000873441	-0.622404961985478	0.000552188528099129	-0.00129944792028197
0.98	-0.428247099597418	0.976621352854059	880.153955772727	-13.6119772198962	53.5070432424318	0.585365566407196	-0.638119459018824	0.000573964455224507	-0.00126428899128783
0.99	-0.572985474207425	0.985670333523254	880.14661033771	-13.5878503703356	53.5802464986534	0.600727821547655	-0.651900243671771	0.000601692367435347	-0.00118235080657514
1	-0.762081605705656	0.998261047269885	880.130266759669	-13.5610995189353	53.6869037047104	0.613794353510638	-0.662956734327005	0.000632213062489173	-0.00106179540658635
1.01	-0.970243668708449	1.01542422711865	880.094477459582	-13.5335447828263	53.8193805473969	0.623701025036862	-0.670877940957305	0.000663284715919032	-0.000910556740715274
1.02	-1.17730144317585	1.03798897407715	880.031083499586	-13.5059490164985	53.9709521495174	0.630079250968174	-0.675660509956381	0.000693898383038349	-0.000735696899930527
1.03	-1.37164319115251	1.06607831533765	879.94018251128	-13.478168446417	54.1362025518154	0.63314463655632	-0.677710414514944	0.000724204960633967	-0.000543378793471216
1.04	-1.55076242015238	1.09866675951372	879.834196428399	-13.4496055794138	54.310898500421	0.633700847866249	-0.677807655424464	0.000755073538324602	-0.000339298122271348
1.05	-1.71900972249868	1.13340838508552	879.737988116134	-13.4198196741636	54.4914572389611	0.633026497478586	-0.677014189310775	0.000787409557197249	-0.000129293848130208
1.06	-1.88347348130495	1.16688817586635	879.684224803583	-13.3890996639896	54.6742378731288	0.632636617567376	-0.676512751335841	0.000821436916666363	8.01785818572154e-05
1.07	-2.04943013759901	1.19530079798716	879.704873849935	-13.3588185179616	54.8549364205413	0.633953259578488	-0.677389704551855	0.000856159722225303	0.00028196481460907
1.08	-2.21685800172724	1.21537865664806	879.821224090914	-13.3314630498009	55.0283316928621	0.637963916001503	-0.680406610702597	0.00088916062979516	0.00046863036490058
1.09	-2.37909934170313	1.22526368578597	880.035563236777	-13.3103382467556	55.1885125625984	0.644967673013557	-0.685824360699365	0.000916788309622274	0.000633307671066508
1.1	-2.52403077609551	1.22501437918213	880.327295621995	-13.2990373858989	55.3295487061541	0.654491687091962	-0.69333701759869	0.000934678914934151	0.000770732417770259
1.11	-2.6372989130255	1.2165697392389	880.654957685301	-13.3008167509334	55.4464038048291	0.665407911427665	-0.702140167900788	0.000938482438214372	0.000878138495858605
1.12	-2.70654487709911	1.20319652380263	880.963759440241	-13.3180114460445	55.5357947023504	0.676213095550988	-0.711114228833578	0.000924637758986102	0.000955700923208125
1.13	-2.72526345724809	1.18863259139549	881.19660658664	-13.351595215962	55.5967129754749	0.685382035480599	-0.719066243218383	0.000891049731662319	0.00100634808748939
1.14	-2.69509274905422	1.1762297566262	881.3056161749	-13.4009473182626	55.630445941931	0.691685949176459	-0.72495927707966	0.000837549322019848	0.00103496783726864
1.15	-2.62584974858368	1.1683668690571	881.261210050058	-13.4638569564133	55.6401168869114	0.694389654477322	-0.728070680351999	0.000766053384670617	0.00104723517973682
1.16	-2.5333442698876	1.16627421982009	881.056850770795	-13.5367679470581	55.6299362807519	0.693291265070646	-0.728051715190152	0.000680386120536336	0.00104841697020969
1.17	-2.4356847177347	1.17024334030886	880.708945516607	-13.6152343105639	55.604446488292	0.688624905468116	-0.724897125453876	0.000585783093451475	0.00104251058331595
