Time [s]	GRFml [N]	GRFap [N]	GRFv [N]	Mml [N.m]	Map [N.m]	Mv [N.m]	Mfree [N.m]	COPml [m]	COPap [m]
0.01	16.3324060175174	6.09242413273517	826.232380381602	-74.9899430541232	2.01459961248822	-3.14217888907972	-1.67469046716534	0.00112684753546682	0.000477100686542109
0.02	16.5124770136849	6.19013524991854	825.694753084258	-74.9190050026146	1.96434442600264	-3.22714254579364	-1.74360439071828	0.00106795143132119	0.000454292477734708
0.03	16.6885963455045	6.28585127561455	825.170235592486	-74.8486226319208	1.91499522993752	-3.3104798088475	-1.8112632699322	0.00101010301582423	0.000430686746253739
0.04	16.8572687296695	6.37834229676466	824.67034723498	-74.7801238958814	1.86732614737986	-3.39078551669764	-1.87657726421652	0.000954210374075434	0.000406604045371906
0.05	17.0153089032087	6.4665445198821	824.205710195525	-74.7148258010133	1.82203086528289	-3.46678214508201	-1.93855431018094	0.000901086689452755	0.000382451912625967
0.06	17.1599747044438	6.54960666015282	823.785589064731	-74.6540014417641	1.77969493586119	-3.53737055954606	-1.99633835496657	0.000851417736657267	0.000358736385542277
0.07	17.2890726848061	6.62692861676143	823.417507823649	-74.5988517225693	1.74077392370305	-3.6016712491889	-2.04924066198945	0.000805736320717555	0.000336070611770364
0.08	17.4010303146394	6.6981903689578	823.106964653292	-74.5504828188337	1.7055785562365	-3.65905388914122	-2.09676261860485	0.00076440500730102	0.000315179550602604
0.09	17.4949313533456	6.76336934556786	822.857257676007	-74.5098899564806	1.674267568238	-3.70915384280396	-2.13860899677721	0.00072760792746822	0.000296899993404334
0.1	17.5705136265106	6.82274497127892	822.669426973632	-74.4779475945998	1.64684841829717	-3.75187504639979	-2.17469118880288	0.000695351829531488	0.000282175386829037
0.11	17.6281310734636	6.87688966202909	822.542310626975	-74.4554056152405	1.62318553648697	-3.78737955647699	-2.2051205216297	0.000667475940840178	0.000272045200697998
0.12	17.6686842996887	6.92664620074018	822.472705629112	-74.4428906943981	1.60301527862631	-3.81606482776347	-2.2301923084998	0.000643669641304214	0.000267628825683736
0.13	17.6935258219058	6.97309213399317	822.455618774952	-74.4409116802251	1.58596635118667	-3.83853047357075	-2.25036179264635	0.000623496481192557	0.000270104205310373
0.14	17.7043476026126	7.01749254351566	822.484588322101	-74.4498675631974	1.57158416345897	-3.85553680341915	-2.2662135472785	0.00060642273208483	0.000280681599288499
0.15	17.7030592565894	7.06124321409037	822.552054513959	-74.4700565044936	1.55935738233596	-3.86795780466022	-2.2784261984394	0.000591848464040938	0.000300573042442007
0.16	17.6916654471489	7.10580679355583	822.649755979998	-74.5016843996419	1.54874492126725	-3.87673142198606	-2.28773451926847	0.000579139103322681	0.000330958209726187
0.17	17.6721504990425	7.15264497807764	822.769129483261	-74.5448715909229	1.53920168801415	-3.88280998968516	-2.29489100022971	0.000567655539523642	0.000372947528045189
0.18	17.6463772095584	7.20315002273923	822.9016922749	-74.5996565908742	1.53020163348127	-3.88711349773778	-2.30062893216263	0.000556781102840669	0.000427543493614388
0.19	17.6160053506483	7.25857895129644	823.039389171809	-74.6659960188714	1.52125696338446	-3.89048804657932	-2.30562885701672	0.000545944095397664	0.000495601260894207
0.2	17.5824335628566	7.31999371083714	823.174890085912	-74.7437603549404	1.51193276481046	-3.89367139731301	-2.31048996076842	0.000534635001270947	0.000577789663900111
0.21	17.5467664022135	7.38821019282831	823.301827780645	-74.8327255472888	1.50185672446222	-3.89726699077883	-2.31570762555557	0.000522417979630092	0.000674553908034808
0.22	17.5098063720729	7.46375854175722	823.414969803961	-74.9325609386266	1.4907240362369	-3.90172722948819	-2.3216579486677	0.000508936723882284	0.00078608122298357
0.23	17.4720689999805	7.54685652951474	823.510322576933	-75.042814368565	1.47829797597824	-3.90734623033611	-2.3285896020745	0.000493915207831931	0.000912270785676114
0.24	17.4338175292296	7.6373970317453	823.585169282866	-75.162895636473	1.46440692888741	-3.91426169997115	-2.33662297539429	0.000477154202735754	0.00105270919779278
0.25	17.3951126784087	7.73494985282884	823.638046343491	-75.2920597484253	1.44893886595042	-3.922465090753	-2.34575614380509	0.000458524708636011	0.0012066527271271
0.26	17.3558722355557	7.8387773633914	823.668665786383	-75.4293915081961	1.43183436534786	-3.93181878893525	-2.35587685329892	0.000437959580431229	0.00137301739144143
0.27	17.3159350133274	7.94786269141003	823.677792657028	-75.5737930389939	1.41307925948069	-3.94207878607014	-2.36677943700646	0.000415444635468304	0.00155037777621465
0.28	17.2751238777728	8.06094859256246	823.667087812515	-75.7239757416256	1.39269786521583	-3.95292109950623	-2.37818538034544	0.000391010408371054	0.00173697523723168
0.29	17.2333031238855	8.17658465543662	823.638926989638	-75.8784580154913	1.37074754147821	-3.96397013998163	-2.38976614533363	0.000364725485419573	0.0019307358530927
0.3	17.1904263295044	8.29318019810006	823.596207030109	-76.0355698069269	1.34731503983735	-3.97482726789244	-2.40116684503184	0.000336692030809134	0.00212929817311816
0.31	17.1465718828475	8.40906009570859	823.542149644604	-76.1934647247738	1.32251480135359	-3.98509792248403	-2.41202942142438	0.000307043744845474	0.00233005046741125
0.32	17.1019645486033	8.52252084106087	823.48011218585	-76.3501400975431	1.29648904035423	-3.99441593248712	-2.42201411304813	0.0002759461093208	0.00253017684422582
0.33	17.0569826154639	8.6318843642217	823.413413658699	-76.5034649619428	1.26940917600185	-4.0024639016282	-2.43081818793812	0.000243598419244368	0.00272671127164478
0.34	17.0121512658146	8.73554749466962	823.345182699532	-76.6512155888113	1.24147795457451	-4.00898888529325	-2.43819114672063	0.000210236811331091	0.00291659824101606
0.35	16.9681237526468	8.83202540219694	823.278232582358	-76.7911177866424	1.21293147161818	-4.0138129127147	-2.44394585332611	0.000176137309830331	0.00309675855131356
0.36	16.9256527052726	8.91998785826251	823.214966527142	-76.9208948883408	1.18404026692725	-4.01683824120219	-2.44796531102868	0.000141617840603906	0.00326415848597829
0.37	16.8855543807513	8.99828767398794	823.157314769814	-77.0383200336506	1.15510872980121	-4.01804753668086	-2.45020505528967	0.000107038223119578	0.00341588050250277
0.38	16.8486689199529	9.06598115392532	823.106703077409	-77.1412711150215	1.12647220988154	-4.01749944319815	-2.45069137034131	7.27973315549056e-05	0.00354919346196099
0.39	16.815819663576	9.122340822224	823.064050732402	-77.2277865637415	1.09849146308118	-4.01532022209464	-2.44951574408294	3.93269014306748e-05	0.00366162038952705
0.4	16.7877743592427	9.16686100540953	823.02979454483	-77.2961200202658	1.07154434779866	-4.01169230215533	-2.44682614834946	7.08181667741399e-06	0.00375100177416407
0.41	16.7652106849258	9.19925708021663	823.00393425366	-77.3447918619933	1.04601499357982	-4.00684068195239	-2.44281586354374	-2.34728947131968e-05	0.00381555248150897
0.42	16.7486879752666	9.21945931377492	822.986093816521	-77.3726355579724	1.02228096031924	-4.00101816480543	-2.43771065425887	-5.1877742637286e-05	0.00385391046439341
0.43	16.7386264200613	9.22760224555421	822.975592611605	-77.3788368883616	1.00069915982419	-3.99449038830094	-2.43175514367521	-7.76961841639763e-05	0.00386517560800262
0.44	16.7352943634351	9.22401050326649	822.971520518579	-77.3629642122282	0.981591496337948	-3.98752153962994	-2.425199228669	-0.000100532559076199	0.00384893724148504
0.45	16.7388037193446	9.2091818320489	822.972811211964	-77.324988194859	0.965231278796416	-3.98036153277114	-2.41828532607934	-0.00012004921277673	0.00380528908761867
0.46	16.7491129777135	9.18376797453782	822.978308766044	-77.2652897174016	0.951831454592551	-3.97323527319493	-2.41123714700971	-0.000135981458378187	0.00373483071152467
0.47	16.7660368385574	9.14855389568371	822.986823779195	-77.1846550857873	0.941535611882244	-3.96633446107473	-2.4042505663383	-0.000148149151203814	0.00363865487334751
0.48	16.7892611990319	9.104435724068	822.99717659252	-77.0842581257259	0.93441250432047	-3.95981219657497	-2.39748699706481	-0.000156463889840788	0.00351832059144702
0.49	16.8183620374969	9.05239769911333	823.008226692547	-76.965629282895	0.93045458668491	-3.95378046239921	-2.39106950395861	-0.000160931195129441	0.00337581218098409
0.5	16.852826684352	8.99348838139807	823.018888922552	-76.8306124220835	0.929580737035636	-3.94831038059508	-2.38508170964873	-0.000161647419461928	0.00321348504055485
0.51	16.8920760265998	8.92879640323117	823.028138545617	-76.6813106090189	0.9316430099679	-3.94343498241906	-2.37956937051903	-0.000158791565061922	0.00303399950172793
0.52	16.9354863400204	8.85942610218275	823.035008372399	-76.5200227312943	0.936436946492059	-3.93915409962663	-2.37454434045614	-0.000152612601243309	0.00284024460975173
0.53	16.9824096541724	8.786473477539	823.038581971731	-76.3491733339097	0.943714687795797	-3.93544088812346	-2.3699905067949	-0.000143413229006016	0.00263525423766979
0.54	17.0321918054066	8.71100301952542	823.037987335342	-76.1712384732073	0.953199926965006	-3.93224943303814	-2.36587118139544	-0.000131531314702299	0.0024221184144876
0.55	17.0841875979615	8.63402606195472	823.032395221654	-75.9886706953941	0.964603602571593	-3.92952285791555	-2.36213736453287	-0.000117320379824693	0.0022038931322962
0.56	17.137772752861	8.55648137954723	823.021025756906	-75.8038263929564	0.977639200894011	-3.92720136765465	-2.35873627129047	-0.000101130578985075	0.00198351215008774
0.57	17.1923525630377	8.47921877378742	823.003165773889	-75.6188987633856	0.99203659084074	-3.92522969122667	-2.3556195181621	-8.32915222065567e-05	0.00176370440142551
0.58	17.2473673796707	8.40298635379104	822.978197915888	-75.4358593803915	1.00755346031306	-3.92356345144163	-2.35275040857267	-6.40981111776798e-05	0.00154692051627876
0.59	17.3022952222179	8.32842211637297	822.945640863119	-75.2564109919248	1.0239836400289	-3.92217407019199	-2.35010982590273	-4.38002821457832e-05	0.00133527167350078
0.6	17.3566519298694	8.25605026495393	822.905198317205	-75.0819535993403	1.04116186985296	-3.92105191405171	-2.34770033669679	-2.25972079072178e-05	0.00113048351299892
0.61	17.4099893550945	8.18628248967224	822.856812786561	-74.9135651784773	1.05896485849161	-3.92020749267926	-2.3455482201956	-6.36139469229607e-07	0.000933867173659855
0.62	17.4618921430753	8.11942417619102	822.800718929813	-74.7519976180797	1.07730878341738	-3.91967063742602	-2.34370326823208	2.19843027558563e-05	0.000746308716372782
0.63	17.5119736485338	8.05568523705808	822.73749039344	-74.597687623724	1.09614364839715	-3.91948770633984	-2.34223633676695	4.52069167951852e-05	0.000568277284559091
0.64	17.5598715194738	7.99519498763208	822.668073844495	-74.4507815204397	1.1154451386601	-3.91971698065629	-2.34123477142293	6.90055939350971e-05	0.000399851399599582
0.65	17.6052434321309	7.93802023879834	822.593804318923	-74.3111721385307	1.13520477162415	-3.92042253263983	-2.34079596820564	9.33728883594762e-05	0.00024076184253001
0.66	17.6477633994485	7.88418556923861	822.516397087933	-74.1785453342607	1.15541922417701	-3.92166695025187	-2.34101946033882	0.000118306597325709	9.04486944328237e-05
0.67	17.6871190026084	7.83369458586924	822.437912928928	-74.0524332210277	1.1760797233871	-3.92350339474358	-2.34199803529507	0.000143796479415104	-5.18706487586257e-05
0.68	17.7230098163562	7.78655089306398	822.360695847535	-73.9322708965991	1.19716232133932	-3.92596753646769	-2.34380847483532	0.000169812158695192	-0.000187126257314332
0.69	17.7551472174798	7.74277747571845	822.287284749044	-73.817453363064	1.21861974826934	-3.92906995544404	-2.346502567582	0.000196293103839257	-0.000316317391660506
0.7	17.7832556837744	7.70243325977358	822.220303074322	-73.707389448517	1.24037536798433	-3.93278960058277	-2.35009906173987	0.000223141352343692	-0.000440435458191876
0.71	17.8070756089947	7.66562574377713	822.162332748324	-73.6015498385342	1.26231956522114	-3.93706887050835	-2.35457720029919	0.000250217394591122	-0.00056039238230747
0.72	17.8263675778836	7.63251878973626	822.115780692841	-73.4995067834888	1.28430869614529	-3.94181080747291	-2.35987241032892	0.000277339366514928	-0.000676958240403105
0.73	17.8409179646457	7.60333491081062	822.082747412325	-73.4009636264741	1.30616654895572	-3.94687878472762	-2.36587460302987	0.000304285448503232	-0.00079071143050391
0.74	17.8505456391332	7.57835168451643	822.064907608703	-73.3057729510114	1.32768810623477	-3.9520989211946	-2.37242938697462	0.000330799154254854	-0.000902003917126137
0.75	17.855109489484	7.55789223829472	822.063412327835	-73.2139428301091	1.34864528400377	-3.95726528309049	-2.37934231196345	0.00035659703323483	-0.00101094320822001
0.76	17.8545164011749	7.54231008358184	822.078820782748	-73.1256313226135	1.36879424850878	-3.96214774117934	-2.38638605692342	0.000381378213300493	-0.00111739176710565
0.77	17.8487292747178	7.53196889850796	822.111067824082	-73.0411299689451	1.38788387909802	-3.966502157838	-2.39331026639454	0.000404835176595479	-0.00122098358990494
0.78	17.8377746225411	7.52721816191287	822.15947021	-72.9608375551382	1.40566494789163	-3.97008239467783	-2.3998535417339	0.000426665184242802	-0.00132115674707553
0.79	17.8217492651882	7.52836580728499	822.2227716117	-72.8852258216731	1.42189961455345	-3.97265347369663	-2.405756920506	0.000446581829129361	-0.00141719984795388
0.8	17.8008256525072	7.53564928069914	822.299222972883	-72.8147990838503	1.43637087589117	-3.97400510617655	-2.41077804448098	0.000464326282234154	-0.00150830968155427
0.81	17.775255370461	7.54920653987492	822.386691739703	-72.7500499062624	1.44889165393133	-3.97396473463639	-2.41470513447384	0.000479677886495189	-0.00159365674518955
0.82	17.7453704601491	7.56904861229695	822.482790900471	-72.6914130468371	1.45931324316555	-3.9724092214226	-2.41736986654686	0.000492463825502632	-0.00167245501228987
0.83	17.7115822718505	7.59503533167929	822.585016988229	-72.6392198730032	1.46753286184207	-3.96927436610443	-2.41865828219294	0.000502567640160439	-0.00174403211808528
0.84	17.6743777000415	7.62685578970887	822.69088540112	-72.5936553726742	1.4735000617275	-3.96456154129352	-2.41851896374403	0.000509936380236326	-0.00180789615293223
0.85	17.634312789415	7.66401487340064	822.798051689173	-72.5547197532127	1.47722174839694	-3.95834089688486	-2.41696785960038	0.000514586163058972	-0.00186379543707989
0.86	17.5920038584052	7.70582701127575	822.904408839883	-72.5221964551861	1.47876555649863	-3.95075078594148	-2.41408934205879	0.000516605879684108	-0.00191176799175405
0.87	17.5481164448651	7.75141793250694	823.008152957562	-72.4956282112636	1.47826132107139	-3.94199329804527	-2.41003331031345	0.000516158756170763	-0.00195217790067474
0.88	17.5033525259029	7.79973486583433	823.107812861275	-72.474302554311	1.47590039754485	-3.93232603203919	-2.40500839711108	0.000513481462959325	-0.00198573635268601
0.89	17.4584365870677	7.84956518799236	823.202242729376	-72.457247917461	1.47193261947137	-3.92205048263649	-2.39927158299316	0.000508880486159533	-0.00201350584760768
0.9	17.4141012017863	7.89956309725176	823.290580647454	-72.4432411643186	1.4666607516413	-3.91149763745623	-2.39311475070944	0.000502725543526681	-0.00203688680932168
0.91	17.3710728184348	7.94828346183646	823.372179402625	-72.4308270309693	1.46043240009268	-3.90101156722348	-2.38684890934514	0.00049543995033508	-0.00205758665549177
0.92	17.3300584310289	7.99422160164317	823.446518758942	-72.4183495476443	1.4536294774001	-3.89093192937028	-2.38078697056969	0.000487488012726499	-0.00207757219204605
0.93	17.2917337264961	8.03585742979697	823.513110446582	-72.40399503743	1.44665548364547	-3.88157638492642	-2.37522605902404	0.000479359736070729	-0.00209900699924713
0.94	17.2567331593878	8.07170212960267	823.571407984979	-72.3858457713128	1.43992103763837	-3.87322394544508	-2.3704303797113	0.0004715533636604	-0.0021241762188622
0.95	17.2256422134243	8.1003453885947	823.620733127059	-72.3619428115807	1.43382826245526	-3.86610022025718	-2.3666156455781	0.000464556482069099	-0.00215540180153978
0.96	17.1989918851934	8.12050116428242	823.660229166939	-72.3303560268259	1.42875477549471	-3.86036542835026	-2.36393599006396	0.000458826617589488	-0.00219495179407464
0.97	17.1772551911738	8.13105001832752	823.688848725515	-72.2892587466499	1.42503813769186	-3.85610588115815	-2.36247415721486	0.000454772379154619	-0.00224494760577791
0.98	17.1608452809637	8.13107622276037	823.705380155292	-72.2370040824759	1.4229616637278	-3.85332944306756	-2.36223558365333	0.000452736257966246	-0.00230727336655737
0.99	17.1501145634019	8.11989810258668	823.708512712515	-72.1721996132245	1.42274247424535	-3.85196524815785	-2.36314677209635	0.000452980161172068	-0.00238349146099928
1	17.1453541413007	8.09709041758208	823.696936513431	-72.0937769582342	1.42452257782659	-3.85186770844523	-2.36505811674768	0.000455674633703227	-0.00247476808881709
1.01	17.1467928217322	8.06249798192697	823.669469424354	-72.0010527643057	1.42836360754966	-3.85282460490722	-2.3677510895599	0.000460892515315297	-0.00258181227118649
1.02	17.1545950307021	8.01624015042482	823.625199816125	-71.8937778375129	1.43424561425476	-3.85456882163513	-2.3709494466847	0.000468607503852926	-0.00270483111589268
1.03	17.1688571123851	7.95870623960681	823.563631869624	-71.7721715579036	1.44207005255083	-3.85679307841639	-2.3743338803567	0.000478697772436915	-0.00284350340416147
1.04	17.1896017228634	7.89054237597138	823.484819089029	-71.6369393155056	1.45166680736495	-3.85916684916875	-2.37755933664422	0.000490954443904183	-0.00299697270964643
1.05	17.216770316739	7.81263064785911	823.389471988572	-71.4892714727552	1.46280482271105	-3.86135453221302	-2.38027405657452	0.000505094388791126	-0.00316386035227613
1.06	17.2502140454417	7.72606176026417	823.27902756561	-71.330823251028	1.47520563518016	-3.86303387020994	-2.38213928782456	0.000520776511400275	-0.00334229757611827
1.07	17.2896837075964	7.63210263511234	823.155671028317	-71.1636759051757	1.48855890548339	-3.86391360667053	-2.38284856438846	0.000537620447152821	-0.00352997547007967
1.08	17.3348196820716	7.53216054994438	823.02230406465	-70.9902805296662	1.50253890114509	-3.86374941305692	-2.38214546670829	0.000555226433643544	-0.00372421036861927
1.09	17.3851430024224	7.42774545822649	822.882458380375	-70.8133867693074	1.5168208250341	-3.86235722300684	-2.37983885481313	0.000573195050981754	-0.00392202181621187
1.1	17.4400488707159	7.32043208407402	822.740157896589	-70.6359595240903	1.53109591329923	-3.85962326213858	-2.37581470774986	0.000591145559558389	-0.00412021968564036
1.11	17.498803939153	7.21182323949245	822.599737456899	-70.4610873851908	1.54508433984552	-3.85551025410149	-2.3700438954712	0.000608731692225294	-0.00431549672842861
1.12	17.5605485979568	7.10351558668857	822.465629744566	-70.291886972327	1.55854515231269	-3.85005950432167	-2.36258544221169	0.000625653971559954	-0.00450452271744974
1.13	17.6243052958945	6.99706878115529	822.342135001307	-70.1314075310962	1.57128270937066	-3.84338879873455	-2.35358509842367	0.000641667902612116	-0.00468403641741504
1.14	17.6889935940149	6.89397860757057	822.233189813068	-69.9825400799133	1.58314936880053	-3.83568629130472	-2.34326930530713	0.000656587712880502	-0.00485093187781213
1.15	17.7534522322085	6.79565438768139	822.142151539874	-69.8479350759483	1.5940444653745	-3.82720077706135	-2.33193489542147	0.000670285646595155	-0.00500233596359546
1.16	17.816467999431	6.70340062576313	822.071613899689	-69.7299320227316	1.60390989193242	-3.81822894360786	-2.31993510941797	0.000682687141486111	-0.00513567459103739
1.17	17.8768106764478	6.61840258982355	822.023266879553	-69.6305037098139	1.61272283357509	-3.80910035248163	-2.30766270922727	0.000693762497116482	-0.00524872578216716
1.18	17.9332728039457	6.54171532809931	821.99781076445	-69.5512169105836	1.62048638534719	-3.80016101390197	-2.29553112149896	0.000703515863255465	-0.00533965834960183
