Time [s]	GRFml [N]	GRFap [N]	GRFv [N]	Mml [N.m]	Map [N.m]	Mv [N.m]	Mfree [N.m]	COPml [m]	COPap [m]
0.01	1.98461404425836	1.48005803253445	863.876245729757	-3.33153021381566	17.4755193453727	1.23790279990504	-1.27543848633856	-0.0018551034444596	-0.0162521503707773
0.02	2.45784304588845	1.49195392213926	862.800920769312	-3.42390062677906	17.3693769612778	1.21858772339863	-1.2584428158277	-0.00196973958996582	-0.0163519728941664
0.03	2.87118847855373	1.49949748259976	861.684291363677	-3.49415802822523	17.2880173970206	1.20024767302618	-1.24207757972117	-0.00205884977006265	-0.0164217487204734
0.04	3.17981518530465	1.49347157735832	860.488292255637	-3.5210138722198	17.2476871052947	1.18463444809461	-1.22767810366968	-0.00209780834802809	-0.0164415375432413
0.05	3.35147099612641	1.46160981236209	859.195153662227	-3.48717248492508	17.2649825952532	1.17343684613872	-1.21651160647574	-0.00206648634361895	-0.0163914427840278
0.06	3.36873248905894	1.39122248436737	857.814776514773	-3.38253929662625	17.3566038484674	1.1677800355759	-1.20934988165325	-0.00195296180630911	-0.0162520529701212
0.07	3.22886965319089	1.27403941121819	856.388073584639	-3.2073990456914	17.5377511437456	1.16762849364735	-1.20598319095542	-0.0017572447495765	-0.0160063931098463
0.08	2.94150611192623	1.11131051458171	854.984940955022	-2.97423152397511	17.819923835054	1.17135565801531	-1.20489661408502	-0.00149345739610873	-0.0156424737902399
0.09	2.52483033691571	0.91679649642238	853.696347154205	-2.70689978545111	18.2090680471424	1.17574550991341	-1.20332473478741	-0.00118897862606282	-0.0151553230579462
0.1	2.00143487891241	0.715937766924541	852.621724107196	-2.43668816369823	18.7047839719582	1.17656605484007	-1.19778976827906	-0.000879920464903372	-0.0145476996953839
0.11	1.39479134731069	0.540898321849955	851.854722838949	-2.19580547327534	19.3008157169249	1.16965077570808	-1.18505390991712	-0.000603629622048296	-0.0138292949460356
0.12	0.726962037140099	0.422732890708556	851.471372027562	-2.01003132791545	19.9865459635568	1.15222066121122	-1.16324538368837	-0.000390149992652189	-0.0130148274965183
0.13	0.0175911809150952	0.382997887209506	851.523963171421	-1.89271651559697	20.7489023638555	1.12405274939003	-1.13281349965312	-0.000255212790701287	-0.0121217749101631
0.14	-0.716260396468774	0.427345330377215	852.041651648399	-1.84210598228392	21.5740412192985	1.08809757868527	-1.09697030383194	-0.000197050990751846	-0.0111684667199299
0.15	-1.46008481166923	0.543002888528845	853.035796163067	-1.84299204388175	22.4483719011715	1.05027082799696	-1.06138881198198	-0.000198227266211215	-0.010172960575301
0.16	-2.20220836839224	0.700869265924201	854.505887290623	-1.87235260280537	23.358802667434	1.0183579802011	-1.03312066194642	-0.00023209733410634	-0.00915271284112829
0.17	-2.93446245353092	0.861690937377409	856.441660072528	-1.90734644308113	24.2923843885187	1.00021604012768	-1.01891798544037	-0.000272039947435188	-0.00812473107573242
0.18	-3.65280675274758	0.98481081200677	858.818877188594	-1.93325186055378	25.235701358941	1.00166962079656	-1.02333731878808	-0.000300667057154036	-0.00710577747577168
0.19	-4.35714293744676	1.03747991464319	861.589537087876	-1.94889780000905	26.1743744606591	1.02462609349616	-1.04711531554314	-0.000316176272713409	-0.00611228975494144
0.2	-5.04964510152039	1.00270191404121	864.670503547247	-1.96785727969125	27.0929310006421	1.06593946198063	-1.08630002062729	-0.000333833752075852	-0.00515991786451703
0.21	-5.73147105373816	0.883937457162603	867.936362496824	-2.01492872211234	27.9751214159679	1.11742104889144	-1.13248352422676	-0.000382021557664758	-0.0042628218814077
0.22	-6.39850550586742	0.70561691407167	871.221852808011	-2.11884308477414	28.8045924784766	1.16714077075711	-1.17422802164186	-0.000493911374589873	-0.00343303512369436
0.23	-7.03745906693846	0.509204241033822	874.33652884889	-2.30328140563138	29.5657099905521	1.20183282441795	-1.19945842687605	-0.000697149729185553	-0.00268021304891031
0.24	-7.62385620582222	0.345430629092166	877.090270376943	-2.57882507197298	30.2442893753103	1.20989368703379	-1.19829261354928	-0.00100456384427361	-0.00201196395235448
0.25	-8.12303803191833	0.264147285272697	879.32425220328	-2.93822457029811	30.8280456454312	1.18423657663323	-1.1655910053615	-0.00140863317557915	-0.00143473811610922
0.26	-8.49440974917432	0.303858662872522	880.939447528361	-3.35642543736694	31.3066968362621	1.12423205006043	-1.10251002854792	-0.00188139308016011	-0.000955013249108072
0.27	-8.69812353990774	0.483209999327872	881.914627772235	-3.79541062301673	31.6718051074352	1.03615851945066	-1.01656682870843	-0.00237986182811001	-0.000580341526857875
0.28	-8.70259994419176	0.796399229012962	882.308284860792	-4.21251998374305	31.9165603100764	0.931973514556187	-0.920119138839888	-0.00285548197508412	-0.000319788702070722
0.29	-8.49102176369526	1.21367477851229	882.243192925064	-4.56991550259984	32.0357503334726	0.826686158644739	-0.827617990062746	-0.00326492698927028	-0.000183428037711431
0.3	-8.06523099593378	1.68693063313348	881.877062289888	-4.84257869542897	32.0260984746224	0.735012332039173	-0.752352779610384	-0.00357929092102116	-0.000180821059764968
0.31	-7.44616876292942	2.15920018637785	881.366415958438	-5.02273518061198	31.8869992727898	0.668190888670863	-0.70355242239355	-0.00378924676143499	-0.000318740084862268
0.32	-6.67086516009632	2.57590260108017	880.832373584212	-5.11972663589199	31.6215039637956	0.631766776267107	-0.684582581625258	-0.00390503242694007	-0.000598658956654008
0.33	-5.78675793921324	2.89527481856673	880.336183889502	-5.155719235649	31.2372603788546	0.624836302001518	-0.692633948024927	-0.00395167917290906	-0.00101467165093716
0.34	-4.84461784242596	3.09565414167066	879.869603408112	-5.15880525662911	30.7470529501462	0.640815069866008	-0.719854861639683	-0.00396122980753943	-0.00155245311795171
0.35	-3.89150985169352	3.17810292647534	879.361529974176	-5.15565897212108	30.1686420704462	0.66937944687411	-0.755494709927796	-0.00396439061884246	-0.00218966362085971
0.36	-2.96505133686001	3.16405948798485	878.698649372616	-5.16579373530477	29.5237619003981	0.698973473779429	-0.788411153581367	-0.00398394272431268	-0.00289786592478042
0.37	-2.08984469605268	3.08892274435394	877.75497254871	-5.19872977925431	28.8363651598798	0.719223369472732	-0.809298639018794	-0.00403141209772828	-0.00364564649202204
0.38	-1.27649951292927	2.99339244825275	876.423438512183	-5.25432014804705	28.1304409973727	0.722740479434699	-0.812180665646767	-0.00410730006484328	-0.00440229397566366
0.39	-0.523230638783636	2.91475411587783	874.642420745504	-5.32547850503743	27.4279032822576	0.706041969134734	-0.794982007465723	-0.00420404130624585	-0.00514118193025065
0.4	0.180323819779602	2.88005640165076	872.411066138901	-5.40193524542484	26.7470860758547	0.669580167869172	-0.759257467076906	-0.0043101555671603	-0.00584200345669689
0.41	0.847686246938541	2.90240597292267	869.78984641802	-5.47358014534896	26.1022605479537	0.617070338469901	-0.709328384338777	-0.00441397670985477	-0.00649124412163976
0.42	1.48936969519332	2.98066246718741	866.886199447128	-5.53238563855367	25.5043257782329	0.554408242422885	-0.651142846480181	-0.0045058279851673	-0.00708071830686147
0.43	2.10698857774181	3.10195100000775	863.829023783297	-5.57262701547396	24.9624959060374	0.488477968357366	-0.591147872415936	-0.00457832031362349	-0.00760452761281505
0.44	2.68879402729117	3.24585357446862	860.739100412386	-5.58982837143534	24.4865039629647	0.426094375567721	-0.535379482348269	-0.00462524785675777	-0.00805528209961298
0.45	3.20772216286797	3.38899493416595	857.704208248009	-5.57930622678991	24.0886573843835	0.37323460740569	-0.48887605595781	-0.00464005033112946	-0.00842071325365995
0.46	3.62274329044426	3.50896317324817	854.767009110498	-5.53522412435016	23.7850668898163	0.334614740624823	-0.455426299982292	-0.00461485624932934	-0.00868180527445128
0.47	3.88374109859353	3.58695797973546	851.930560113664	-5.45074280257037	23.5955371930304	0.313578889334352	-0.437588711029946	-0.00454075184931002	-0.00881325780526021
0.48	3.93941227380493	3.60905895124661	849.181228574107	-5.31932007551586	23.541916520735	0.312202954092263	-0.436872135641376	-0.00440932653245052	-0.00878653164312526
0.49	3.74691988592676	3.5663995942798	846.523214058826	-5.13671075038091	23.6450794420877	0.331484655409851	-0.453952240166459	-0.00421498359829253	-0.00857505239288053
0.5	3.28145803734656	3.45473568708592	844.014538503888	-4.9029342770963	23.921074991664	0.371500868425591	-0.488818408895082	-0.00395719233019654	-0.00816052664233935
0.51	2.54367251351983	3.2739025644411	841.79273607165	-4.62350309856093	24.377223913034	0.431458333656714	-0.540794613580198	-0.00364188982449987	-0.00753892719607707
0.52	1.56314360208628	3.02751070901995	840.080276586769	-4.30949218786174	25.0090310954299	0.50962929212194	-0.608441634865338	-0.00328156561666448	-0.00672464563207514
0.53	0.396871454340985	2.72299823709505	839.164640720785	-3.97643470816255	25.7986637753324	0.603227012343522	-0.689405703285449	-0.00289401548856849	-0.00575162754944153
0.54	-0.877224399920113	2.37190591551572	839.354601083334	-3.64237792907171	26.7154487152493	0.708316032139092	-0.780310412920212	-0.00250014035330071	-0.00467093882278269
0.55	-2.17062835207267	1.99002739914047	840.920774891724	-3.32560632504445	27.7184226443402	0.819856032165404	-0.876784580694169	-0.0021213576052691	-0.00354501567097842
0.56	-3.39629729498306	1.59698363197806	844.033082026134	-3.0425112781974	28.7605253477572	0.931947425646147	-0.973682163142853	-0.00177716092416347	-0.00243963030796024
0.57	-4.47999651360015	1.21484291423852	848.709147471144	-2.80592647801483	29.7936650295191	1.03829226393774	-1.06549559829008	-0.00148318702733496	-0.00141515536927911
0.58	-5.36867223078819	0.86568485270341	854.785622658281	-2.62406344500243	30.7737082609078	1.13282173150398	-1.14690849467591	-0.00124994547911783	-0.000518882159245282
0.59	-6.0344549808084	0.568431021947593	861.919490376323	-2.50005827132493	31.6645032875859	1.21038691531527	-1.21339173879806	-0.00108223431622079	0.000220113649056108
0.6	-6.47403001610737	0.335685722320262	869.619975298131	-2.43210042296609	32.440318802301	1.26737610940542	-1.26172746930334	-0.000979221432981681	0.000792691226407238
0.61	-6.70421009050069	0.171548254743565	877.30530670391	-2.41411705645185	33.0864864812758	1.30212021094802	-1.2903517807944	-0.000935172197022327	0.00120789592786641
0.62	-6.75527667391523	0.0712240609322701	884.373737204487	-2.43696788794715	33.5984518188536	1.31498349059236	-1.29943971880453	-0.000940776044045188	0.00148846543293685
0.63	-6.66384873823225	0.0227660703508895	890.275916663696	-2.49002718606299	33.9797472649907	1.30810731218609	-1.29071127756796	-0.000984927411250447	0.00166484338435813
0.64	-6.46673277733544	0.0105795160564789	894.576323123589	-2.56290591265256	34.2395337006408	1.2848644797133	-1.2670047454415	-0.00105666968386087	0.00176911824760329
0.65	-6.19660827376512	0.0196957785122427	896.994660316425	-2.64696087601281	34.3903037327062	1.24916570353981	-1.23172663272698	-0.00114688810157193	0.00183010103011499
0.66	-5.87976897908347	0.0395278769407937	897.423048286188	-2.73622258232437	34.4461505217922	1.20480656453086	-1.18832394466404	-0.00124932293606994	0.00187028187179816
0.67	-5.535669842048	0.0659938331648234	895.920154064451	-2.8274899840145	34.4217552644339	1.15503034582311	-1.1399166523499	-0.00136061308592994	0.00190482442232381
0.68	-5.17779409529043	0.101468702639351	892.687726063551	-2.91956946778997	34.3320128714249	1.10240646212041	-1.08917144954744	-0.00147934941923733	0.00194224046361557
0.69	-4.81531280163791	0.152767762950387	888.037209823341	-3.01190250287942	34.1920575978771	1.0490090911181	-1.03840784040548	-0.00160443023858281	0.00198606848693039
0.7	-4.4550671286002	0.227978243887589	882.353832068471	-3.10303281018837	34.0173966577612	0.996768694123115	-0.989837005865872	-0.00173325419411785	0.00203681764040697
0.71	-4.10348408519865	0.333224179331645	876.0632187659	-3.18942999975002	33.8239048996491	0.947805367121974	-0.94577990167881	-0.00186036562789815	0.00209360446144197
0.72	-3.76810851666992	0.470312285674461	869.602441116572	-3.26508454841493	33.6275440667075	0.904564352942149	-0.90871830342501	-0.00197704911480912	0.00215520500936184
0.73	-3.45850463540774	0.635781200431694	863.394755570739	-3.32205218453055	33.4437980161178	0.869656717444282	-0.881100832786716	-0.00207208979206419	0.0022205406513659
0.74	-3.18636577789494	0.821372795786909	857.826231933646	-3.35183340604038	33.2869154134484	0.845428822241543	-0.864929206711307	-0.00213356447073676	0.00228880422661526
0.75	-2.96477685291147	1.0155587330737	853.223160702873	-3.34722002624593	33.1690970599665	0.833394806156398	-0.8612468708661	-0.00215121652371164	0.00235946760502537
0.76	-2.80669252476462	1.20558530025551	849.830972667096	-3.30410150773121	33.0997554194736	0.833724793357021	-0.869704277681139	-0.00211878889720252	0.00243231735001109
0.77	-2.72281600964135	1.37952606933002	847.79727744508	-3.22273496623433	33.0849313831509	0.84496878533445	-0.888362609289638	-0.00203569251467128	0.00250752097220963
0.78	-2.71918552205901	1.52796527312532	847.162483911848	-3.10813221460449	33.126910255528	0.8641218532112	-0.913827378535262	-0.00190756351592158	0.00258562243910265
0.79	-2.79489557788908	1.64508365722823	847.860800208177	-2.96945463543145	33.2240601269069	0.887032295465124	-0.941703959521175	-0.00174555485391348	0.0026673595875874
0.8	-2.94047823343846	1.7290381095539	849.732451176477	-2.81856212222797	33.3709244292086	0.909059693989272	-0.96727613363696	-0.00156453051133287	0.00275328572881084
0.81	-3.13749314889788	1.78162219470663	852.545483006551	-2.66806796836782	33.558616491142	0.925833368441426	-0.98625566630731	-0.00138059722273098	0.00284330586346637
0.82	-3.35975567628325	1.80729262428798	856.023487267903	-2.52935859352853	33.7755567297598	0.93395313053945	-0.99544634966023	-0.00120855363848638	0.00293632553514517
0.83	-3.5763275263805	1.81175788076644	859.87463826844	-2.41102459094633	34.008542327387	0.931504504417414	-0.993201272991723	-0.00105983001069165	0.003030200764705
0.84	-3.75594266109879	1.80043112567125	863.81776250188	-2.31802680293971	34.2440507552112	0.918311565827568	-0.9796082848429	-0.000941341681005015	0.0031220672740086
0.85	-3.8720735668225	1.77711186671078	867.602441561752	-2.25172372473724	34.4695854768769	0.895905603595562	-0.956397246059876	-0.000855431563456688	0.00320896668858872
0.86	-3.90754009811186	1.74324509899634	871.02185353035	-2.21066937592552	34.6748189363165	0.867237077648076	-0.926612206424695	-0.000800800363722431	0.00328855176309251
0.87	-3.85756448449812	1.69800197017317	873.918684566135	-2.19191467592089	34.8523055242591	0.836197063162678	-0.894126606724871	-0.000774095934396923	0.00335960077630615
0.88	-3.7305027365682	1.63925071063245	876.185680873838	-2.19245854387798	34.9976253062492	0.807038154963634	-0.863096295413293	-0.000771716453673243	0.00342211735426956
0.89	-3.54602011464721	1.56527818961204	877.763115499191	-2.21051436221264	35.1089466554066	0.783788217564003	-0.837439754636248	-0.000791398878345895	0.00347690668033945
0.9	-3.33103623412199	1.47692210511503	878.635526206647	-2.24635948645967	35.1861192180403	0.769731091837408	-0.820407040400388	-0.000833287686942241	0.00352465587295275
0.91	-3.11417826028656	1.37961576620592	878.829451407347	-2.30266482800204	35.229496646411	0.766993442695119	-0.814257141276032	-0.000900343699977824	0.003564672937031
0.92	-2.91968686615928	1.28475998430897	878.412540226675	-2.38429847710617	35.2387349275076	0.776243884765225	-0.820026363797502	-0.00099808615269692	0.00359354869214079
0.93	-2.76176963240724	1.20984993352997	877.492591002064	-2.49763197014454	35.2118282962421	0.796499427861357	-0.837358964956657	-0.00113372327634687	0.00360410257557198
0.94	-2.6403868866842	1.17693354524861	876.213423108563	-2.64937065222364	35.1446395737069	0.825054247974603	-0.864395772341887	-0.00131473443154306	0.00358503930227722
0.95	-2.53943123375644	1.20928730044219	874.743940536835	-2.8449417271612	35.0311450292271	0.857584966596284	-0.897766157902374	-0.00154698434418565	0.00352172668048162
0.96	-2.42815598847785	1.32665187046224	873.258108686552	-3.08656629753078	34.8645173168643	0.888514096922411	-0.932772638576134	-0.00183254416230283	0.00339833680870727
0.97	-2.26635864390402	1.53989306864562	871.906954354401	-3.37132590919813	34.6389900420456	0.911694521933672	-0.963858931426834	-0.002167579161656	0.00320123959118845
0.98	-2.0130913400602	1.84638892396555	870.78815548014	-3.6897417361605	34.3521966770786	0.92139634410288	-0.985390102933942	-0.00254086873915305	0.00292305399931464
0.99	-1.637578756727	2.2275988062641	869.922413158558	-4.0254861781953	34.0074229589778	0.913450661696186	-0.992657806033778	-0.00293361477245735	0.00256630973764349
1	-1.12986976363855	2.64998822508072	869.246485442124	-4.35671512434791	33.6150667368001	0.886283494563918	-0.982898006355002	-0.00332103603123501	0.00214547088598332
1.01	-0.5080474420653	3.06973019730948	868.629261817347	-4.65910026793765	33.1926693827425	0.841521192293028	-0.956033279058322	-0.00367579516612271	0.00168630307710671
1.02	0.180907418314278	3.44053298428869	867.910057493715	-4.91004719551659	32.763208854996	0.783912064389938	-0.914875445824013	-0.00397266378304517	0.00122225411933724
1.03	0.868038358375939	3.72287994783795	866.949788392086	-5.09302582788589	32.3518586842848	0.720487672067059	-0.864657586897282	-0.00419323814505357	0.000788484216500851
1.04	1.47619335550172	3.89230691291128	865.679330595954	-5.20067982943325	31.9819517815808	0.659126788670929	-0.811968560329523	-0.00432925726537525	0.000415080992767047
1.05	1.93726449178997	3.94439067218989	864.128259430717	-5.23560653275638	31.6712367580386	0.606894863778975	-0.763362346375919	-0.00438334250776506	0.000121452490065399
1.06	2.20791585343319	3.89494268148463	862.422486301675	-5.20840544368793	31.4295206762	0.568623991853588	-0.724028119468559	-0.00436676287079307	-8.63269182233006e-05
1.07	2.27890984780405	3.77526118485934	860.749586466732	-5.13355438450934	31.2584207063747	0.546128953969434	-0.696886371086278	-0.00429488005111922	-0.000214316441785822
1.08	2.17500422477851	3.62373938178307	859.302134221478	-5.02450967497321	31.1533067771709	0.53824624813863	-0.682328436377105	-0.00418182777462073	-0.000275998123468291
1.09	1.94542630527388	3.47616327236982	858.217697985869	-4.88977201797376	31.1068229243926	0.541614838796273	-0.678600512668762	-0.00403633112544644	-0.000285573712807241
1.1	1.64802895394089	3.35732497847368	857.535985845013	-4.73132993558068	31.1128675672111	0.551891133104497	-0.682632909608099	-0.00386018073167982	-0.000251467115910231
1.11	1.33224845935551	3.27607024988363	857.188152520056	-4.54599036935844	31.1697696736668	0.564986089168851	-0.691003129676171	-0.00364986570908465	-0.000172169006864675
1.12	1.02620056109846	3.22481476503289	857.022452212676	-4.32898805128874	31.2816678764704	0.577956576353431	-0.700729226404554	-0.00340063774572719	-3.5780538708452e-05
1.13	0.731645385505493	3.18329045194813	856.858170822183	-4.07838811403522	31.4576876613407	0.589345710750755	-0.7097008850742	-0.00311133155310372	0.000176608078127805
1.14	0.427772004915655	3.12521536088722	856.550416570828	-3.7985151040246	31.7092137933254	0.598978321902193	-0.716716928396361	-0.00278799074506009	0.000484806918097658
1.15	0.0818342852748943	3.02598768434582	856.045005682646	-3.5010565475065	32.0461331859093	0.607399600943459	-0.721244853155311	-0.00244484361043362	0.000902625905859433
1.16	-0.337368064807793	2.86946661367257	855.406218613784	-3.20341107519521	32.4731911140128	0.615238390246452	-0.72309866082662	-0.00210221873878869	0.00143230450960963
1.17	-0.847689522075292	2.65232729922997	854.809100703211	-2.92489362898744	32.9874913875165	0.622758957291379	-0.722222784668587	-0.00178214960624612	0.00206188293817133
