Time [s]	GRFml [N]	GRFap [N]	GRFv [N]	Mml [N.m]	Map [N.m]	Mv [N.m]	Mfree [N.m]	COPml [m]	COPap [m]
0.01	-2.55066912429796	1.539452212753	877.51130774821	-13.5225052427902	62.8258629757626	0.812155178977228	-0.883060332301353	0.00136568831805906	0.00587360728796738
0.02	-2.54594075486656	1.65536598647941	878.099551510933	-13.5229862134714	62.8051103845903	0.792199569314097	-0.871382119985146	0.00137448761351477	0.00580053799018154
0.03	-2.54530752122422	1.75256402126869	878.65720626349	-13.5137404631741	62.7845638878705	0.774155105091654	-0.860245261338617	0.00139380684779777	0.00573007227400663
0.04	-2.54951865955521	1.81615262141474	879.164171536433	-13.4879356528951	62.7646520922152	0.759867765616991	-0.85044009107701	0.00143106349004196	0.00566423933948185
0.05	-2.55512232803001	1.83645776715683	879.611542766391	-13.4424966125972	62.7452400640457	0.750474137270148	-0.842472145356963	0.0014896073554288	0.00560355900720938
0.06	-2.55511790819469	1.80998367072032	880.000563134106	-13.3783879211091	62.7257697249328	0.746231557011769	-0.8364509688858	0.00156837943636323	0.00554729314675101
0.07	-2.54143086127257	1.73920164500796	880.337514826225	-13.2998193363439	62.7055988871506	0.746521196980437	-0.832044312247592	0.00166272105020326	0.00549424079585059
0.08	-2.5082172617954	1.63138858435981	880.6269817823	-13.2127626318608	62.6842860376803	0.749976877931757	-0.828479327736488	0.0017659365372038	0.00544359419450524
0.09	-2.45462188741419	1.49696598919313	880.866657117517	-13.1233359227447	62.6615719331094	0.754679986953574	-0.824581777065065	0.00187103550033163	0.00539531985643016
0.1	-2.38578204003852	1.347842765358	881.046109914507	-13.0365601892787	62.6369439618366	0.758382128860972	-0.81886720036469	0.00197212462449436	0.0053497446304353
0.11	-2.31149958465922	1.19612356773377	881.150093864851	-12.955785712664	62.6088778319394	0.758750834884355	-0.809713258260348	0.00206512058676411	0.00530641180753472
0.12	-2.24285334842877	1.05328628306676	881.164986951471	-12.8828247383729	62.5740469126667	0.753652485763268	-0.795631398048035	0.00214771632185418	0.00526265475784837
0.13	-2.18779977481489	0.929686519433282	881.085701361054	-12.8186019318406	62.5268909571113	0.741473627147951	-0.775614807403172	0.00221876601479787	0.00521254992706871
0.14	-2.14726126662655	0.834129650856464	880.920369300345	-12.7640024563321	62.4598936454269	0.721441080701325	-0.749484041633092	0.00227740403906129	0.00514686341089388
0.15	-2.11318048861187	0.773308115188118	880.691171577984	-12.7205776360524	62.3647312344398	0.693856661725013	-0.718111137155209	0.0023222556286332	0.00505430471182722
0.16	-2.06950435770242	0.751090180249653	880.431246130941	-12.6908490335045	62.2341723174573	0.660145086974216	-0.68340598846879	0.00235103398775227	0.00492395199654699
0.17	-1.99616844050145	0.767859820930502	880.178968645722	-12.6781007694173	62.0643196942549	0.622644228749435	-0.648006678966641	0.00236067350396219	0.00474827470088646
0.18	-1.87512416352382	0.820230207342522	879.971516590286	-12.6857205007128	61.8565899830116	0.584142007548385	-0.614713604603388	0.00234796531177628	0.00452590809890241
0.19	-1.69661915842744	0.901415382214074	879.839395586352	-12.7162906132813	61.6188026540096	0.547256785393499	-0.585808917102718	0.00231049591447097	0.00426332816798652
0.2	-1.46363371024032	1.00235083202939	879.802800156377	-12.770700907166	61.3649232978973	0.513829505135619	-0.562465120756295	0.00224759504439442	0.0039748399912149
0.21	-1.19278765337751	1.11337890104908	879.869783132297	-12.847534316937	61.1133379024777	0.484513779690522	-0.54443981923235	0.00216100494686544	0.00368074553458192
0.22	-0.911106146770241	1.2260716839345	880.035662215848	-12.9428824812621	60.8839344801728	0.458702846991622	-0.530174378711499	0.00205508139842614	0.00340405646895819
0.23	-0.649436274466047	1.33465666647795	880.283108466774	-13.0506202078853	60.6946202155533	0.434832699587812	-0.517287519812613	0.00193648292595927	0.00316651612610486
0.24	-0.434528725341767	1.43659578415059	880.582847596028	-13.1630576993269	60.5581018600478	0.410981030661024	-0.503323977832969	0.00181343938358547	0.00298488048309054
0.25	-0.282352474168796	1.53213329244166	880.895525147675	-13.2718319328096	60.4797401168961	0.385581942602687	-0.48652936963288	0.0016947680728352	0.00286833608409609
0.26	-0.19484462658495	1.62298808286318	881.175614175806	-13.3688971766998	60.4570485248742	0.358031167399348	-0.46640753510301	0.0015888133802765	0.00281763079415376
0.27	-0.161121253673324	1.71069100558355	881.377953395668	-13.4475024871553	60.4809978473857	0.328983605746268	-0.443882992921546	0.00150244907726782	0.00282604947342396
0.28	-0.162625202831388	1.79522348562336	881.466542853492	-13.5030637446187	60.5388120701939	0.300238876674775	-0.421017795502394	0.00144024262754638	0.00288190343767242
0.29	-0.180350418637931	1.87451749105379	881.423898345684	-13.533827858095	60.6175316896745	0.274243105751446	-0.40037668114065	0.00140386802712766	0.00297184275390538
0.3	-0.201651262239983	1.94504125007189	881.258172002437	-13.5411985468308	60.7073958506312	0.253363308836494	-0.384247810040917	0.00139186565455607	0.00308413428581367
0.31	-0.22441885769829	2.00323828949422	881.005038086177	-13.529585945071	60.8041334961337	0.239170292794995	-0.373969828543775	0.00139985138160892	0.00321111038499072
0.32	-0.257427389821659	2.04719652139327	880.722399409677	-13.505697825862	60.9095570913946	0.231967367960365	-0.369575295131251	0.0014212323669418	0.0033502552896032
0.33	-0.316998707501756	2.07777857425	880.478128794869	-13.477320614103	61.0303400914447	0.230722054473449	-0.369850992988396	0.0014483770702709	0.00350377991069101
0.34	-0.421304515849086	2.09863097791437	880.333587018992	-13.4518083513848	61.1753868467609	0.233422291453768	-0.372776531093933	0.00147403913226696	0.00367693496059346
0.35	-0.584242129122944	2.11495112337666	880.327520825035	-13.434634948923	61.3526065250973	0.237734445139357	-0.376182353327753	0.00149271277220442	0.00387562197671393
0.36	-0.810744140664841	2.13143970758303	880.465281101896	-13.4283951069831	61.5660512650816	0.241739014223356	-0.378406932017347	0.00150157021371278	0.00410400250788651
0.37	-1.09473250250751	2.15026248716236	880.716850455289	-13.432528109609	61.8142263842368	0.244497743863259	-0.378748205171354	0.00150073315146826	0.00436274536982095
0.38	-1.41999814874427	2.16990324013777	881.024417973566	-13.4438166607125	62.0899838478536	0.246270241938442	-0.377586157972827	0.00149283430527947	0.00464831713364411
0.39	-1.76342078641957	2.18546581960926	881.317211632118	-13.4574651898118	62.3819113075521	0.248324660714337	-0.376169254601996	0.00148205284617986	0.00495339297639791
0.4	-2.09940443127868	2.190399257263	881.529107839254	-13.468389055801	62.6767013759008	0.252428891424549	-0.376165366381346	0.00147296442187483	0.00526815345528836
0.41	-2.40430165888309	2.17901605893923	881.613927669856	-13.4723148252511	62.9617669394309	0.26021504360868	-0.379142483761921	0.00146956977424773	0.00558203486438763
0.42	-2.6598760382932	2.14880761120495	881.554416036951	-13.4664046188548	63.2274079185994	0.272644165828834	-0.386148522203578	0.00147475523673624	0.0058854629338051
0.43	-2.85533332605847	2.10159677060871	881.363181635018	-13.4493150613971	63.4680820710907	0.289750584161984	-0.397507675204233	0.00149025281742177	0.00617120229665924
0.44	-2.98792741055327	2.04300493257247	881.0764688898	-13.4207966246939	63.6826659895089	0.310735726843181	-0.412865850117795	0.0015169910478765	0.00643512858536105
0.45	-3.06245164676413	1.9803782052371	880.743621822015	-13.38106157307	63.8738781009309	0.334351257097109	-0.431431245477155	0.00155562481236549	0.00667639615801546
0.46	-3.08999526209308	1.91994388673849	880.415865623859	-13.3301729712999	64.0471827264614	0.359408412972337	-0.452297191176261	0.00160702088005171	0.00689707917141952
0.47	-3.08622672470999	1.86429765375461	880.137460005375	-13.2676527567249	64.2094877067295	0.385211359898792	-0.474720482090997	0.00167253100640108	0.0071013996468377
0.48	-3.06929176297411	1.81121941045365	879.940765217771	-13.192414810197	64.3678421821971	0.411749754096097	-0.498260699756323	0.00175396522561277	0.0072946544003531
0.49	-3.05732813787778	1.75432394413874	879.845023399273	-13.1030352195332	64.5282239916444	0.439583788087439	-0.522749656012572	0.00185325472259734	0.00748195653290146
0.5	-3.06568641407889	1.68536880020535	879.857418942488	-12.9982939092179	64.6944518390222	0.469475307730622	-0.548129799031166	0.00197185867050997	0.00766694272654345
0.51	-3.1041804362005	1.59743275332437	879.974671671053	-12.87786251568	64.8672891099741	0.501914527366435	-0.574249251952088	0.00211002713811625	0.0078506568196699
0.52	-3.17494465851181	1.48786960089868	880.184008398974	-12.74297376258	65.0438877833799	0.536726888113473	-0.600710695318062	0.0022660825133044	0.00803086435090933
0.53	-3.27158072645256	1.36003250525299	880.463418787855	-12.5968943748263	65.2177794762889	0.57290729446437	-0.626839556297599	0.0024359116178827	0.00820203454893498
0.54	-3.38011626161545	1.22319773867977	880.782027792007	-12.4450470731215	65.3795890060798	0.608737803881054	-0.651779832938907	0.00261284925736227	0.00835611798689534
0.55	-3.48187452521072	1.0907186548129	881.101738892291	-12.2946922537954	65.5185014132511	0.642139550978859	-0.674670260073081	0.00278806825884026	0.00848406187576251
0.56	-3.55778764104804	0.976994589328819	881.38089406563	-12.1541775522569	65.6242938743543	0.671132894262176	-0.694824552470189	0.00295147835950504	0.00857779277041265
0.57	-3.59317303185203	0.894168712130736	881.579801555504	-12.0318691934563	65.6895312294015	0.694258045664554	-0.711848230488496	0.0030930066602497	0.00863223029896348
0.58	-3.5817211724953	0.849490964663557	881.667060425493	-11.9349605576854	65.7114061700369	0.710842189397409	-0.725662987107189	0.00320402815085741	0.00864683731044452
0.59	-3.52752862751397	0.844020107089109	881.625102401616	-11.8683843245966	65.6927378078965	0.721065941309497	-0.736455587861977	0.00327867202371745	0.00862628834497986
0.6	-3.44446094872823	0.87289781393981	881.453499923647	-11.8340270217937	65.6418257025684	0.725850449784448	-0.744598137775366	0.00331476052533219	0.00858003245993694
0.61	-3.35283972596984	0.926954161646564	881.169276589403	-11.8303731109195	65.5711383719195	0.72663141828697	-0.750587321836215	0.00331422530885239	0.00852078671331297
0.62	-3.27422221405415	0.995042161912903	880.804375612629	-11.8526184113194	65.4951129117595	0.725098281930721	-0.755025549462291	0.00328295556655622	0.00846225692247993
0.63	-3.22564743384748	1.06635365934506	880.401179328368	-11.8932174241838	65.4275704434145	0.722961124926771	-0.758632964005598	0.0032301261637756	0.00841658073207108
0.64	-3.21495840366873	1.13207533040791	880.007227317381	-11.942779983949	65.3793479917033	0.721778126488481	-0.762254678267691	0.00316711300275041	0.00839207800568237
0.65	-3.23857693434787	1.18605400897407	879.670012850779	-11.9912061986523	65.356686154743	0.722846261234913	-0.766824002275782	0.00310613039034857	0.00839184916702923
0.66	-3.28244912439074	1.22453522948276	879.432184440393	-12.028930784881	65.3607111164819	0.727137513896715	-0.773260202670075	0.00305874021053465	0.0084135823564841
0.67	-3.32597750103491	1.24536617664107	879.32702223461	-12.0481269450772	65.388063832999	0.735256399301328	-0.782309201506712	0.0030344030885846	0.00845064448799754
0.68	-3.34787632989015	1.24719020492656	879.374009556986	-12.0436979832509	65.4324362875072	0.747401031109767	-0.794363729595532	0.0030392685038424	0.00849420133068957
0.69	-3.33230123482128	1.22906112401651	879.574743188337	-12.013880052756	65.4865549446805	0.763323708740099	-0.809313269038631	0.00307541343109796	0.00853582385908647
0.7	-3.2735028544166	1.19062822214818	879.910090820697	-11.9603156573809	65.5440656322093	0.782300417964446	-0.826467768854788	0.00314070677840472	0.0085698816556305
0.71	-3.17768003646583	1.13271989854262	880.339986346768	-11.8875465819943	65.6008444812998	0.803126222811355	-0.8445763981964	0.00322938046947174	0.00859506145102651
0.72	-3.06153590866415	1.05793381836849	880.807146208444	-11.8020031153189	65.6554622309119	0.824154286151484	-0.861935442741721	0.00333323807873265	0.00861458784730762
0.73	-2.94801166429365	0.970822900283718	881.245126147567	-11.7106958606704	65.7087999440305	0.843392586002931	-0.876561179732241	0.00344327017094381	0.00863510532793049
0.74	-2.86048124425952	0.877451641189397	881.589721668388	-11.6199011603181	65.7630683594588	0.858666257203284	-0.886400547864421	0.00355132782337175	0.00866459199749892
0.75	-2.81708603522956	0.7843929525682	881.791282604226	-11.5341383205263	65.8206423715933	0.867843833703124	-0.889559980515059	0.00365147735605842	0.00870998084324714
0.76	-2.82676597362825	0.697499291648215	881.824712063252	-11.4556606575602	65.8831392921428	0.869109994480786	-0.884539046473052	0.00374073540635766	0.00877525378280697
0.77	-2.88796861564924	0.620892126443641	881.694210219949	-11.3845450201922	65.951043608376	0.861246514752285	-0.870451172097184	0.00381904477823169	0.00886060641343939
0.78	-2.99019547469643	0.556527651202795	881.431224931391	-11.3193062531126	66.023957896763	0.843864444637575	-0.847199994499909	0.0038885518437326	0.00896290731888683
0.79	-3.11773813895253	0.504463340210951	881.086121968692	-11.2578292043731	66.1013180572239	0.817526044569093	-0.815568813762005	0.00395242775561389	0.00907722423702828
0.8	-3.2543978005586	0.463678407035026	880.716027146556	-11.1983386268553	66.1832366405787	0.783713723652215	-0.777186233224145	0.00401358562104659	0.00919882352618312
0.81	-3.38780798451889	0.433103925224214	880.372389712527	-11.1401359787597	66.2710933069039	0.744643307158337	-0.734358240358443	0.00407365230894585	0.00932490391955837
0.82	-3.51220734016125	0.412462485823572	880.091680650956	-11.083917045842	66.3675924883537	0.70296549018552	-0.689795782547877	0.004132456611049	0.00945545284871396
0.83	-3.62904249490921	0.402606288646113	879.891371794115	-11.031617476659	66.4762173419814	0.661430803798364	-0.64629755048729	0.00418812786336265	0.00959296175014324
0.84	-3.74544950111417	0.405228966100502	879.771468493535	-10.9858717641391	66.6002470211432	0.622593760977706	-0.606452994953359	0.0042377163095253	0.00974116968100736
0.85	-3.87126756627971	0.42204084609461	879.720106855404	-10.9492715279126	66.7416799723365	0.588600788537083	-0.572407780094894	0.0042781071536987	0.0099033559381882
0.86	-4.01560631457771	0.453675460247129	879.720689286229	-10.9236432553671	66.9004508712418	0.561061361033523	-0.545697586652779	0.00430694461444858	0.0100808411545044
0.87	-4.18401762158133	0.498692197265316	879.758001542756	-10.909532233167	67.0742243109205	0.540968374450995	-0.527130133395212	0.00432331689912524	0.0102722375589471
0.88	-4.37702240632252	0.553034822026451	879.82160729361	-10.9060019558107	67.2588341715858	0.528631874859471	-0.516697203893592	0.00432805032536066	0.0104736697010154
0.89	-4.59022831404975	0.610199570622605	879.906118000806	-10.9107721829981	67.449197179713	0.523620657069154	-0.513527631066116	0.00432357561646901	0.0106798004676469
0.9	-4.81573444606675	0.662181931410816	880.00914579457	-10.9206512907174	67.6403568355358	0.524748945152727	-0.515927776457676	0.00431342355605868	0.0108851981234093
0.91	-5.04414585895953	0.701048027080056	880.128434391313	-10.9321758895537	67.828276840406	0.53017012213493	-0.521568471342089	0.00430146712854707	0.0110854815094715
0.92	-5.26643461882416	0.720767896857905	880.259652809096	-10.9423414234987	68.0101144613683	0.537623864809378	-0.527846904725407	0.00429106256347966	0.0112778112208967
0.93	-5.47508966289536	0.718813218211951	880.395741729351	-10.9492795963884	68.1839187164469	0.544827290807666	-0.532383383695392	0.00428426662911363	0.0114605919468241
0.94	-5.66438367306311	0.69701447226934	880.527849512116	-10.9527166088934	68.3479317421509	0.549929943844144	-0.533536846784134	0.00428132102232059	0.011632590396839
0.95	-5.82997788789128	0.661321535263182	880.647176358497	-10.9540540471651	68.4998345350674	0.55190388291584	-0.530781036019188	0.00428057558366235	0.0117919184653116
0.96	-5.96832604558893	0.620402344734216	880.746752076098	-10.9559784969026	68.6363083968697	0.550742501944023	-0.524804718891423	0.00427894473468826	0.0119353877155923
0.97	-6.07634744022745	0.583376437279797	880.822375360169	-10.961631636487	68.7531682155535	0.547398499375877	-0.517283332863429	0.00427285166262903	0.0120585898934588
0.98	-6.1516419483744	0.557297944014071	880.87247170456	-10.9735283250861	68.8461046404314	0.543478286545503	-0.510382436405467	0.00425944561322522	0.0121567619810242
0.99	-6.19322283554212	0.545150691960185	880.897175118469	-10.9925355270721	68.9118309833205	0.540787994383701	-0.506145632350666	0.00423774319509573	0.0122261733449668
1	-6.20247805370002	0.54501459035477	880.89722800344	-11.0172573301262	68.9492596729546	0.54086254406171	-0.505950998751951	0.00420931143856762	0.0122655554447866
1.01	-6.18393957562144	0.550715697507378	880.873223059266	-11.0440790319603	68.9602988449969	0.544594653194034	-0.510180747191046	0.00417821304443333	0.0122770646149785
1.02	-6.14548095421035	0.553792474357078	880.825395651204	-11.0679255458364	68.9499747421956	0.552031513648167	-0.518163162864039	0.00415015287333576	0.012266428733144
1.03	-6.09774481124163	0.546172664825266	880.753852392433	-11.0835530899451	68.9258030467673	0.562352605022877	-0.528356837108218	0.0041310272365116	0.0122422042915498
1.04	-6.05284489871579	0.522725040823387	880.658991066659	-11.0870062303945	68.8965663831726	0.574006388048733	-0.538691810545001	0.00412528737424345	0.0122143467065084
1.05	-6.02259917473938	0.48291132576212	880.541963810884	-11.0768062775571	68.8708195272409	0.584971906297034	-0.546973126660465	0.00413460519266984	0.0121924728310314
1.06	-6.01666343340118	0.431081749849072	880.40522095544	-11.0545162059406	68.8554876154924	0.593111748054246	-0.551275588530132	0.00415724301925724	0.0121842259509574
1.07	-6.04093268787275	0.375402084178032	880.253244439885	-11.0245203282232	68.854848735971	0.596578377304547	-0.550287422945545	0.00418831221441995	0.0121940618766238
1.08	-6.09649356147296	0.325805557990813	880.093426091131	-10.9930927087492	68.8700489904027	0.594218391668925	-0.54357412921348	0.00422083684736385	0.0122226252361243
1.09	-6.17930111924924	0.291599991989141	879.93674127619	-10.9670267448661	68.8991508584835	0.585895925507481	-0.531728876528768	0.00424730992664535	0.0122667456275148
1.1	-6.28065530938182	0.279378656137738	879.797636327558	-10.9522009177597	68.9376143790412	0.572645105432534	-0.516366367217394	0.00426131037179789	0.0123199905224042
1.11	-6.38846144133541	0.291716333347716	879.692615211207	-10.9524421938678	68.9790696233239	0.556579257341408	-0.499923000324025	0.00425876513893719	0.0123736613118994
1.12	-6.489144211975	0.326867228094996	879.637444052188	-10.9689371842193	69.0162386212918	0.54053626905181	-0.48525936718628	0.00423857294393304	0.0124180816791037
1.13	-6.56992957369916	0.379415822866882	879.643530176398	-11.0002762863528	69.0418727886534	0.527512939960393	-0.475116888608942	0.00420250136197742	0.0124439802198639
1.14	-6.62104970164344	0.441635097920121	879.714559536845	-11.0430505079816	69.0495691705559	0.520011300028761	-0.47153838493307	0.00415446345791559	0.0124437182987801
1.15	-6.63734765025869	0.505203976948269	879.844596133286	-11.0927993414698	69.0343254496076	0.519459725961305	-0.475396146058349	0.00409941870664854	0.0124120975159214
1.16	-6.61884146046655	0.562915285574534	880.018450274824	-11.145056177418	68.9927209063517	0.525864042324834	-0.486161304794154	0.00404219585793697	0.0123465448334774
1.17	-6.57006888842687	0.610039944724827	880.214352861331	-11.1962565841683	68.9226940936205	0.537788560274001	-0.501992543861783	0.00398650331602379	0.012246634794454
1.18	-6.49839673376225	0.64508420188693	880.408157767508	-11.244345001973	68.823020071254	0.552680714981872	-0.52013651173826	0.00393430205376499	0.0121131301582307
