Time [s]	GRFml [N]	GRFap [N]	GRFv [N]	Mml [N.m]	Map [N.m]	Mv [N.m]	Mfree [N.m]	COPml [m]	COPap [m]
0.01	20.3545137461628	-3.01711140237765	636.686586103497	-27.5733895871066	4.78448550797951	0.113941598236107	1.01825370133383	-0.00206003038385042	-0.00532368012450767
0.02	20.459816317822	-3.20838476576903	636.502345033869	-27.5687534973522	4.69905942643362	0.0287979295601082	0.938787023100279	-0.00219271107450658	-0.00531494260242
0.03	20.5623033239417	-3.39692882452555	636.311081889115	-27.5626321952087	4.61500654140121	-0.0547611976133988	0.860685671114851	-0.00232310068501176	-0.0053079443446991
0.04	20.6594066929604	-3.58008641906666	636.111156933074	-27.5538596289067	4.53366337192524	-0.135054459902923	0.785474333920185	-0.00244909243736582	-0.00530441725111764
0.05	20.7487319812413	-3.75544954870143	635.901375793966	-27.5413168578917	4.45625596036517	-0.21048265031635	0.714606981839431	-0.00256876479393201	-0.00530606219537381
0.06	20.8281638554379	-3.92094313958574	635.681189456269	-27.5239972998787	4.38385550740097	-0.279588935373376	0.649413051592137	-0.00268045175118121	-0.00531445683793345
0.07	20.8959557013759	-4.07489054917417	635.45084938275	-27.5010647344032	4.3173425917365	-0.341112685213179	0.591049087648505	-0.0027827984650706	-0.00533097057876947
0.08	20.9507986398776	-4.21605769380572	635.211503506545	-27.4719007300727	4.25738174124091	-0.394034471631476	0.540457962661422	-0.00287479954078988	-0.00535669156687177
0.09	20.9918668014585	-4.34367409233741	634.965223581776	-27.4361391509687	4.2044074377011	-0.437610380726052	0.498337337173235	-0.00295581850720468	-0.00539236951310874
0.1	21.0188374118995	-4.45743058488245	634.714959854909	-27.3936864682896	4.15862190360339	-0.471394412183176	0.465118492798905	-0.00302558822673789	-0.0054383766895076
0.11	21.0318859265495	-4.55745489841982	634.464424788138	-27.3447276621338	4.1200042916062	-0.495248391659183	0.440956120226977	-0.00308419317054292	-0.00549468807551762
0.12	21.031657993745	-4.64426749082007	634.217913189273	-27.2897184656637	4.08833022700917	-0.509339463564306	0.425729098580133	-0.00313203553437246	-0.00556088025614727
0.13	21.0192213203542	-4.71872113275731	633.980071151966	-27.2293655172417	4.06320008455182	-0.514125821044607	0.419051796462094	-0.00316978801773201	-0.00563614749622968
0.14	20.9960014778903	-4.78192842884014	633.755630297734	-27.1645966017174	4.04407394702464	-0.510331837472613	0.420294981881967	-0.00319833669408609	-0.00571933249191685
0.15	20.9637062820805	-4.83518190710479	633.549126618863	-27.0965235554358	4.0303109160679	-0.498914167458444	0.428615065741345	-0.00321871774209268	-0.00580896868580258
0.16	20.9242435928587	-4.87987141713829	633.364624525994	-27.0264005752044	4.02121033387917	-0.481020672949519	0.442990132040931	-0.00323205188810046	-0.00590333074295549
0.17	20.8796372385596	-4.91740339154845	633.205466399761	-26.9555806212825	4.01605252442102	-0.457944198450611	0.462261030862902	-0.00323948024877881	-0.00600048980617476
0.18	20.8319453183507	-4.94912608185197	633.074066054557	-26.8854723652824	4.01413685879628	-0.431073274284683	0.485175724839619	-0.00324210489519739	-0.00609837043657675
0.19	20.7831844520803	-4.97626423040373	632.971761196816	-26.8174997443335	4.0148152670976	-0.401841780539557	0.51043507856287	-0.00324093693140322	-0.00619480663605614
0.2	20.7352627105696	-4.99986584551898	632.89873547218	-26.7530656895117	4.01751972691872	-0.371679474185698	0.5367383519379	-0.00323685424187141	-0.006287594965129
0.21	20.6899230593817	-5.02076287154404	632.854015415592	-26.6935210497712	4.02178272183158	-0.341965087720683	0.562826789429515	-0.00323057036356469	-0.00637454343421633
0.22	20.6486982678616	-5.03954665191173	632.835541981676	-26.640139182462	4.02725014584212	-0.313983469954645	0.587523873394398	-0.00322261522654389	-0.00645351548526842
0.23	20.6128774433189	-5.05655822809992	632.840310803431	-26.5940961737371	4.03368659874575	-0.288887977089757	0.609771017761362	-0.00321332782275516	-0.00652246893299502
0.24	20.5834837006368	-5.07189274881979	632.864570354197	-26.5564562249199	4.0409734437113	-0.267669051038683	0.628657706320516	-0.00320286023881256	-0.0065794901573307
0.25	20.5612620026378	-5.08541661828449	632.904063165192	-26.5281614222472	4.04910036017047	-0.251129654149068	0.643445318130269	-0.0031911919502619	-0.00662282410713921
0.26	20.5466759168596	-5.09679551402222	632.954292482045	-26.5100249136441	4.05815140761066	-0.239867973266911	0.653584123768942	-0.00317815283905246	-0.00665090078503144
0.27	20.5399119204565	-5.1055310644761	633.010795415717	-26.5027264514325	4.0682868124199	-0.234267565738958	0.658723175270019	-0.0031634530725842	-0.00666235884744244
0.28	20.5408899203335	-5.11100379339909	633.069403812054	-26.5068093165413	4.07972180097657	-0.234494896910445	0.65871304617813	-0.00314671777509243	-0.00665606679952221
0.29	20.5492788019634	-5.11251989986173	633.126475654248	-26.5226778001353	4.09270383409179	-0.240504012442541	0.653601603750642	-0.00312752432807208	-0.00663114202699167
0.3	20.564516033074	-5.10935952902348	633.179082628273	-26.5505946570173	4.10748956120575	-0.252047898240256	0.643623210501742	-0.00310544014912752	-0.00658696762737166
0.31	20.5858305826898	-5.1008243733248	633.225143231171	-26.5906782311495	4.12432272008614	-0.268695905337959	0.629181954004894	-0.00308005890770059	-0.0065232067211252
0.32	20.6122686322652	-5.08628269728875	633.26349513032	-26.6428992547683	4.14341407218043	-0.289856457497549	0.610829687984205	-0.00305103332869322	-0.00643981367521972
0.33	20.6427217235822	-5.06521017277565	633.293905006122	-26.707077607597	4.16492429710447	-0.31480411812084	0.589239828826356	-0.00301810299666145	-0.00633704148617046
0.34	20.6759570892936	-5.03722521937138	633.317018459517	-26.7828795641378	4.18895058186699	-0.342709974764417	0.565177983288962	-0.00298111588894783	-0.0062154444665821
0.35	20.7106499404691	-5.00211784577153	633.334256413227	-26.8698162333172	4.21551743893036	-0.372674209834184	0.53947057845057	-0.00294004272074113	-0.00607587536891371
0.36	20.7454174464381	-4.95987126813823	633.347667527706	-26.967243991344	4.24457207775472	-0.403759671251451	0.512972717254442	-0.00289498356384541	-0.00591947616405893
0.37	20.7788540495637	-4.91067583287069	633.359748325108	-27.0743677186805	4.27598444153097	-0.435025242907058	0.486536487010188	-0.002846166589568	-0.00574766186407252
0.38	20.8095676307734	-4.85493499277789	633.373243898449	-27.1902475762288	4.3095518085469	-0.465557845964994	0.460980900759916	-0.00279393917064372	-0.00556209702567343
0.39	20.8362159023788	-4.79326328104285	633.390942301222	-27.3138099017372	4.34500765075857	-0.494501980563145	0.43706455222204	-0.00273875194380169	-0.00536466487740837
0.4	20.8575422738485	-4.72647640368164	633.415475064757	-27.4438625883155	4.38203424645299	-0.521085842151042	0.415461917222146	-0.00268113676999951	-0.00515742935923751
0.41	20.8724103315856	-4.65557373687482	633.44913493339	-27.5791150403622	4.42027836641775	-0.544643213177499	0.396744044770238	-0.00262167982044888	-0.00494259072803156
0.42	20.8798360085983	-4.58171367866537	633.493720030512	-27.718202508473	4.45936920175276	-0.564630531325532	0.38136415921642	-0.00256099125110785	-0.00472243574479638
0.43	20.8790165019799	-4.50618247137011	633.550411470171	-27.8597143054602	4.49893758461887	-0.580638759305065	0.369648453876318	-0.00249967309551524	-0.00449928379837526
0.44	20.869355027534	-4.4303572851186	633.619689095393	-28.0022251216045	4.53863547845712	-0.592399915541902	0.361792110576357	-0.00243828709708184	-0.00427543061577566
0.45	20.8504805788229	-4.35566453423964	633.701287713973	-28.1443284081926	4.5781546876137	-0.59978835606709	0.357860343691995	-0.00237732421155486	-0.00405309144238216
0.46	20.8222619755268	-4.28353458304534	633.794194035773	-28.2846706011238	4.61724376157818	-0.602817111814985	0.357794055628736	-0.00231717743623411	-0.00383434572943579
0.47	20.7848156337561	-4.21535417853072	633.896682572938	-28.4219848243543	4.65572214696131	-0.601629770135716	0.361419515442126	-0.00225811946650946	-0.00362108542734017
0.48	20.7385066583838	-4.15241811401381	634.006387089405	-28.5551226556965	4.69349076850868	-0.596488534972678	0.368461342348247	-0.00220028644838402	-0.00341496894133849
0.49	20.6839430346502	-4.09588176683329	634.120402793039	-28.6830825603351	4.73053839339036	-0.587759200664379	0.378557996249585	-0.00214366879778047	-0.00321738265525158
0.5	20.6219628753682	-4.04671625083714	634.235413349264	-28.8050337013686	4.76694334251507	-0.575893827442753	0.39127894886773	-0.0020881097071147	-0.00302941166915097
0.51	20.5536148560226	-4.00566796683001	634.347835949138	-28.9203340185536	4.80287034828694	-0.561411914091864	0.406142728350409	-0.00203331157338843	-0.0028518210340954
0.52	20.4801321411637	-3.97322430954951	634.453977080767	-29.0285417189616	4.83856260809136	-0.544880830089308	0.422635090565431	-0.00197885017870267	-0.00268504831389349
0.53	20.4029002727914	-3.94958718936409	634.550191334561	-29.1294196354383	4.87432933402543	-0.526896203807616	0.440226662426796	-0.00192419605381723	-0.00252920777915377
0.54	20.3234196578214	-3.9346558459297	634.633035536049	-29.2229322660235	4.91052933894769	-0.508062874681588	0.458389515778621	-0.00186874207873251	-0.00238410596738843
0.55	20.2432634605099	-3.92802016899988	634.699410770875	-29.3092356921748	4.94755141426645	-0.488976915993299	0.476612253491089	-0.00181183604102705	-0.00224926775431513
0.56	20.1640318789842	-3.92896540216607	634.746685473344	-29.3886609653523	4.98579243460565	-0.470209131061534	0.494413312033851	-0.00175281660064575	-0.00212397150901071
0.57	20.0873039622941	-3.93648869613259	634.77279371307	-29.4616919279059	5.02563425892154	-0.452290327845317	0.511352297867874	-0.00169105091367436	-0.00200729138436791
0.58	20.0145883015441	-3.94932751040707	634.77630413446	-29.5289387717629	5.06742057941373	-0.435698591998557	0.527039271566311	-0.00162597205792687	-0.00189814435945619
0.59	19.947274097596	-3.96599935065636	634.756456651341	-29.5911089137967	5.11143489399847	-0.420848710481652	0.541141969111143	-0.00155711438573727	-0.00179533933465392
0.6	19.8865842565758	-3.9848517916523	634.713165907179	-29.6489769581359	5.15788074345644	-0.408083848427192	0.553391002432057	-0.00148414500501203	-0.00169762541196713
0.61	19.8335322778597	-4.00412119481484	634.646992574312	-29.703355604465	5.20686526191083	-0.397669549745565	0.563583111733285	-0.00140688975437607	-0.00160373649305173
0.62	19.7888847600485	-4.0219980111254	634.559085643822	-29.7550693339106	5.25838694321666	-0.389790113005814	0.571582553750354	-0.00132535228385247	-0.001512429508377
0.63	19.7531313405474	-4.03669609494217	634.451100788608	-29.804932553302	5.31232833297668	-0.384547382347435	0.577320708143927	-0.00123972516710832	-0.00142251395418371
0.64	19.7264637863837	-4.04652307545222	634.325101496694	-29.8537336052698	5.36845412535274	-0.381961981056934	0.580793975619882	-0.00115039234024259	-0.00133287094881748
0.65	19.7087657531347	-4.04994857481781	634.183450813061	-29.9022256653702	5.42641488657672	-0.381976995022984	0.582060033608105	-0.00105792256865568	-0.0012424607034931
0.66	19.6996144154819	-4.04566695845424	634.028702071117	-29.9511250667845	5.48575635542116	-0.3844640773293	0.58123251573504	-0.000963054069465114	-0.0011503180991586
0.67	19.6982947443055	-4.03265138072936	633.863496862722	-30.0011170451586	5.54593399808346	-0.389231888451758	0.578474195943513	-0.000866670842870556	-0.00105553692457024
0.68	19.7038266680469	-4.01019616646027	633.690477672066	-30.0528683150297	5.60633223451633	-0.396036706620661	0.573988790845902	-0.000769771671827268	-0.00095724420609912
0.69	19.7150047278788	-3.97794504916834	633.512221133054	-30.1070453143545	5.66628751850045	-0.404594941426896	0.568011545780521	-0.000673433115245486	-0.00085456688706792
0.7	19.7304491461408	-3.93590345906668	633.331195874499	-30.1643364267223	5.72511425711208	-0.414597166356635	0.560798838871689	-0.000578768126220654	-0.00074659383230067
0.71	19.7486665155013	-3.88443388750205	633.149746558664	-30.2254760531192	5.78213240753412	-0.425723162181799	0.552617117731257	-0.000486882155714619	-0.000632336684235957
0.72	19.7681176311075	-3.82423430340837	632.970103200262	-30.2912680939841	5.83669549897866	-0.437657345633636	0.543731567006399	-0.000398828738806629	-0.000510693430725538
0.73	19.7872893835428	-3.75630060033433	632.794412396647	-30.3626062481107	5.88821780049506	-0.450103860930623	0.534394981421291	-0.000315566594656948	-0.000380418624395494
0.74	19.8047671612759	-3.68187503911514	632.624784923222	-30.4404885583256	5.93619939381068	-0.462800550010174	0.524837376905944	-0.000237920197962968	-0.000240103998273823
0.75	19.8193039274427	-3.60238354675733	632.463352443273	-30.5260238435557	5.98024801240844	-0.475531003499076	0.51525690073094	-0.000166545601043767	-8.81727501028315e-05
0.76	19.8298820774221	-3.51936546492871	632.312324997928	-30.6204280486324	6.02009666813009	-0.488133937847563	0.505812590769828	-0.00010190301122032	7.71099640399855e-05
0.77	19.8357643765043	-3.4343998495267	632.17404057263	-30.7250090995067	6.0556162952745	-0.500509249000414	0.496619477550031	-4.42372745023244e-05	0.000257608740603411
0.78	19.8365307287287	-3.34903265976897	632.050998411682	-30.8411395427471	6.08682288678036	-0.512620257922921	0.487746418207745	6.43299338234926e-06	0.000455271380642337
0.79	19.8320982262611	-3.26470911520034	631.945868838951	-30.9702170341691	6.11387886264002	-0.524491880426125	0.479216901359799	5.03173264885873e-05	0.000672064843466019
0.8	19.8227228403588	-3.1827151393836	631.861474050254	-31.1136135744436	6.13708868098399	-0.536204709357457	0.471012874069833	8.78465148151011e-05	0.000909895709361515
0.81	19.8089821875988	-3.10413117131702	631.800736534567	-31.272615217403	6.15688896122624	-0.547885272854594	0.463081429401747	0.000119657441784167	0.00117051834837833
0.82	19.7917399699901	-3.02980075373796	631.76659428777	-31.448354746482	6.17383362164662	-0.559693006383965	0.455343972590515	0.000146570550672652	0.00145543504411025
0.83	19.7720938649221	-2.96031526420163	631.761884619347	-31.6417404758737	6.18857472884885	-0.571804726016479	0.447707275395505	0.00016956111493655	0.0017657931626863
0.84	19.7513097454485	-2.89601501655451	631.789200933732	-31.8533848409117	6.20183990527778	-0.584397594297958	0.44007565225166	0.000189725676467474	0.00210228502623195
0.85	19.7307460595509	-2.83700581096149	631.850729222867	-32.0835367606319	6.21440723909811	-0.597631709862247	0.432363367416706	0.000208245112699864	0.00246505640102274
0.86	19.7117729135385	-2.78318893466882	631.948072988844	-32.3320218585529	6.2270786880643	-0.611633514294294	0.424506324699844	0.000226345802719239	0.00285362941641677
0.87	19.6956908289973	-2.73430169239395	632.08207681166	-32.5981945012154	6.24065296915303	-0.626481187510065	0.416472110117228	0.000245260296265844	0.00326684528526959
0.88	19.6836542339984	-2.6899648426621	632.252659709158	-32.8809052560968	6.25589888530073	-0.64219309560413	0.408267555416895	0.000266188765695419	0.00370283141543419
0.89	19.6766044906502	-2.64973288667259	632.458669760125	-33.1784867917769	6.27352996817312	-0.658720168865983	0.399943161577891	0.000290262360699744	0.00415899642180526
0.9	19.6752166615512	-2.61314303197778	632.697771164276	-33.4887604663902	6.29418122086762	-0.675942834633448	0.391593953347312	0.000318509410431902	0.00463205522511005
0.91	19.6798633126114	-2.5797588451805	632.966374005562	-33.8090649094273	6.31838863580707	-0.693672826983742	0.383356609494309	0.000351825246690312	0.00511808492918476
0.92	19.6905974989689	-2.54920510404228	633.259615498823	-34.1363068408096	6.3465720484514	-0.711659863814057	0.37540300511276	0.000390946269180608	0.00561261058620657
0.93	19.7071557651317	-2.52119112565076	633.571399479606	-34.4670332420887	6.37902177239077	-0.729602844741309	0.367930586346805	0.000436428747296404	0.00611071837877756
0.94	19.7289806060296	-2.49552082913982	633.894498402232	-34.7975228559259	6.41588934907069	-0.747164904277515	0.361150249378641	0.000488632752973284	0.00660719225862359
0.95	19.7552604864735	-2.47208891747565	634.220719215202	-35.1238939034014	6.45718263671991	-0.763991376888443	0.355272592741637	0.000547711540138386	0.0070966687681816
0.96	19.7849843065676	-2.45086374929557	634.541131277772	-35.4422239361129	6.50276535703433	-0.779729514405995	0.350493538833292	0.000613606617422659	0.00757380370698033
0.97	19.8170062251127	-2.43185862836977	634.846351081133	-35.7486769401314	6.55236111268237	-0.794048658567638	0.346980367704925	0.000686048689028999	0.00803344354811234
0.98	19.8501160900414	-2.41509427440585	635.126875083693	-36.0396322333678	6.60556178127402	-0.80665952374219	0.344859172167023	0.000764564551203462	0.00847079410230039
0.99	19.8831104280912	-2.40055607065111	635.373448631639	-36.3118093879543	6.66184008009834	-0.81733129244254	0.344204633578062	0.000848489918829366	0.00888157889021085
1	19.9148590390249	-2.38815024030115	635.577455907694	-36.56238339228	6.72056597988258	-0.825905367306646	0.345032844091211	0.000936988013384746	0.0092621800208934
1.01	19.9443627138656	-2.3776633335784	635.731313343775	-36.789084554602	6.78102652592331	-0.832304848922902	0.347297679725244	0.00102907357097909	0.00960975507048412
1.02	19.970798410376	-2.36872928315725	635.828847160701	-36.9902782352363	6.84244850394802	-0.836539103425624	0.350890977942437	0.00112364173445558	0.00992232447874629
1.03	19.9935493018302	-2.36080780751699	635.86563485816	-37.1650203527272	6.90402327062076	-0.838703125617608	0.355646512526616	0.00121950108853099	0.0101988252846007
1.04	20.0122183735688	-2.35317713866888	635.83929073243	-37.3130856995547	6.96493296095879	-0.838971766723155	0.361347505490958	0.00131540989666142	0.0104391285450552
1.05	20.026625568266	-2.34494297903256	635.749676952006	-37.4349673683908	7.02437719448683	-0.837589252873675	0.367737186430495	0.00141011441872896	0.0106440194529768
1.06	20.0367897634357	-2.33506433256508	635.599024401491	-37.5318469626505	7.08159933666156	-0.834854743483065	0.374531717432155	0.00150238804456786	0.0108151409070036
1.07	20.0428979977627	-2.32239550614945	635.391951353105	-37.6055366697642	7.13591133969693	-0.831104942836613	0.381434656835176	0.00159106988182312	0.0109549030046145
1.08	20.0452652563494	-2.30574224731753	635.135372891282	-37.6583956344136	7.18671619416719	-0.826694963365318	0.388152045543734	0.00167510139590621	0.0110663625379069
1.09	20.0442887123007	-2.28392878280763	634.838299657882	-37.6932243066792	7.23352707464237	-0.821978731629698	0.394407170298529	0.00175355971907734	0.0111530779845109
1.1	20.0404005652904	-2.25587154912315	634.511530584379	-37.7131414888242	7.27598236161149	-0.817290222130141	0.399954091533734	0.00182568632546188	0.011218946624726
1.11	20.0340235098535	-2.22065474239601	634.167250456584	-37.7214496081951	7.31385586750447	-0.812926702032363	0.40458911812365	0.00189090990674142	0.0112680312152276
1.12	20.0255324303971	-2.17760251535312	633.818549009133	-37.7214942614337	7.34706178276703	-0.80913498204732	0.408159562549764	0.00194886247501777	0.0113043840628524
1.13	20.0152252063915	-2.12634273750837	633.478883363117	-37.7165242831997	7.37565408125051	-0.806101412345599	0.410569308539671	0.00199938795935983	0.0113318763450049
1.14	20.0033045910884	-2.0668577010916	633.161509624672	-37.7095584855025	7.3998203720467	-0.803946060241556	0.411780955333035	0.00204254284431191	0.0113540401173947
1.15	19.9898720855917	-1.9995179583272	632.878912041977	-37.7032648040857	7.41987044414554	-0.802721184498669	0.411814550753499	0.00207858871454467	0.0113739296624292
1.16	19.9749336583559	-1.92509654739073	632.642259049999	-37.6998569051212	7.43622000604822	-0.802413806467507	0.41074316883724	0.00210797691046468	0.0113940077145958
1.17	19.9584161476116	-1.84476211722809	632.460914703728	-37.701012391678	7.44937035925102	-0.802951896353438	0.408685805725741	0.00213132585290536	0.0114160607255867
