Time [s]	GRFml [N]	GRFap [N]	GRFv [N]	Mml [N.m]	Map [N.m]	Mv [N.m]	Mfree [N.m]	COPml [m]	COPap [m]
0.01	-0.393500026383999	16.6587886692451	768.132418299307	-7.23000904872535	-8.11746222741376	2.98801682910363	-2.80824406955803	0.00224009165994588	0.00872821440505339
0.02	-0.542379235593394	16.6700696905225	768.852024155847	-6.94957847464441	-8.05536742107219	3.03649996776456	-2.85705731263759	0.00261443371145564	0.00882151888018168
0.03	-0.684947876617094	16.6710394897249	769.526193860041	-6.68831314215729	-7.99179345972358	3.0798969532138	-2.90095481057047	0.00296338440687427	0.00891606474799839
0.04	-0.814984262340044	16.6540163552142	770.107043792472	-6.46321890230861	-7.9255072025163	3.11384279056495	-2.93570719833781	0.00326434337469461	0.00901278179828108
0.05	-0.928962940872581	16.6166110568906	770.547697539219	-6.28647896626464	-7.85345877230648	3.13528112620109	-2.95835781557077	0.00350099859273145	0.00911502675326975
0.06	-1.02712875341545	16.5625794228471	770.806074882433	-6.16391880659158	-7.7707622942471	3.14284482892838	-2.9675887002315	0.00366535778721289	0.00922866348222406
0.07	-1.11370322254533	16.5009388485934	770.851985699085	-6.09448958613796	-7.67171702665582	3.13697203556277	-2.96382551108103	0.00375848636363296	0.00936081297876695
0.08	-1.19599197484776	16.4435932695346	770.676261671082	-6.0708617830771	-7.55155067146985	3.11973922194939	-2.9490680991524	0.00378982301820441	0.0095176724161089
0.09	-1.28247657719735	16.4021455272479	770.299261541288	-6.08100249155187	-7.40829997329983	3.09445390783712	-2.92649292999298	0.00377521351100008	0.00970213785590895
0.1	-1.38035063253069	16.384827067788	769.775448182547	-6.11043028809635	-7.24420330162259	3.06509856912063	-2.89991803027012	0.00373402842828741	0.00991201410851161
0.11	-1.49323339093452	16.3944548102886	769.191245685402	-6.14473452882158	-7.06616294026496	3.03573497689543	-2.87323355880506	0.00368587278184807	0.0101393645515754
0.12	-1.61981522283926	16.4280171867695	768.655032419664	-6.17191122962127	-6.88515451274015	3.00996359325614	-2.84988352479546	0.00364745521738219	0.0103711554439708
0.13	-1.75389982025505	16.4779734054562	768.280436641142	-6.18409842139742	-6.71478974971674	2.99050170165255	-2.83245452769653	0.00363016725921572	0.0105909441100087
0.14	-1.88578794955987	16.5347865816095	768.166286771835	-6.17839140144137	-6.56946096752291	2.97891694001826	-2.82240585998425	0.00363881896127227	0.0107810907385714
0.15	-2.00440299368303	16.5898040040904	768.377836954387	-6.15658527011611	-6.46254899910836	2.97553991301384	-2.81996951181597	0.00367177494269766	0.0109249127887072
0.16	-2.09924121588287	16.6375046353523	768.933770187023	-6.12391481414513	-6.40506872678965	2.97957386328378	-2.82424815582232	0.00372244666788812	0.0110083353129191
0.17	-2.16131749037882	16.67639655035	769.802018588227	-6.08709827591373	-6.40492352383896	2.98940382424712	-2.83352392672996	0.00378177717141825	0.0110208363928517
0.18	-2.18277311471772	16.7083644503431	770.90515098458	-6.0521763469723	-6.46673247659801	3.00306949337458	-2.84574731304927	0.00384109279757672	0.0109557330368423
0.19	-2.15551962430074	16.7368355360474	772.133719619368	-6.02270349639399	-6.59205878510532	3.01880992200134	-2.85911057781237	0.00389458738909843	0.0108100079563201
0.2	-2.06988853241425	16.7645306625925	773.364221850792	-5.99875690027946	-6.77983721550822	3.03553817702121	-2.87255207832891	0.00394080438896971	0.0105839050207148
0.21	-1.91443706673243	16.7916537699135	774.477615817896	-5.97699378862486	-7.02685364603929	3.05309252957088	-2.88602293706178	0.00398277602642627	0.0102804481861891
0.22	-1.6776864487266	16.8151366924241	775.374662233169	-5.95168335491575	-7.32821443674734	3.07215839370605	-2.90039884521585	0.00402687311054506	0.00990493656418506
0.23	-1.35175084084941	16.8291182100955	775.98549191534	-5.91636991581197	-7.67779729208771	3.09385623707037	-2.91703049008183	0.00408077580966815	0.0094644113247252
0.24	-0.936876294034467	16.8263843542423	776.272331115814	-5.8656841377426	-8.06866851887378	3.11911024360144	-2.93705756224051	0.00415117043683821	0.00896711313875614
0.25	-0.445257303244186	16.8002052444312	776.22587527412	-5.79684911229914	-8.49340150537814	3.14800148990971	-2.96070916420083	0.00424175513509739	0.0084220265944675
0.26	0.097553198014899	16.7459618524179	775.8571013076	-5.71059482255276	-8.94419104049329	3.17932797905285	-2.98683358811439	0.00435193902931963	0.00783867032277846
0.27	0.654701034698062	16.6621437671566	775.187170745705	-5.61140860395271	-9.41268180285501	3.21053157917409	-3.01283103883776	0.00447635836284999	0.00722726773661353
0.28	1.18352151328191	16.5506070083272	774.238398089129	-5.50721070599615	-9.88953467598993	3.23803310108516	-3.03503073822592	0.0046051356828436	0.00659929912809953
0.29	1.64326810941315	16.4162645441767	773.028978348044	-5.4085953214011	-10.363906351187	3.25788860690562	-3.04941144089464	0.0047247455500542	0.00596823462522611
0.3	2.0030861452039	16.266524015548	771.57326554184	-5.32773315622947	-10.8231418490376	3.26658982888392	-3.05246487732226	0.00481940061975838	0.00535007291143191
0.31	2.24808679455728	16.1107450025652	769.887944921298	-5.27696728249019	-11.2529993727599	3.26180548904638	-3.04197511764865	0.00487293665640087	0.00476326185646164
0.32	2.38189576462674	15.9598089287307	768.002681423159	-5.26713655626535	-11.6386030967881	3.24289504461289	-3.01753023202536	0.00487114418293588	0.00422770888955365
0.33	2.42502495905457	15.8256876133918	765.972172735098	-5.30576907280446	-11.9660756046548	3.21109675254491	-2.98066724738251	0.00480432428220401	0.00376287885606635
0.34	2.40950541350518	15.7207777674938	763.885512521201	-5.39546019836219	-12.2245223490497	3.16936798761698	-2.93464175224416	0.00466959976237424	0.00338532629077948
0.35	2.37111241339287	15.656805814761	761.868841344161	-5.53288065034011	-12.4078412071101	3.12191799173673	-2.88388485592338	0.00447233547571635	0.00310627698065702
0.36	2.34102066401142	15.6432905425393	760.078624360051	-5.70884027996156	-12.5158082371209	3.0735175971657	-2.83325553785546	0.00422606035514195	0.00292993726356877
0.37	2.33879742175222	15.6858028929005	758.685318669303	-5.90961517794356	-12.554077445784	3.02870196167345	-2.78722094042517	0.00395059892114891	0.00285302185945302
0.38	2.36831157858197	15.784474601589	757.850017781405	-6.11938055255482	-12.5330704897254	2.99100421151744	-2.74910701817642	0.00366863667949491	0.00286561111569339
0.39	2.41748366494401	15.9332846149855	757.69896657812	-6.32321342050511	-12.466093713287	2.96236500364874	-2.72055640607275	0.00340147446560035	0.00295302234539385
0.4	2.46193481903712	16.1205430026914	758.301782412971	-6.50989400264227	-12.3672596956514	2.94284455991607	-2.70130283680829	0.0031650543488746	0.00309807817926028
0.41	2.47167435850533	16.3307045305744	759.658388324193	-6.67374863902468	-12.2498118756571	2.93071259236119	-2.68931768330356	0.00296731852851617	0.0032830959874966
0.42	2.41921160448003	16.5472457943074	761.69730470195	-6.81504644243671	-12.1252498784578	2.92291298053377	-2.68131009585589	0.00280758559491945	0.00349111946575803
0.43	2.2871047101546	16.7559467662559	764.284881810875	-6.93889264379995	-12.0033190712674	2.91581271331305	-2.67348451100172	0.00267802828656161	0.00370627145442487
0.44	2.07309843604034	16.9476693071547	767.242364769469	-7.0530015077322	-11.8926005741074	2.90607345555593	-2.66239919642047	0.00256672626987908	0.00391347020007315
0.45	1.79163317143263	17.1197431751728	770.366253415462	-7.16503300966283	-11.8012452539866	2.89145041981573	-2.64574380145485	0.00246135207429632	0.00409797438589504
0.46	1.47145272373216	17.2754053822972	773.447612145859	-7.28025027540416	-11.7374001167185	2.87133728426141	-2.62286960892592	0.00235245145546459	0.00424523123209719
0.47	1.15002848082531	17.421329665661	776.287534202388	-7.40009304330145	-11.7090566830198	2.84693484696296	-2.59495986815215	0.00223550654013294	0.00434131667973559
0.48	0.866280709835167	17.5639508842836	778.708132068807	-7.52193804894488	-11.7233213867293	2.82101066473853	-2.5648073791508	0.00211141801319548	0.00437397049417582
0.49	0.653420966040368	17.705789423152	780.560306447312	-7.63994896889796	-11.7853583594935	2.79731484033269	-2.53625457915466	0.00198554462032208	0.00433396015746562
0.5	0.533594221574667	17.8430944280928	781.73041231264	-7.7466279519203	-11.897397915787	2.77979792838296	-2.51342678190688	0.00186582619890197	0.0042163491116709
0.51	0.515428338250544	17.9657575874395	782.14749995466	-7.83455079443468	-12.0582004046514	2.77181837615713	-2.49993229606602	0.00176067838210792	0.00402123918020708
0.52	0.594772196607424	18.0596905193757	781.791304438069	-7.89781830593331	-12.2632256842502	2.77551712735014	-2.49820166446997	0.00167726072776919	0.00375369453890456
0.53	0.758052887572491	18.1109681148796	780.699268594329	-7.93294405274459	-12.505530906487	2.7914796037026	-2.50909262330075	0.00162045114848575	0.00342279046948957
0.54	0.987038033808381	18.1103564811952	778.969473644924	-7.93913887308463	-12.7771716211471	2.81871931484585	-2.5318118557707	0.00159253010109606	0.00303999907973906
0.55	1.2635217980181	18.0566488298439	776.756136582582	-7.91815255726676	-13.0706879413269	2.85493127558123	-2.56412314841525	0.00159331842866417	0.0026173508802107
0.56	1.57262407466912	17.9576245404901	774.255611416872	-7.87392410809903	-13.3801849527101	2.89690500635646	-2.60274955430287	0.00162041610891206	0.00216592149982958
0.57	1.90393554386661	17.8282894118871	771.683336189424	-7.81225154369901	-13.7016039571453	2.94097321861788	-2.64385252477942	0.00166928023262092	0.00169513362506335
0.58	2.25048080133394	17.6870266627466	769.245122226135	-7.74055144752326	-14.0320217335314	2.98340338650771	-2.68348759277327	0.00173310705950258	0.00121312740965351
0.59	2.60617505380266	17.5510133281936	767.108545694823	-7.66761166959679	-14.3681472003	3.02069804118548	-2.71798227036236	0.0018027331400039	0.000728091821675048
0.6	2.96289994164837	17.432462791365	765.381042883687	-7.60313649083414	-14.7045034020232	3.04982750324646	-2.74423394074514	0.00186691551702556	0.000250075016480666
0.61	3.30838874924277	17.3368798065554	764.100174246327	-7.55690608235173	-15.0319710047013	3.06844788958589	-2.75995805511673	0.00191330176741999	-0.000207460952392657
0.62	3.62578595342346	17.2637248664889	763.238634875365	-7.53752684724329	-15.337343042679	3.07514263314093	-2.76391388712922	0.00193015389813045	-0.000627096560579743
0.63	3.89515385810551	17.2089948291336	762.722802660344	-7.55097450730441	-15.6042844282007	3.06967400409768	-2.75609897222019	0.00190853944572611	-0.000988429188774453
0.64	4.09654668898481	17.168570171499	762.460098807279	-7.59932203349989	-15.8156717122277	3.05316921301129	-2.73785561562545	0.0018444036589611	-0.00127061441698462
0.65	4.21377682081743	17.140983312562	762.368242567338	-7.68009801998527	-15.9568414164199	3.02812929953116	-2.71180413435633	0.00173983643805931	-0.00145600137034307
0.66	4.23781059854488	17.1285728143161	762.399187407785	-7.78658990440271	-16.0189501793982	2.99816538781601	-2.68153227855488	0.00160301732237722	-0.00153398372930996
0.67	4.16889024534947	17.1366647545369	762.552080316368	-7.90912385019999	-16.0015600006429	2.96744053754088	-2.65103365800856	0.00144671629754545	-0.00150404491603712
0.68	4.01690080672256	17.1711983909826	762.872424716541	-8.03702422957477	-15.9137379810933	2.93990348600194	-2.62398094505429	0.00128570119436477	-0.00137714778603831
0.69	3.80002062805176	17.2357945673558	763.437939015157	-8.16071320500701	-15.7733403757066	2.91850015519468	-2.60300492524727	0.00113376817299848	-0.0011750439930025
0.7	3.5421270566372	17.329439613045	764.334605879958	-8.27335627682838	-15.6046088460557	2.9045939930606	-2.58918755405545	0.00100122630855393	-0.000927608820762149
0.71	3.26964589745014	17.4456745312257	765.628520663733	-8.37161711766605	-15.4346037616335	2.89778872855305	-2.58194043544049	0.000893490835885191	-0.000668775634101892
0.72	3.00850275006244	17.573570895174	767.340031356848	-8.45539148612681	-15.2892350613841	2.8962312870389	-2.57933279700114	0.000811050269086011	-0.000431926838914853
0.73	2.78162541184156	17.7000986253596	769.426192322843	-8.52672514063087	-15.1896889643387	2.8973168203869	-2.57878924724656	0.000750626384907527	-0.000245650672269615
0.74	2.60718356751781	17.8130178755769	771.77580268804	-8.58836071273534	-15.149909392619	2.89858008917133	-2.57795023057102	0.000707005978615394	-0.00013062186256324
0.75	2.49755030842847	17.9033254637803	774.218562176844	-8.64242681099655	-15.1755295395172	2.89849117329163	-2.57542691735551	0.000674893836379531	-9.8074101397172e-05
0.76	2.45888334682381	17.9665550248948	776.546696036078	-8.68967428098028	-15.2643242841197	2.89690472451522	-2.57121268606738	0.000650231832734383	-0.000149975141709446
0.77	2.49123077843308	18.0027171786583	778.544524449588	-8.72943795321894	-15.4079309548726	2.89502906193919	-2.56662572239998	0.000630683960147649	-0.000280657694792352
0.78	2.58910052203264	18.0151520407729	780.019668241964	-8.76024725665716	-15.5943278058005	2.89494096075351	-2.56381121243219	0.00061529531869875	-0.000479366240358658
0.79	2.74243622131784	18.0088685123683	780.829459514227	-8.78080944128631	-15.8104282058128	2.89881726566589	-2.56497272018706	0.000603593308889483	-0.000733017776006761
0.8	2.93790737743594	17.9889877284776	780.897756757913	-8.79099521875967	-16.0441885392681	2.90813734873468	-2.5715832238079	0.00059454666010339	-0.00102849762495916
0.81	3.1603891360961	17.9597331102371	780.220249215753	-8.7924774932885	-16.2858414803722	2.92310792389648	-2.58382338918412	0.000585812984833511	-0.00135403259569483
0.82	3.39452495807666	17.9241288534852	778.859490186886	-8.78878676158277	-16.5281946646126	2.94248157373259	-2.60041484504345	0.00057360346880353	-0.00169954797780841
0.83	3.62633302707378	17.8842999613433	776.933193944226	-8.78471476381651	-16.7662633569959	2.9638148666179	-2.61889137294526	0.000553305902368906	-0.0020562985894067
0.84	3.844867810759	17.8420862973805	774.599949344994	-8.78518442035106	-16.9967023328192	2.98408358139402	-2.63622358115725	0.0005207706930348	-0.00241631340371878
0.85	4.04388884734318	17.7996169891499	772.045321451612	-8.79387658679394	-17.217475342938	3.00047762722547	-2.64961925026555	0.000473919672035472	-0.00277219015567187
0.86	4.22327956375256	17.7595359151941	769.469005891608	-8.81202910778649	-17.4279506258161	3.01115620290533	-2.65728116638565	0.000414138739298298	-0.00311750280290241
0.87	4.38967511618857	17.7247100831158	767.071488219724	-8.83786074852806	-17.6292447313824	3.0157560887643	-2.65891738373772	0.000346833915493172	-0.00344764870826764
0.88	4.55558478217836	17.6974673669152	765.037777847245	-8.8669807880156	-17.8243314673174	3.01550305222199	-2.65585486049568	0.000280638727306881	-0.00376056477515885
0.89	4.73643796744354	17.6786494132476	763.516912054728	-8.89390437014918	-18.0173593470193	3.01286568656312	-2.65069385022047	0.000225095679645015	-0.0040565924056214
0.9	4.9455428533577	17.6669443576842	762.598814032214	-8.9144336487137	-18.2118619442218	3.0108006873658	-2.64654697524247	0.000187153502237525	-0.00433698989439285
0.91	5.18781823429684	17.6589807683423	762.293574365808	-8.92828007466664	-18.4080436688793	3.01175395778773	-2.64602147407637	0.000167382686791839	-0.00460113959277825
0.92	5.45403013852342	17.6504535241972	762.520625541301	-8.94103837799264	-18.599889423959	3.01667979560073	-2.65020450539203	0.000157198577091733	-0.00484317763378406
0.93	5.7177232833768	17.6381429018339	763.115069451741	-8.96462145569395	-18.7732280101093	3.02438785859228	-2.65796651221017	0.000138381001853038	-0.00504929778291352
0.94	5.93674742046345	17.6222239213522	763.854937439574	-9.01560132740114	-18.9058644722618	3.03149099956497	-2.66586971797787	8.56836798864835e-05	-0.00519708528981544
0.95	6.06015194195895	17.6079580144471	764.507058060483	-9.11152418109569	-18.9704122232817	3.03308986957938	-2.66883627276055	-2.75894821785139e-05	-0.00525779964764145
0.96	6.03950963374204	17.6058971001656	764.882386718346	-9.26599445068566	-18.9396149033616	3.02411111820631	-2.661507841714	-0.00022223077082606	-0.00520163331547818
0.97	5.84198355420051	17.6301589263093	764.88667614076	-9.48389103271087	-18.7930261499755	3.0009754208742	-2.63997527395488	-0.000506017937906611	-0.00500490930384223
0.98	5.46134754046311	17.6950157186708	764.551470823956	-9.75824457189206	-18.5232564641538	2.96309749186716	-2.60336583006981	-0.000869103487222356	-0.00465732965123949
0.99	4.92325405493336	17.8107027374124	764.034512293906	-10.0699509120607	-18.1398794724969	2.91369528062966	-2.55473675011439	-0.00128363270976495	-0.00416709330797577
1	4.28246994568639	17.9797157683132	763.586814349457	-10.3906977425552	-17.6696116336248	2.85954725523388	-2.50088282724369	-0.00170813747001086	-0.00356212745142548
1.01	3.61221216711047	18.1947730118449	763.493339583797	-10.6884964747928	-17.1524015506597	2.8096512154455	-2.45099117698539	-0.0020957968766786	-0.00288672258172101
1.02	2.98830922466452	18.4391173682474	764.002110575047	-10.9343861020186	-16.6342560194345	2.77310340326459	-2.41446248117707	-0.00240443623766062	-0.00219419453623731
1.03	2.47272462171392	18.6891472149573	765.260032473785	-11.1085066861332	-16.1585878067401	2.75679873041654	-2.39852113913484	-0.00260558858658444	-0.00153736660347487
1.04	2.10127020469249	18.9187490055967	767.271632540512	-11.2039505131066	-15.7582756546504	2.76364071112347	-2.40633595859004	-0.00269025094052988	-0.000959278367402894
1.05	1.8789399235984	19.1043381492788	769.890256781594	-11.2274925964933	-15.4503620860378	2.79180366314586	-2.43622366148073	-0.00266999016003189	-0.000486394279207658
1.06	1.7837110159484	19.22952649848	772.842415581865	-11.1972140231224	-15.2344979918604	2.83526002435657	-2.48216223019106	-0.00257340207738288	-0.000125781804221015
1.07	1.77686948194969	19.2884544487777	775.777803717941	-11.137847158771	-15.0951719425187	2.8853908386157	-2.53542702130437	-0.00243913952471586	0.000133441010928659
1.08	1.81596121000689	19.2870718539847	778.332276045089	-11.0751532496729	-15.0067906562076	2.93317579463861	-2.58682712821437	-0.00230744792221227	0.000315224894517352
1.09	1.86601909216283	19.2419941769624	780.189700239223	-11.0307043778585	-14.9400849162815	2.97131513052605	-2.62887241103511	-0.00221225058724561	0.000449869484762055
1.1	1.90581958611873	19.1770056987432	781.130765647359	-11.0181481745598	-14.8682211336995	2.99570450408414	-2.65727741172245	-0.00217540187446441	0.000567263379734506
1.11	1.92804134049833	19.1178092464269	781.06124548721	-11.041541110056	-14.7713458161375	3.00592548450733	-2.67146167840183	-0.00220400232247608	0.000691568570553469
1.12	1.93447246429577	19.0861290145766	780.01736326704	-11.095811877088	-14.6388976864201	3.00473473332076	-2.67403661817447	-0.00229089370520497	0.000838189317028282
1.13	1.92901395434156	19.0945861764181	778.150521776442	-11.168981187293	-14.4696706240995	2.99682461121128	-2.6695630181739	-0.00241780480970044	0.00101314286837084
1.14	1.91165818888464	19.14371820934	775.69692390966	-11.2454756885321	-14.2701203742339	2.98730068264281	-2.66303379102931	-0.00256018926814527	0.00121436430844429
1.15	1.8758574966489	19.2220359599142	772.93924897066	-11.3097429368644	-14.0516834718295	2.9803402813021	-2.65854838578985	-0.00269260252175563	0.00143415067198205
1.16	1.81013981833938	19.3092014375892	770.167608475783	-11.3493934276901	-13.8279099771124	2.97837752308207	-2.65851897118968	-0.00279349145038754	0.00166189573044861
1.17	1.70311625679853	19.3815039730251	767.645783491231	-11.3572519824465	-13.6120562931756	2.98195944055863	-2.66354305606845	-0.00284849355722305	0.00188642578427267
1.18	1.54978484753295	19.4181148106777	765.586673791876	-11.331972906142	-13.4155211979242	2.99020510804466	-2.67286456884105	-0.0028517271478733	0.00209752545343195
1.19	1.35665449932469	19.4063579164852	764.138478601255	-11.2772179932955	-13.2472161218653	3.00163540027695	-2.68518611172163	-0.00280503633792606	0.00228655200492833
