Time [s]	GRFml [N]	GRFap [N]	GRFv [N]	Mml [N.m]	Map [N.m]	Mv [N.m]	Mfree [N.m]	COPml [m]	COPap [m]
0.01	-1.22933023658338	1.7898027923615	644.929935567792	4.06165060923618	-10.3323506371253	1.26957925939981	-1.24864318036633	-0.00268063431360122	0.00120152563240883
0.02	-1.08188135145924	1.83996381434	645.564350022353	4.05236309104923	-10.4689609052814	1.27120085165067	-1.24816205416477	-0.00270359237660811	0.00100824507798486
0.03	-0.942636475683281	1.89058532104899	646.062217382807	4.04909989234784	-10.5855350920227	1.27107335748993	-1.24603291603743	-0.00271579605043404	0.000842631211311284
0.04	-0.819796815562402	1.93784766322367	646.303309076853	4.05622794930882	-10.6658741172051	1.26793256353473	-1.24114356894083	-0.00270920106069628	0.000726872573033499
0.05	-0.723334553126232	1.97500869672882	646.22969109775	4.07635617767151	-10.6985520472614	1.2612404940654	-1.23315552064788	-0.00267912326874908	0.000677307205179611
0.06	-0.664397167046868	1.99400443221473	645.862139594935	4.10994204622703	-10.6782914986426	1.25121756841393	-1.22250515157817	-0.00262502567325795	0.000702676528726798
0.07	-0.653346512143945	1.98866736780853	645.298123863968	4.1553353533432	-10.606426288988	1.2386586341044	-1.2101561148673	-0.00255044379809632	0.000803329698103816
0.08	-0.697035634586131	1.95828209516166	644.691626923646	4.20929040024321	-10.4902808599008	1.22463194052789	-1.19722650811722	-0.00246200007281261	0.000971658030440081
0.09	-0.796266747588186	1.90982935810316	644.219349772965	4.26786822370524	-10.3415156349278	1.2101920170772	-1.18465360998976	-0.00236766958102796	0.0011938081329062
0.1	-0.944383849470034	1.85761403886267	644.041104508361	4.32753689297903	-10.1737381811258	1.19620888013361	-1.17302428902403	-0.00227466917157926	0.00145241363635262
0.11	-1.12764146598331	1.81991759603646	644.263558210252	4.38619062882182	-9.99987241480814	1.18334417524587	-1.16260994383669	-0.00218749313091426	0.00172981492102087
0.12	-1.32745793926677	1.81349376743427	644.915584348327	4.44378191748889	-9.82984504130001	1.17212610996524	-1.15354413780107	-0.00210665421846934	0.00201110021845513
0.13	-1.52407777758781	1.84766408371246	645.940611913308	4.50232214445226	-9.66907009047563	1.16302769257934	-1.14601594705532	-0.00202856881048907	0.00228634126544952
0.14	-1.70072194676121	1.92008249147416	647.207369103664	4.56516122772984	-9.51801830470191	1.15645956435561	-1.14035221617657	-0.00194674775627313	0.00255159114016884
0.15	-1.84713990726188	2.01578895053441	648.536350441622	4.6356773492478	-9.37290866843832	1.15264601849095	-1.1369264565732	-0.00185407306088481	0.00280849680964407
0.16	-1.96163635989085	2.11012076381908	649.736118570017	4.7157313175857	-9.22731977365263	1.15143188673147	-1.13592950276331	-0.00174556038459805	0.00306267754310119
0.17	-2.05106253143623	2.17478087116995	650.64175690053	4.80438352116218	-9.0743391662678	1.15212785900154	-1.13711942393324	-0.00162076233196462	0.00332126801248311
0.18	-2.12879237660293	2.18532291250626	651.147590967931	4.89736195398351	-8.90877703445034	1.15350870202018	-1.13969373476778	-0.00148497299829953	0.00359017939204187
0.19	-2.21118620330948	2.12785089222355	651.227566314307	4.98757942141774	-8.72897417030155	1.15402334941334	-1.14238006446717	-0.00134869423074202	0.00387167291900214
0.2	-2.31335624930793	2.00298093209922	650.939110792149	5.06666722764281	-8.53782555028767	1.15217940191019	-1.14374132905051	-0.00122535552145142	0.00416276703077417
0.21	-2.4451432266449	1.82596700803873	650.40952941508	5.12712717172084	-8.34280063463741	1.14697140554231	-1.14258442937663	-0.00112787711447582	0.00445482812557169
0.22	-2.60811571831751	1.62305498523805	649.807497763407	5.16444035061258	-8.15493981203618	1.13817949612586	-1.13830005740885	-0.00106511419208333	0.00473445989181859
0.23	-2.79418395480166	1.42521847762608	649.305433948896	5.17842379821199	-7.98700663405356	1.12639972944057	-1.1309789441722	-0.00103933585178961	0.00498555254768318
0.24	-2.98614397159799	1.26110610781191	649.040752360425	5.17333422541815	-7.85114036014957	1.112771628375	-1.12124406555496	-0.00104560442237644	0.00519212884589959
0.25	-3.16017398303016	1.15110347239309	649.084606511606	5.15662443760316	-7.75645285982953	1.09849983233947	-1.10986889568711	-0.00107330734684197	0.00534146726447621
0.26	-3.28999579402433	1.10390541517886	649.425366858651	5.13672287198118	-7.70703145968433	1.08436628870939	-1.09735858152712	-0.00110936430589148	0.00542691765801429
0.27	-3.35209048358566	1.11612217628799	649.970888251348	5.12055907259865	-7.70074393119287	1.07044875437192	-1.08370153188096	-0.00114205098948417	0.00544985731637465
0.28	-3.33105405350718	1.17453328129222	650.569278936566	5.11166118330949	-7.7291064331645	1.05618616969152	-1.0684342653916	-0.0011641673106737	0.00542035932199836
0.29	-3.22397980878168	1.25996258180932	651.043466761689	5.10945891733602	-7.77829208171943	1.04078970704213	-1.05102686516857	-0.00117451848186456	0.00535634569496068
0.3	-3.04276937117686	1.35154700902617	651.231538628453	5.11000182870085	-7.83115370817857	1.02384858025048	-1.03144766723492	-0.00117728791868477	0.00528125475101637
0.31	-2.81358016070407	1.43039273232454	651.023510446553	5.10780217706917	-7.86993858013499	1.005885205199	-1.0106686520292	-0.00117963566868051	0.00522053631319574
0.32	-2.57319975127351	1.48208308141348	650.386226872896	5.09811922864231	-7.87921827323574	0.988615249492832	-0.990870596688473	-0.00118847416923951	0.00519755520410908
0.33	-2.36286932802451	1.49798960864588	649.371201024465	5.07886226152452	-7.84848018870738	0.974765711192545	-0.975203177193867	-0.00120762719152834	0.00522966960949545
0.34	-2.22075085840603	1.47565191913784	648.104523581823	5.0514519093893	-7.773862255998	0.967461922273182	-0.967114313095395	-0.00123638085961053	0.00532528630914936
0.35	-2.17463158904126	1.41855771012551	646.762312887062	5.0203786944746	-7.65867456106385	0.969354014268029	-0.969425864393708	-0.00126987294842995	0.00548253105376578
0.36	-2.23645091724605	1.33552182324197	645.538368262349	4.99167985504369	-7.51262041839592	0.98175719727517	-0.983439403243847	-0.00130106094534743	0.00568981699737031
0.37	-2.39981714365269	1.23966636076877	644.611899987429	4.97093823158241	-7.34994120276465	1.0040910678482	-1.00836686345314	-0.00132343240939159	0.00592812839531581
0.38	-2.64098303122838	1.14688915855494	644.122198683687	4.9615498742811	-7.18697075506241	1.03381644195857	-1.04129066895827	-0.00133338675693673	0.00617440085129045
0.39	-2.92297183107924	1.0737609611757	644.154287384857	4.9638665006679	-7.03970576258517	1.06691277239894	-1.0776958403798	-0.00133139880350597	0.00640512367267443
0.4	-3.20189161587201	1.03499787201695	644.73592228509	4.97546194789579	-6.92192907235542	1.0987676599292	-1.11243715370022	-0.00132158001886973	0.00659931262381069
0.41	-3.43408944896437	1.04090985462425	645.842982535611	4.99234439359522	-6.84418248180442	1.1252208668983	-1.14086891578348	-0.00130987317556397	0.00674030103643958
0.42	-3.58274030340528	1.09538695544239	647.408408311229	5.01060170389103	-6.81356129677695	1.14346270776086	-1.15981980108146	-0.00130161109712668	0.00681626401499386
0.43	-3.62272227386531	1.19494718971015	649.330014278857	5.02784253820045	-6.83401953543357	1.15254420490968	-1.16815506169405	-0.00129936735860536	0.00681984474118313
0.44	-3.5431177399254	1.3291187531788	651.474596805902	5.04391118375894	-6.90674418892957	1.15339107887119	-1.16680978119929	-0.00130187694345574	0.00674751603889762
0.45	-3.34726864216057	1.4820511357581	653.678911908395	5.06065059942272	-7.03023050015173	1.14837424856654	-1.15834623346554	-0.00130438768510388	0.0065992836380922
0.46	-3.05084671838292	1.63489743573556	655.751020866965	5.08084726240924	-7.19993355947373	1.14061633288291	-1.14622305249446	-0.00130028515793779	0.00637904002247536
0.47	-2.67873379921881	1.76833522328354	657.476906156525	5.10678225599452	-7.40767746246148	1.13326297489991	-1.13401737568936	-0.00128340065140775	0.00609544251380423
0.48	-2.26156083339806	1.86467589266697	658.636408126041	5.13893900859584	-7.64123592477513	1.12891028410849	-1.1248027273865	-0.00125020425862465	0.00576280659600209
0.49	-1.83254104234416	1.90931785369443	659.029529845043	5.17534698128668	-7.88455007803008	1.12928299671457	-1.12078366034827	-0.0012011548099653	0.00540134312265556
0.5	-1.42486467934104	1.89168208334499	658.509970315905	5.21180969094446	-8.11888675225708	1.1351518943236	-1.12317558365095	-0.00114078077386959	0.00503620181264691
0.51	-1.06956880570147	1.8060315634372	657.018887351092	5.24296243905787	-8.32491985166094	1.14641024512663	-1.13224491236109	-0.00107648546584982	0.00469516667686881
0.52	-0.793607197840667	1.65256006892689	654.609886867596	5.2638340748956	-8.48536232227034	1.16221905595891	-1.14741481946282	-0.00101646438469361	0.00440533240739832
0.53	-0.617889125630288	1.43880878418536	651.457051920697	5.27143277740747	-8.5875282817086	1.18116894972529	-1.16738498615225	-0.000967372896101826	0.0041894842994753
0.54	-0.555284516214429	1.18096549494256	647.84146198486	5.26587802778034	-8.62516495351616	1.20145916195849	-1.19027408113977	-0.000932426182851942	0.00406305567124327
0.55	-0.608878129140556	0.904180561505949	644.117071266192	5.25074642705403	-8.59908036524645	1.22112526812287	-1.21383083881676	-0.000910456671906812	0.00403239272861838
0.56	-0.770954692537775	0.640968230717871	640.662264361935	5.23253120362008	-8.51643456546558	1.23833646404543	-1.23574919467721	-0.000896161975125653	0.00409468078048758
0.57	-1.02321896068806	0.42719283114796	637.827067615966	5.21935691113703	-8.38893172234274	1.25173533974926	-1.25406806644767	-0.000881445771556688	0.00423942462477489
0.58	-1.33858352938429	0.295980077945027	635.886679071653	5.21927107601264	-8.23041838091875	1.26073498213455	-1.26756559782958	-0.000857481224412759	0.00445099428576201
0.59	-1.68453740968222	0.270833350224871	635.009606464288	5.2385109403578	-8.05448002836047	1.26565554745537	-1.27601124083386	-0.000816978112897049	0.00471156016472679
0.6	-2.02771582422543	0.359860036475258	635.24430636908	5.28011183741252	-7.87253062375969	1.26760204212577	-1.28014942009747	-0.000756131684629069	0.0050037768123008
0.61	-2.33891796572651	0.552996385036893	636.523491203803	5.34311389682341	-7.69267151075956	1.26806096524298	-1.28136388350545	-0.00067584841189483	0.00531277621949799
0.62	-2.59756748375724	0.823382293579957	638.68183732187	5.42248329422397	-7.5193525912475	1.26830254108436	-1.28108995478875	-0.000582026129420266	0.0056272972016268
0.63	-2.79458248225089	1.13280330571365	641.481576217223	5.5097374408878	-7.35368505114598	1.26877485219311	-1.2801573922534	-0.000484852766932331	0.00594000538877409
0.64	-2.93288500921635	1.43982539967559	644.641236825375	5.59417386256664	-7.19417579115893	1.268720742213	-1.27830863767496	-0.000397237658922411	0.00624718529709828
0.65	-3.02531997419348	1.70837390317281	647.864641354098	5.66454661464959	-7.03767321024415	1.26620851292301	-1.27411075675596	-0.00033259350549486	0.00654800360206936
0.66	-3.09044614474347	1.91437018515097	650.868875672974	5.71099013213056	-6.88038687682448	1.25864426933207	-1.26536115973722	-0.000302264294306132	0.00684349186179717
0.67	-3.14729372182992	2.04868362118366	653.410472096969	5.72693774269596	-6.71891004348353	1.24366265925283	-1.24991126020353	-0.000312969199159463	0.00713534362813145
0.68	-3.21052261901938	2.11584783231774	655.308365765169	5.71072103065471	-6.55118901152357	1.22013398392863	-1.22666062696587	-0.000364707695030719	0.00742462171570957
0.69	-3.28731064410604	2.12931600060168	656.461000151364	5.66649636347181	-6.37734023905979	1.18894311304893	-1.19637498057738	-0.000449613950869066	0.00771054036919372
0.7	-3.37675350631466	2.10505150833965	656.854301056348	5.60417417894661	-6.20015120078316	1.15323074423112	-1.1620011976475	-0.000552199641362661	0.00798958211367634
0.71	-3.47174076481355	2.05565088126496	656.557909645461	5.53816483532482	-6.02507513468323	1.11793944161797	-1.12829505463231	-0.000651230879159748	0.00825525103965041
0.72	-3.56246933305909	1.9868748662501	655.70917159832	5.48500392167153	-5.85959251847185	1.08872896282358	-1.10079885611385	-0.000723141265964511	0.00849868317061792
0.73	-3.64026282359898	1.89755128721303	654.487270223591	5.46022850885853	-5.71196819426485	1.0705413814727	-1.0844301559955	-0.000746455200645424	0.0087101183994755
0.74	-3.70036689871435	1.78262031183615	653.082483572793	5.47514840138069	-5.58963185466979	1.06622960508493	-1.08209007684667	-0.000706313277124448	0.00888095334002348
0.75	-3.74288556183049	1.63800889179525	651.666846834629	5.53428666752981	-5.4975662874376	1.07566503005118	-1.09371765325177	-0.000598004939421415	0.00900585902059059
0.76	-3.7718102828249	1.46539760215139	650.37203922525	5.63417838153361	-5.43712592868335	1.09560929251889	-1.1160979154687	-0.000428530828335716	0.00908437380723276
0.77	-3.79284707472768	1.274983809921	649.278276669584	5.76391133007704	-5.40560017823646	1.12041433989809	-1.14351471542401	-0.000215650786296928	0.00912151617782642
0.78	-3.81115016650199	1.08503816575394	648.415073315211	5.9073430226457	-5.39661828587565	1.14337500609571	-1.16909341926035	1.54805771750421e-05	0.0091272573386712
0.79	-3.82996209301301	0.918167055932031	647.771832964837	6.04646927335516	-5.40124946022301	1.15837216255656	-1.18647849435631	0.000237323612858109	0.00911503286005627
0.8	-3.85061155126559	0.795357189787094	647.31413969808	6.16509815702836	-5.40947496925537	1.1613652543593	-1.19139456570154	0.000425372660955436	0.00909972407050808
0.81	-3.87361146476844	0.729697806324904	647.000821308987	6.25190532518908	-5.41165714251214	1.1513395635501	-1.18267216479249	0.000562633861214135	0.00909561839431328
0.82	-3.90008109585046	0.721875423457898	646.797452947371	6.30213794444073	-5.39970712559445	1.13046855152224	-1.16246936800012	0.0006420910001953	0.0091147565493116
0.83	-3.93263202440761	0.75904584584863	646.683669374816	6.31763162026977	-5.36781304983295	1.10346881870213	-1.13564375091768	0.00066667124219022	0.00916585844818851
0.84	-3.97521959838966	0.817661486106141	646.653898629129	6.30528098371031	-5.31276274895465	1.07634277003613	-1.1084615982065	0.000646922181739451	0.00925378774153129
0.85	-4.03204566111294	0.869591909056784	646.713220019319	6.27451623669348	-5.23401564370661	1.05486116115274	-1.08700650313491	0.000597216717070359	0.00937935655853067
0.86	-4.10607558943757	0.889813958839474	646.871336982166	6.23456961029021	-5.13370870459317	1.04319109720285	-1.07571711322832	0.000531643834857709	0.00953923740647106
0.87	-4.19785536484552	0.863407156808838	647.137733150921	6.19231055246503	-5.01671733650418	1.04301219909568	-1.07642591402983	0.000460738669444738	0.00972584036900404
0.88	-4.30505242883676	0.789755641527569	647.519935115538	6.1511979379181	-4.89076188298481	1.05330751843963	-1.08810907699408	0.000389870741651754	0.00992718883237242
0.89	-4.42268732641259	0.682692890957038	648.024869946084	6.11151543729734	-4.76640787734734	1.07081811319221	-1.10734606539526	0.000319551643788385	0.0101270114923854
0.9	-4.54365609634004	0.566571509771013	648.661351724262	6.07164066522558	-4.6567184744439	1.0909739382828	-1.12929551363395	0.000247313350950296	0.0103053745633183
0.91	-4.65907468579589	0.469493060283106	649.440610227145	6.02978264014251	-4.57633501869038	1.10901081533704	-1.1488788853013	0.000170338236820111	0.0104401356080402
0.92	-4.75822819565781	0.415774035781631	650.372081012419	5.98551178837621	-4.53990317951038	1.12097699588758	-1.16185290485588	8.78473620530285e-05	0.0105092923588717
0.93	-4.82832087412836	0.419869613593463	651.453473285841	5.9405405553355	-4.55998968783022	1.12441201014188	-1.16553526730826	2.43302214153474e-06	0.0104939848601003
0.94	-4.85456043233061	0.483386628396381	652.656867718131	5.89853857712666	-4.64486362335641	1.11860717816567	-1.15908520933931	-8.00175611100906e-05	0.0103816082337965
0.95	-4.82118290565783	0.595718618250815	653.915258409692	5.86415560744269	-4.79664974610504	1.10448377255891	-1.14337899771933	-0.000151602316669774	0.0101683380694225
0.96	-4.71377195917439	0.737642785510002	655.115418992047	5.84172240534115	-5.0103372936935	1.08421235519547	-1.12061637974421	-0.0002042514019992	0.00986043742434328
0.97	-4.52273022476656	0.886370398614834	656.102433239919	5.8341877691941	-5.27394910258995	1.06072666807411	-1.09382560249558	-0.0002313672166665	0.00947398427447105
0.98	-4.24719789884939	1.02032597828974	656.698536572909	5.84270150966708	-5.56990828203267	1.03726148506726	-1.06640502940584	-0.000228678839469532	0.00903302617294083
0.99	-3.89829237885519	1.12236849422463	656.734710549317	5.86694146213824	-5.87737581540405	1.01698615790128	-1.04177130292565	-0.000194155121807094	0.00856650117113567
1	-3.50043182770577	1.1810173927415	656.089037550784	5.90594753515532	-6.17514784738858	1.00274101321598	-1.02310890922417	-0.000127271203182344	0.00810446538456366
1.01	-3.08978744304776	1.19011656182067	654.722652039193	5.95901194283678	-6.44462530352585	0.996836926779715	-1.01316359857517	-2.81991280494109e-05	0.00767421909991312
1.02	-2.70955221890845	1.14789532658136	652.703394082301	6.02616960123672	-6.67238465947129	1.00086540102307	-1.01401181651501	0.000102522050761777	0.00729687284460673
1.03	-2.40257404195271	1.05638192450007	650.209405367309	6.10803111865673	-6.85195070565593	1.01549057354507	-1.02677345063264	0.000263570364234744	0.00698480987083328
1.04	-2.20275144167166	0.921651893888956	647.509426274839	6.20501056150628	-6.98447415316	1.04024438124685	-1.05130090791094	0.000451835527376376	0.00674041759226429
1.05	-2.12717666724002	0.754711460885022	644.922238459145	6.3162839602604	-7.07814903678271	1.07339773914165	-1.08594404054079	0.0006613380144328	0.00655635853332259
1.06	-2.1711203521977	0.572255629402306	642.763000914787	6.43895020208606	-7.14638351738807	1.1120057157154	-1.12752322613853	0.000882711119250867	0.00641747838067114
1.07	-2.307483353548	0.396357456083718	641.287727885972	6.56779801310923	-7.20496727238192	1.15220290975944	-1.17161758123102	0.00110371217544425	0.00630416997132127
1.08	-2.491352226873	0.252418180586307	640.647937342821	6.69584344564057	-7.26872528243828	1.18975570460086	-1.2131907995298	0.0013108278382663	0.00619665936997982
1.09	-2.66900918719669	0.165325758456327	640.865353880589	6.81549504871309	-7.34833674554758	1.22078337462837	-1.24745994719041	0.00149157761293228	0.00607936138863402
1.1	-2.78950941184984	0.154492000195794	641.832013487022	6.91995772204584	-7.44804216590306	1.24247866380616	-1.27080803743699	0.00163679757623481	0.00594430828572351
1.11	-2.81611760851366	0.228999398818821	643.335324145572	7.0044013748088	-7.56480847661333	1.25362829983048	-1.2814946521922	0.00174214421405794	0.00579278829145374
1.12	-2.73476778201014	0.384287850074264	645.102042244674	7.06652752654468	-7.68918866162207	1.25477429686058	-1.27995524783015	0.00180832132403141	0.0056347401511736
1.13	-2.55735576050917	0.601569102700199	646.851132647019	7.10641585424631	-7.80768906517391	1.24795862336061	-1.26859180649169	0.00183999771076826	0.00548602323621106
1.14	-2.31893807256423	0.850523208388309	648.344049932756	7.12581546173957	-7.90607417114075	1.2361218657228	-1.25110779647719	0.00184386141072657	0.00536423869247554
1.15	-2.06944623608409	1.09496590758447	649.422347662315	7.12724313627679	-7.97281211833222	1.22233438326898	-1.23157651590526	0.00182655291493972	0.00528414129754523
1.16	-1.86190722101425	1.30030961892066	650.026149115658	7.11328334354931	-8.00185518620309	1.20908709879078	-1.21350704204043	0.00179321665355814	0.00525375309752257
1.17	-1.74002036628492	1.44102479389374	650.191777659238	7.08634540902088	-7.99414645509937	1.19784216578453	-1.19916253466966	0.00174711386966908	0.00527206802211133
1.18	-1.72806935314727	1.50614969564949	650.031440069736	7.04889066130167	-7.95757739623109	1.18895279153194	-1.18929813293777	0.00169028063044185	0.00532880619063802
