Time [s]	GRFml [N]	GRFap [N]	GRFv [N]	Mml [N.m]	Map [N.m]	Mv [N.m]	Mfree [N.m]	COPml [m]	COPap [m]
0.01	21.6857430327515	-2.31132952325617	831.404016488277	-64.6490823356364	1.70497425042128	-5.44718853371429	-3.7561132330276	0.00378938563505024	0.0024226952928456
0.02	21.9727331215452	-2.46023845700677	831.788817056681	-64.772865361118	1.61812852516958	-5.38748535128036	-3.67155947480007	0.00368321314682123	0.00253637516518918
0.03	22.2537872454168	-2.6054696390347	832.166616872521	-64.8930888131316	1.53334448795388	-5.3289065355696	-3.58864054132313	0.00357952596971611	0.00264642186224388
0.04	22.5233617988637	-2.74408009449329	832.52641901147	-65.0062441476395	1.45214813944066	-5.27255984618278	-3.50897204541867	0.00348017594310947	0.00274963458157503
0.05	22.776225994334	-2.87345053456154	832.856504004927	-65.1088236468151	1.3759201335864	-5.21947285350343	-3.43406665714657	0.00338684120912721	0.00284288193442002
0.06	23.0076651676009	-2.99140455788226	833.144800112453	-65.1974603994259	1.30583469084173	-5.17055328131479	-3.36527489478862	0.00330095212489207	0.0029232362608823
0.07	23.2136628646651	-3.09629873990491	833.37933480883	-65.2690741775646	1.24280761198955	-5.1265562880871	-3.3037341718226	0.00322362801548459	0.00298810739096333
0.08	23.3910530977183	-3.18707808608412	833.548754572101	-65.3210172453059	1.18745613862871	-5.08806034007044	-3.25032868149509	0.00315562810217689	0.00303536985669463
0.09	23.5376356854539	-3.26329407511567	833.64289141469	-65.3512133115656	1.14007275084347	-5.05545271055781	-3.20566201218432	0.00309731915823651	0.00306347738163658
0.1	23.6522494893937	-3.32508537397112	833.653346971423	-65.3582823671745	1.10061422514439	-5.02892497684787	-3.17004359477287	0.00304866152397476	0.00307155862252427
0.11	23.7348005122228	-3.37312402341172	833.574059228193	-65.3416441217245	1.06870644625445	-5.00847823190425	-3.14348924108875	0.00300921411430775	0.00305948864746632
0.12	23.7862441090422	-3.40853226145439	833.401813813166	-65.3015932314824	1.0436646263358	-4.99393712923135	-3.12573519610575	0.00297815803953469	0.00302793150590722
0.13	23.8085228450886	-3.43277700983296	833.136661595988	-65.2393404916317	1.02452778444689	-4.9849713771247	-3.11626435164602	0.00295433749517861	0.00297835044570921
0.14	23.8044636855288	-3.44755028558164	832.782207290085	-65.1570156153486	1.01010562194604	-4.98112292227204	-3.11434260758125	0.00293631571506387	0.00291298380255652
0.15	23.7776401091581	-3.45464436381455	832.34573969168	-65.0576290594702	0.999035333233525	-4.9818368313234	-3.1190628620256	0.00292244306853687	0.00283478624485634
0.16	23.7322063023931	-3.45583041090135	831.838182720778	-64.9449924694578	0.989845443444395	-4.98649379923583	-3.12939379717495	0.00291093385004513	0.0027473368069067
0.17	23.672711740952	-3.45274858135268	831.27385693973	-64.8235995691522	0.981023483141676	-4.99444228011665	-3.14423051973785	0.00289994797505562	0.0026547168802968
0.18	23.6039051585004	-3.44681631969552	830.670052937193	-64.6984715649313	0.97108420209825	-5.00502843477693	-3.16244421467081	0.00288767366446888	0.00256136295396273
0.19	23.5305371159287	-3.4391599539379	830.046430008068	-64.5749732194297	0.958635087467794	-5.01762239560363	-3.18292826092601	0.00287240726215523	0.00247190029896843
0.2	23.4571701298568	-3.43057275258942	829.424265041285	-64.45860753691	0.942436174763017	-5.03163973382579	-3.20463870478454	0.0028526265697485	0.00239096489881445
0.21	23.3880046269104	-3.42150059298822	828.825586607002	-64.3547983704493	0.921451504324693	-5.04655744335546	-3.22662754402687	0.0028270544763508	0.00232302166049396
0.22	23.3267279152324	-3.41205440208378	828.272237190434	-64.2686711182626	0.894890056693736	-5.06192419475807	-3.24806789088889	0.00279471018260021	0.00227218725676286
0.23	23.2763919781519	-3.40204671631713	827.784911800231	-64.2048419648945	0.862234568549923	-5.07736502977532	-3.26827069781439	0.00275494594238249	0.00224206582079492
0.24	23.2393242816864	-3.39104817874303	827.382223441927	-64.1672258225246	0.823257255131704	-5.09258103227776	-3.28669329591977	0.0027074679454395	0.00223560514072785
0.25	23.2170740405492	-3.37845863655588	827.079845075338	-64.158872256414	0.778022112806724	-5.10734480239044	-3.30294046971374	0.00265234071431799	0.00225498001024289
0.26	23.2103946023954	-3.36358677805133	826.889773777711	-64.1818372909703	0.726874114774564	-5.12149276074833	-3.3167591441037	0.0025899751622658	0.00230150803498716
0.27	23.2192608804417	-3.34573198031271	826.819756227712	-64.2370971750968	0.670416213738754	-5.13491541124055	-3.32802797741548	0.00252110122477627	0.00237560154995405
0.28	23.2429191759022	-3.32426222165183	826.872905796973	-64.3245080485243	0.609475600960707	-5.14754669313341	-3.33674323850177	0.00244672670285281	0.00247675746617362
0.29	23.2799653572015	-3.2986825108913	827.047531101364	-64.4428131228828	0.545061118844924	-5.15935346473524	-3.34300231155004	0.00236808460397217	0.00260358494600824
0.3	23.3284462602611	-3.26868923828852	827.337184514562	-64.589696608746	0.478314066684824	-5.17032599510003	-3.34698604310431	0.00228657179955978	0.00275386892038429
0.31	23.3859783829656	-3.23420707916996	827.730927594808	-64.7618813184841	0.410454864757877	-5.18047011725587	-3.34894095169226	0.00220368220080722	0.00292466572056632
0.32	23.4498774880602	-3.19540648568397	828.213799306174	-64.9552647810324	0.342728145009936	-5.18980143918043	-3.3491620920331	0.00212093786053442	0.00311242560170122
0.33	23.5172926045989	-3.15270128132273	828.767462938643	-65.1650869285418	0.276348817592854	-5.19834174183888	-3.34797713122822	0.00203982142201584	0.00331313576573126
0.34	23.5853381139497	-3.10672732313419	829.370999248954	-65.3861210435942	0.212451527741891	-5.20611744111701	-3.34573197642718	0.00196171315569557	0.00352247670261335
0.35	23.6512180925968	-3.05830452010674	830.001806926334	-65.6128787496069	0.152045678241723	-5.2131597739728	-3.34277810823781	0.00188783546699309	0.00373598428845645
0.36	23.7123378186357	-3.00838560773428	830.636567260337	-65.8398194174763	0.0959778646060414	-5.21950620589567	-3.339461630561	0.00181920725310503	0.00394921010704229
0.37	23.7663982808004	-2.95799591058026	831.252227935712	-66.0615544503151	0.0449031718150188	-5.22520245852529	-3.33611394817999	0.00175660987505979	0.00415787287251268
0.38	23.8114706009527	-2.90816883056769	831.826961153768	-66.2730374696969	-0.000733666292802582	-5.23030452838515	-3.33304392596594	0.00170056584039199	0.00435799458129296
0.39	23.8460484333159	-2.85988195619899	832.341053621742	-66.469732411327	-0.0407067196460993	-5.23488010889404	-3.33053136232278	0.00165133060893633	0.00454601605193411
0.4	23.8690775767205	-2.81399849852656	832.777690115831	-66.6477528762195	-0.0750068839437255	-5.23900893070586	-3.32882161711773	0.00160889728157066	0.00471888775516266
0.41	23.8799631731384	-2.77121824794495	833.123598005864	-66.8039676918859	-0.103829899144575	-5.24278168730626	-3.32812126298646	0.00157301334248819	0.0048741332216462
0.42	23.8785559154861	-2.73204145661022	833.369526994257	-66.9360694248049	-0.127555230374981	-5.24629739704108	-3.32859467101977	0.00154320812205924	0.0050098837698325
0.43	23.8651196058285	-2.69674804608872	833.510546023822	-67.0426044555808	-0.146717069296574	-5.24965925041752	-3.3303614905192	0.00151882924098928	0.00512488475045307
0.44	23.8402831557907	-2.66539339256616	833.546147510667	-67.1229650884544	-0.161969045914368	-5.25296918306661	-3.3334950314772	0.00149908598962248	0.00521847489098055
0.45	23.8049806773959	-2.63782073382567	833.480157440106	-67.1773459298881	-0.174044501359763	-5.25632158176633	-3.33802160193219	0.00148309738501074	0.00529054158014181
0.46	23.7603836574098	-2.6136890565479	833.320458127596	-67.2066683586036	-0.183714352326106	-5.25979665766794	-3.34392088503587	0.00146994252607719	0.00534145600315963
0.47	23.7078293339657	-2.59251423943322	833.078538317019	-67.2124782551706	-0.191744670679146	-5.26345409559958	-3.35112745774403	0.00145871082743647	0.00537199287411233
0.48	23.6487493028219	-2.57372031908539	832.768892507869	-67.1968232099282	-0.198856102677606	-5.26732760422325	-3.35953355055856	0.00144854975131111	0.00538324007410923
0.49	23.5846020836032	-2.55669707060862	832.408297728638	-67.1621161452656	-0.205687159121435	-5.27142094752613	-3.36899312315773	0.00143870777413543	0.00537650376692161
0.5	23.5168128946585	-2.54085969594916	832.015001177911	-67.110992649279	-0.212763221458367	-5.27570593774464	-3.37932728350402	0.00142857052256084	0.00535321451648038
0.51	23.4467232483923	-2.52570631330539	831.6078560251	-67.046169315819	-0.220472833773243	-5.28012272249582	-3.39033101007221	0.00141768829664439	0.00531483957955818
0.52	23.3755522248432	-2.51086914270384	831.205445010326	-66.9703100304748	-0.229052495008911	-5.2845825178779	-3.40178105288691	0.00140579356850388	0.00526280591633584
0.53	23.3043704544435	-2.4961557673336	830.825232153053	-66.8859064585975	-0.238580742441965	-5.28897274066767	-3.41344479634397	0.00139280750049735	0.00519843759322425
0.54	23.2340869907615	-2.4815775789698	830.482781767035	-66.7951780206624	-0.248981843548655	-5.29316429380026	-3.42508977447443	0.0013788350583607	0.00512291020334994
0.55	23.1654484323503	-2.46736343338646	830.191081047274	-66.6999954362687	-0.260038910308324	-5.29702057699554	-3.43649344744169	0.00136414888267433	0.00503722376904824
0.56	23.099048910298	-2.45395757983231	829.959997789098	-66.6018305462314	-0.271415742501468	-5.30040764370388	-3.44745278632146	0.00134916269780623	0.00494219439250672
0.57	23.0353489406832	-2.44200201158188	829.795898462431	-66.5017336559224	-0.28268622171699	-5.30320481833445	-3.45779317964608	0.00133439564420802	0.00483846376102785
0.58	22.9747006864485	-2.43230443469834	829.701444140957	-66.4003381598162	-0.293369643314438	-5.30531503186056	-3.46737617515473	0.00132042947578119	0.00472652456285581
0.59	22.9173769071538	-2.42579399615416	829.675573021458	-66.2978907844799	-0.302970016055632	-5.30667413286188	-3.47610560568812	0.00130786102667633	0.00460675898856354
0.6	22.8636008096976	-2.42346768693811	829.713668896135	-66.1943044977411	-0.311017101980511	-5.30725848404797	-3.48393171768929	0.00129725268353656	0.00447948682780393
0.61	22.8135741454313	-2.42633089189571	829.807905458464	-66.0892300392064	-0.317106830831552	-5.30709025659965	-3.4908530196121	0.0012890837711401	0.00434501925111808
0.62	22.767501211512	-2.43533586489165	829.947747263737	-65.9821411827566	-0.320938715835073	-5.30623997831044	-3.49691568850142	0.00128370575543396	0.00420371420282931
0.63	22.7256068762169	-2.45132195420583	830.120580058253	-65.8724282806514	-0.322348025100528	-5.30482606608866	-3.50221050736283	0.00128130398606025	0.00405602941763786
0.64	22.6881473185205	-2.47496119731736	830.31243652333	-65.7594943798233	-0.321330721136526	-5.30301126682594	-3.5068674444083	0.00128186835259398	0.00390256938828105
0.65	22.6554128044581	-2.50671247283687	830.508778658093	-65.6428482447124	-0.318059557541275	-5.30099613003461	-3.51104811889891	0.0012851747388191	0.00374412311932674
0.66	22.6277224675497	-2.54678678161391	830.695295341795	-65.5221889519053	-0.312890196707315	-5.29900982801329	-3.51493651912397	0.00129077856039589	0.00358169015807348
0.67	22.6054116710588	-2.59512548089051	830.858673229294	-65.3974773098146	-0.30635675890888	-5.29729881227614	-3.51872843941562	0.00129802100148048	0.00341649314743502
0.68	22.588813065462	-2.65139247247498	830.987301051127	-65.2689901601507	-0.299156800268509	-5.29611393758994	-3.52262017982627	0.00130604786535622	0.00324997594620784
0.69	22.5782328837	-2.71498050677666	831.071871473791	-65.1373545875598	-0.292126311020077	-5.29569678822105	-3.52679710047258	0.001313840262001	0.00308378716073363
0.7	22.5739243189387	-2.78503096393285	831.105850652743	-65.0035601457668	-0.286205891876772	-5.29626599851038	-3.5314226402226	0.00132025570774695	0.00291974968643259
0.71	22.5760599953474	-2.86046575839135	831.085793095169	-64.8689483480906	-0.282399772453253	-5.29800436831846	-3.53662839533834	0.00132407764051387	0.00275981753455475
0.72	22.5847055729091	-2.94002942106747	831.011487975636	-64.7351798143214	-0.281729752423551	-5.30104753316718	-3.54250580816776	0.00132407088537742	0.00260602179542946
0.73	22.59979643215	-3.02233896842648	830.885932104608	-64.6041805655956	-0.285186449520875	-5.30547486229599	-3.54909994065502	0.00131904026124056	0.00246040805134018
0.74	22.6211191797059	-3.10593888281813	830.715133818335	-64.478069970324	-0.293680411300475	-5.31130313158668	-3.55640570536028	0.00130788931662771	0.00232496789580847
0.75	22.6482994202425	-3.18935840329266	830.507760646799	-64.3590737297388	-0.307995680028569	-5.31848336104569	-3.5643668023032	0.00128967613209091	0.00220156744442579
0.76	22.680796875459	-3.27116835054948	830.274651288561	-64.2494260199002	-0.328748290397208	-5.32690102856466	-3.57287746903022	0.00126366323332654	0.00209187584262453
0.77	22.7179085179949	-3.35003486491573	830.028218821521	-64.1512654530982	-0.35635193434333	-5.33637968409649	-3.5817870007506	0.00122935892104255	0.00199729679667766
0.78	22.7587799479049	-3.42476769820093	829.781776944651	-64.0665298668383	-0.390992660088198	-5.34668780224573	-3.59090684496464	0.00118654773163868	0.00191890608362826
0.79	22.802424792331	-3.49436104246179	829.548824215006	-63.9968550806688	-0.432614004452944	-5.35754853690844	-3.60001992903429	0.00113530827966865	0.00185739783907969
0.8	22.8477514750389	-3.55802527527804	829.342322651368	-63.9434826740245	-0.480913414963808	-5.3686518880664	-3.60889174807558	0.0010760173736229	0.00181304218093958
0.81	22.8935963012051	-3.615208429296	829.174006743074	-63.907181532714	-0.535350231643058	-5.37966866555711	-3.61728263248129	0.00100934000815312	0.00178565640169699
0.82	22.9387614531282	-3.66560663553565	829.053756926689	-63.8881873953554	-0.5951649002705	-5.39026554315561	-3.6249605365157	0.000936205579711514	0.00177459154984094
0.83	22.9820562119182	-3.70916323280811	828.989068129402	-63.8861639189476	-0.659408512129502	-5.40012044221969	-3.63171364750557	0.000857771405995256	0.00177873572190973
0.84	23.0223395237673	-3.74605667230105	828.984639224631	-63.9001878974147	-0.726981241010858	-5.40893746915851	-3.63736211295065	0.000775375308682459	0.00179653480341498
0.85	23.0585619285641	-3.77667777358362	829.042103430021	-63.928760238449	-0.796677804327285	-5.41646065498265	-3.64176822177396	0.0006904796018778	0.00182603073862558
0.86	23.0898048700658	-3.80159730430207	829.159913047722	-63.9698431695493	-0.867237734462087	-5.42248580644453	-3.64484445466608	0.000604609278992612	0.0018649166928191
0.87	23.1153155116519	-3.82152525814992	829.333384760713	-64.0209229474626	-0.93739802570331	-5.42686987358493	-3.64655893309243	0.000519287480480227	0.00191060772139928
0.88	23.13453538498	-3.83726358838064	829.554904224414	-64.0790961352163	-1.00594563114586	-5.42953736334577	-3.64693794053888	0.000435971436856287	0.00196032481130169
0.89	23.1471214899433	-3.84965450597224	829.814281204087	-64.1411763402794	-1.07176732532894	-5.4304834775827	-3.64606535432548	0.000355992011054249	0.00201118945040665
0.9	23.152958827395	-3.8595267552296	830.099239285419	-64.2038172307959	-1.13389461740907	-5.4297738195196	-3.64407900162155	0.000280499719369626	0.00206032525253096
0.91	23.1521637612465	-3.86764251225375	830.396017512437	-64.2636467188531	-1.19154168483396	-5.42754068770696	-3.64116412815126	0.000210419710735118	0.00210496266118089
0.92	23.1450780511235	-3.87464768686734	830.690055469323	-64.3174064724286	-1.24413468123879	-5.4239761524303	-3.63754433156313	0.000146417659312256	0.00214254241322338
0.93	23.1322538468133	-3.88102841937441	830.966728601372	-64.3620904378971	-1.29133123213718	-5.41932227741315	-3.63347045357443	8.88779118227612e-05	0.0021708132957093
0.94	23.1144303674578	-3.88707642649344	831.212097231621	-64.3950758616488	-1.33302944175945	-5.41385900071838	-3.62920803754024	3.78945688860753e-05	0.00218791979735367
0.95	23.0925033795613	-3.8928655499481	831.413631011134	-64.4142404203951	-1.36936626574724	-5.40789031460936	-3.62502403508078	-6.7244904220201e-06	0.00219247555109039
0.96	23.0674889188164	-3.89824139162857	831.56087063439	-64.4180595191915	-1.40070562839418	-5.40172947742102	-3.62117348345777	-4.54412713298893e-05	0.00218361898324478
0.97	23.0404829555994	-3.90282528979226	831.645990682932	-64.4056785918311	-1.4276171518466	-5.39568404534085	-3.61788687372035	-7.89602202304976e-05	0.00216104831249796
0.98	23.0126188712298	-3.9060331253388	831.66423147086	-64.3769563194683	-1.4508467929522	-5.39004152446462	-3.61535888973315	-0.000108191368616862	0.00212503394924039
0.99	22.9850246850583	-3.90710858436714	831.614173691423	-64.3324760302789	-1.47128103023783	-5.38505641188207	-3.61373912337048	-0.00013420613427553	0.00207640739235501
1	22.958781949561	-3.90516959431624	831.497837323752	-64.2735240966892	-1.48990649313009	-5.38093931965223	-3.61312526604421	-0.000158188106893247	0.00201652685463589
1.01	22.9348881153107	-3.89926575649371	831.320595347505	-64.2020358308802	-1.50776706848098	-5.37784876069269	-3.61355914682452	-0.00018138127782275	0.00194722101028508
1.02	22.9142239680783	-3.88844378258379	831.090902904604	-64.1205111033584	-1.52592055270413	-5.37588602668586	-3.61502583877924	-0.000205038183884718	0.00187071338306777
1.03	22.8975274684597	-3.87181727049006	830.819853108124	-64.031903573529	-1.54539684471504	-5.37509341323524	-3.6174558943192	-0.000230370329495611	0.00178953091457291
1.04	22.8853749954009	-3.8486366823286	830.520581113882	-63.9394889223648	-1.56715950455791	-5.37545585671518	-3.6207306042917	-0.000258503040512142	0.0017064011036011
1.05	22.8781706257445	-3.81835515893684	830.207547680213	-63.8467187163411	-1.59207224912106	-5.37690585187963	-3.62469001185251	-0.000290436600191543	0.00162414273169878
1.06	22.8761436900053	-3.78068584863952	829.89574158495	-63.7570674211842	-1.62087163742106	-5.3793313312195	-3.62914325883773	-0.000327015138169747	0.00154555553946002
1.07	22.8793544472535	-3.73564675151813	829.599846333933	-63.6738805547449	-1.65414683367753	-5.38258601786644	-3.6338807078686	-0.000368904305249841	0.00147331426247423
1.08	22.8877073354278	-3.68358967198282	829.333420070857	-63.6002319764347	-1.69232694794015	-5.3865016239356	-3.63868717610443	-0.000416578290380383	0.00140987216320414
1.09	22.9009708925786	-3.62521070054477	829.108138118981	-63.5387978415934	-1.73567606226361	-5.39090116400459	-3.64335554406885	-0.000470316244234098	0.00135737861577954
1.1	22.9188031233628	-3.56154066207678	828.933144971951	-63.4917538201007	-1.78429567489442	-5.39561259476663	-3.64769997148565	-0.000530207691055058	0.0013176144469265
1.11	22.940780816873	-3.49391511150278	828.814556835664	-63.460700838364	-1.8381339529451	-5.40048197962304	-3.6515679654459	-0.000596166062749133	0.00129194766078351
1.12	22.9664311195699	-3.42392465972275	828.755147259745	-63.4466229303929	-1.89700089004305	-5.40538541085772	-3.65485060534817	-0.000667949101741318	0.00128131094789305
1.13	22.995263543288	-3.3533476005735	828.754237454066	-63.4498788788804	-1.96058823070335	-5.41023899890199	-3.65749033132105	-0.000745184574330566	0.00128620108056998
1.14	23.0268005544172	-3.28406791335801	828.807800221179	-63.4702273101098	-2.0284928555975	-5.41500635235959	-3.65948584216349	-0.00082739953150035	0.00130669901467508
1.15	23.0606049553078	-3.21798267040187	828.908772856422	-63.5068829051064	-2.1002422260637	-5.41970311625858	-3.66089381603417	-0.000914051259773622	0.00134250833627149
1.16	23.0963024372787	-3.15690362987456	829.047560774462	-63.558599531864	-2.17532046351442	-5.4243983004687	-3.66182735069964	-0.00100455808298432	0.00139300868688468
1.17	23.1335979547389	-3.10245829712279	829.212700944877	-63.6237745091849	-2.25319368816136	-5.42921230578113	-3.66245120744937	-0.00109832830081873	0.00145732003502991
