Time [s]	GRFml [N]	GRFap [N]	GRFv [N]	Mml [N.m]	Map [N.m]	Mv [N.m]	Mfree [N.m]	COPml [m]	COPap [m]
0.01	6.76937445280844	1.11722179054044	818.227735975255	1.41460853791718	2.13765601609686	2.99790443560248	2.98342563063057	0.00410929020172803	-0.00689782329169639
0.02	6.71560615909511	1.51903543501805	818.082683172789	0.858496827693714	1.94125399488294	3.01689461664643	3.00638396616992	0.00387073292279278	-0.00622093877495987
0.03	6.66363098475672	1.92265113491674	817.99073269353	0.300161844101708	1.7491111341733	3.03552794524098	3.02910092900909	0.00363735224044087	-0.0055425386582014
0.04	6.61482304868309	2.32522847498592	817.975922131782	-0.256551234068008	1.56516234731714	3.05348065399344	3.05121456563448	0.00341392561230823	-0.0048673681213491
0.05	6.57042680534282	2.72382341506986	818.058936554714	-0.807681388837817	1.39308034783112	3.07045049101134	3.07237922613792	0.00320491481644499	-0.00420024979297504
0.06	6.5314960226302	3.11535302759654	818.255543384191	-1.34910411840306	1.23612801993237	3.0861683049938	3.09227759155577	0.00301428684343142	-0.00354614263192738
0.07	6.49884433913462	3.49657490569123	818.575298350608	-1.87650411833821	1.0970321273771	3.1004083053182	3.11063173635988	0.00284536031903047	-0.00291018017601137
0.08	6.47301033619041	3.86408750681701	819.020614004553	-2.38537678079449	0.977884762055282	3.11299652818646	3.12721278308133	0.00270068538001042	-0.00229767718398873
0.09	6.45423893410608	4.21435534999911	819.586256241896	-2.87106365490192	0.880077101197756	3.12381712898434	3.14184875550908	0.00258196273122739	-0.00171409749377642
0.1	6.44247971006233	4.54376043269191	820.259304593143	-3.32882343524629	0.804267994820083	3.13281622387469	3.15443029494641	0.00249000511231129	-0.00116498011200698
0.11	6.43740153803196	4.84867872262196	821.019580901794	-3.75393659387103	0.750387792960172	3.14000311448638	3.16491397131098	0.00242474178387891	-0.000655824724841697
0.12	6.43842186023693	5.12557831043223	821.840520602005	-4.14183872023119	0.717675788633432	3.14544884328553	3.17332299926522	0.00238526409352892	-0.000191941635785468
0.13	6.44474799186509	5.37113393271041	822.690433028947	-4.48827518107797	0.704747824619918	3.14928213955358	3.17974526090771	0.00236990787466443	0.000221725674219168
0.14	6.45542719352078	5.58235119629379	823.534073696099	-4.7894679820203	0.709689094205096	3.15168292332847	3.18432864145787	0.00237636651283695	0.000580794796934851
0.15	6.46940185450843	5.75669301172295	824.33443354293	-5.04228475911269	0.730166033208324	3.15287363426352	3.18727380121134	0.00240182709304852	0.000881643447301434
0.16	6.48556602650913	5.89220049128236	825.054638686955	-5.24439964565325	0.763550497144251	3.1531087415799	3.1888246314443	0.00244312118060941	0.00112160082584843
0.17	6.50281972072168	5.98760086121912	825.659849672583	-5.39443628816043	0.807049155806755	3.15266286777814	3.18925676680442	0.00249688150425332	0.0012991192502149
0.18	6.52011780081368	6.04239572106251	826.119051628219	-5.49208442702999	0.857831201229182	3.15181802021999	3.18886464286654	0.00255969607589077	0.00141391527763934
0.19	6.53651092093534	6.05692417123885	826.406635735347	-5.53818308292014	0.913148011800416	3.15085046875545	3.18794768479691	0.00262825203229274	0.0014670714678972
0.2	6.55117671233761	6.03239681974324	826.503687206955	-5.53476535270817	0.970439283238161	3.15001783191607	3.18679628167324	0.00269946262841456	0.00146109233614007
0.21	6.56344024686322	5.97089835439553	826.398914467218	-5.48506196523426	1.02742125016043	3.14954693662667	3.18567823290899	0.00277057224163438	0.00139991071095041
0.22	6.57278363282641	5.87535811071545	826.089177064051	-5.39346292674869	1.0821538965133	3.14962299508976	3.18482634331599	0.00283923584638082	0.00128884344014942
0.23	6.57884536523204	5.74948976269785	825.579594507293	-5.26543866133572	1.13308540371969	3.15038059636344	3.18442779021708	0.00290357107791845	0.00113449798856505
0.24	6.58141070409996	5.59770281226006	824.883243113278	-5.1074239051501	1.17907343016872	3.15189693915906	3.18461579232561	0.00296218262100833	0.0009446337910527
0.25	6.58039485145293	5.42498986774872	824.020471485892	-4.92666915366327	1.21938408033197	3.15418763793334	3.1854639822709	0.0030141601473239	0.000727984141763081
0.26	6.57582101477747	5.23679471915803	823.017886037453	-4.73106562668119	1.25367054307993	3.15720531953942	3.1869837321874	0.00305905231625788	0.000494045840734987
0.27	6.5677955747273	5.03886689822339	821.907074729694	-4.52895047641801	1.28193430658604	3.16084109742572	3.18912451623658	0.00309682039734826	0.00025284474825515
0.28	6.55648252579092	4.83710874053418	820.723149068808	-4.3288993197676	1.30447255600015	3.16492887120205	3.19177722757426	0.0031277758378188	1.46858233884698e-05
0.29	6.54207915272912	4.63742095290574	819.50319074071	-4.13951315524177	1.32181580938101	3.16925225922158	3.19478021185795	0.00315250657191327	-0.000210103812051105
0.3	6.52479457549954	4.44555236192102	818.284689926611	-3.96920637898502	1.33466004161913	3.17355383928622	3.19792764499645	0.00317179705167955	-0.000411430669213846
0.31	6.50483238040427	4.26695892539327	817.104057485455	-3.82600201081852	1.34379749370677	3.17754625630005	3.20097977709087	0.00318654688708985	-0.000579682161853648
0.32	6.48237809702481	4.10667628688067	815.995283387717	-3.71733945816398	1.35005008674238	3.1809246634909	3.20367449210707	0.00319769264371388	-0.000705958898174636
0.33	6.4575918193976	3.96920921170121	814.988799915741	-3.64989926308908	1.35420888811901	3.18337990194642	3.20573959550055	0.00320613679465081	-0.000782286584432715
0.34	6.43060584141931	3.8584402316961	814.110591346164	-3.62944837103147	1.3569824513107	3.18461179574394	3.20690523886219	0.00321268710320318	-0.000801803189339705
0.35	6.40152680927253	3.7775588141556	813.381573406946	-3.66070859349758	1.35895611603356	3.18434194841044	3.20691591859616	0.00321800887197	-0.000758918022930926
0.36	6.37044160806803	3.72901142055345	812.817247135342	-3.74725015990862	1.36056356071296	3.18232546968048	3.20554154009371	0.0032225915836967	-0.000649440281234179
0.37	6.33742600757596	3.71447198559134	812.427614204725	-3.89141159563186	1.36207109271622	3.17836113586436	3.20258711435719	0.00322673053118786	-0.00047067537062376
0.38	6.3025549962213	3.73483166582298	812.217325559005	-4.09424663405709	1.36357438991612	3.17229958680708	3.19790074473695	0.00323052313826695	-0.000221487948960528
0.39	6.2659137293867	3.79020620383339	812.186023295067	-4.35549846152677	1.3650067113231	3.16404928004768	3.19137966159102	0.00323387885779652	9.76688781645875e-05
0.4	6.22760809722301	3.87995893666551	812.328827874302	-4.67360128044609	1.36615700953116	3.153580050081	3.18297416677617	0.00323654083673721	0.000484758354474694
0.41	6.18777406349875	4.00273733866012	812.636919288542	-5.04570892236344	1.36669592999692	3.14092424902718	3.17268945285575	0.00323811699452523	0.000936198642016348
0.42	6.14658512198619	4.15652100835969	813.098161751899	-5.46775000822981	1.36620738867271	3.126175566355	3.1605853591674	0.00323811779216915	0.00144693456744116
0.43	6.10425743996932	4.33867915512997	813.697726477562	-5.9345088971083	1.36422328713653	3.10948573236614	3.14677421434214	0.00323599778680742	0.00201054153108306
0.44	6.06105248861318	4.54603587480078	814.418675444962	-6.43973135336935	1.36025894991204	3.09105939711878	3.13141698896622	0.00323119806987992	0.00261936006636226
0.45	6.01727717700222	4.77494178232047	815.242479826563	-6.97625347298344	1.3538470394633	3.07114753927927	3.11471803991345	0.00322318686516275	0.00326465894482994
0.46	5.97328169280465	5.02135085050797	816.149458810025	-7.53615193322822	1.34456799934904	3.05003979587502	3.09691876725086	0.00321149589409792	0.00393682403814845
0.47	5.92945539357704	5.28090154828303	817.119136731108	-8.1109130738501	1.3320754675117	3.0280561138472	3.07829052417471	0.00319575057000727	0.00462556939359901
0.48	5.88622117935289	5.54900154670599	818.13052756675	-8.69161770342627	1.31611555731531	3.00553810925402	3.05912711977667	0.00317569262351844	0.00532016619212857
0.49	5.84402880572358	5.82091534354933	819.162364899433	-9.26913788725135	1.29653938912435	2.98284048313494	3.03973723428111	0.00315119434881112	0.00600968448806975
0.5	5.80334756958457	6.09185413514606	820.193301648166	-9.83434135687626	1.2733087355505	2.9603227888859	3.02043702865398	0.00312226425330615	0.00668324193565041
0.51	5.76465872544045	6.35706713872479	821.202106652573	-10.3782986359638	1.24649508730048	2.9383417799122	3.00154317833645	0.00308904445350269	0.00733025314913755
0.52	5.72844788202597	6.61193335295391	822.167884411233	-10.8924875523828	1.21627282708456	2.91724449423986	2.98336649867016	0.00305180065295958	0.00794067297672562
0.53	5.69519750393861	6.85205246436002	823.070340072989	-11.3689895483111	1.18290749625677	2.89736216069128	2.96620626270518	0.00301090593803467	0.00850522683951885
0.54	5.66537951954845	7.07333329755635	823.890104643044	-11.8006721462038	1.14674034058654	2.87900494484997	2.95034524646705	0.00296681991444172	0.00901562142897524
0.55	5.63944793267954	7.27207790883688	824.609126051059	-12.1813521048602	1.10817042388233	2.8624574972859	2.93604547842081	0.0029200648734129	0.00946472948512737
0.56	5.61783126685068	7.44505917857021	825.211121194263	-12.5059342185548	1.06763560499067	2.84797522521126	2.92354462423342	0.00287120071936899	0.0098467430915814
0.57	5.60092464819315	7.58958960811117	825.682073385008	-12.7705213699788	1.02559359553945	2.83578118428966	2.91305290916427	0.00282080031831837	0.0101572909008655
0.58	5.58908136177523	7.70357900453149	826.010749883582	-12.9724923255722	0.982504168227628	2.82606348051964	2.90475047080242	0.00276942675092373	0.0103935159065725
0.59	5.58260379483536	7.78557886319065	826.189206385329	-13.1105448257775	0.938813387047592	2.81897308205544	2.8987850444488	0.00271761369443577	0.0105541117527573
0.6	5.58173380196022	7.83481154217939	826.21324028648	-13.1847027256885	0.89494050115966	2.81462196501805	2.89526990986597	0.00266584983528386	0.0106393170497023
0.61	5.58664267866495	7.85118275729464	826.082752862018	-13.196287225958	0.851267902107047	2.81308155194747	2.89428206690921	0.00261456785334077	0.0106508686738147
0.62	5.59742109415769	7.83527649038761	825.801982441535	-13.1478535352586	0.808134306482014	2.81438144177703	2.89586065267373	0.00256413814557022	0.010591916490272
0.63	5.61406949197763	7.78833206419563	825.379576233498	-13.0430955570641	0.765831106903537	2.81850847086532	2.90000565747954	0.00251486709718674	0.0104669032745068
0.64	5.63648959895855	7.71220385046917	824.828477270638	-12.8867223299604	0.724601643750848	2.82540618061246	2.90667703471428	0.00246699938795888	0.0102814147547485
0.65	5.66447777041324	7.60930479760771	824.165614381483	-12.6843109134735	0.684642995627208	2.8349747940621	2.91579432483265	0.00242072356256909	0.0100420055970617
0.66	5.69772092773829	7.48253564078657	823.411396246865	-12.4421411523462	0.64610977197766	2.84707181827172	2.9272369230636	0.00237617991499285	0.00975600776733635
0.67	5.73579580391683	7.33520224708763	822.589024420457	-12.1670182367941	0.609119317939882	2.86151338911721	2.94084511224313	0.00233346964884792	0.00943132801079637
0.68	5.77817209890647	7.17092401326954	821.723653547313	-11.8660891857873	0.573757708515171	2.87807646011033	2.95642195760781	0.0022926642812388	0.00907624118749817
0.69	5.82421996378014	6.99353654753924	820.841438792526	-11.5466593127111	0.540085914091375	2.89650190778777	2.97373612229331	0.0022538143500729	0.00869918590919363
0.7	5.87322198989851	6.80699201379466	819.968519698713	-11.2160144019836	0.508145558779361	2.91649858566945	2.99252561505859	0.00221695664857624	0.00830856837225386
0.71	5.92438959396993	6.61526049427268	819.129995534194	-10.8812537602123	0.477963762878428	2.93774831013884	3.01250243048577	0.00218211942327478	0.00791257951941875
0.72	5.97688338347341	6.42223554288041	818.34894915299	-10.5491385474673	0.449556656654099	2.95991170902387	3.03335799164068	0.00214932520685689	0.00751902974523467
0.73	6.02983678483737	6.23164677526162	817.645574258366	-10.2259588936934	0.422931269815461	2.98263481159469	3.05476926031193	0.00211859118927307	0.00713520434629234
0.74	6.08238194531089	6.04698189928314	817.036454870984	-9.91742231840796	0.398085634566399	3.00555621146396	3.07640534378829	0.00208992723771186	0.00676774186875249
0.75	6.13367670350137	5.87142006291459	816.534036197731	-9.62856495687658	0.375007084216104	3.02831459529932	3.0979344017282	0.00206333184469651	0.00642253648033555
0.76	6.18293128401577	5.70777781996472	816.146313705042	-9.36368610952131	0.353668877543438	3.05055640335155	3.11903064283569	0.0020387864082786	0.00610466454420342
0.77	6.22943332337184	5.55846842261931	815.876752965342	-9.12630572483107	0.334025423852257	3.07194337453492	3.13938119855359	0.00201624833212555	0.00581833474167367
0.78	6.27256988450374	5.42547457600427	815.724437849408	-8.91914364276913	0.316006516370059	3.09215972995	3.15869266880052	0.0019956434848048	0.00556686041258014
0.79	6.3118452644241	5.31033426305046	815.684430011594	-8.7441187982174	0.29951109311687	3.1109187638583	3.17669715136971	0.00197685858726247	0.00535265227735744
0.8	6.34689363409526	5.2141387915231	815.748309446407	-8.60236613259984	0.284401125394776	3.12796863857905	3.19315759012195	0.00195973411392627	0.00517722938166747
0.81	6.37748585391937	5.13754184680732	815.904855141905	-8.49426869345086	0.270496276341621	3.14309721697207	3.20787230554766	0.0019440582996605	0.00504124595754745
0.82	6.40353015923666	5.08077806488633	816.140817272559	-8.41950231001554	0.257569969260576	3.15613580979145	3.22067860264773	0.00192956283945035	0.00494453190699734
0.83	6.42506678102086	5.04368947415999	816.441728456683	-8.37709029929238	0.245347454375985	3.16696176161888	3.23145538350827	0.00191592084229272	0.00488614475584329
0.84	6.44225692983009	5.02575809014538	816.792701553186	-8.36546585202182	0.233506363720839	3.17549984478977	3.24012472378888	0.00190274754453412	0.00486443116001023
0.85	6.4553668999264	5.0261429756797	817.179165187694	-8.38254003487813	0.221680101602363	3.18172247269909	3.24665240234995	0.00188960419064114	0.00487709632984668
0.86	6.46474832318499	5.04372018815824	817.587495289059	-8.42577368190949	0.209464241111334	3.18564877995456	3.25104740063569	0.00187600534508521	0.00492128002608568
0.87	6.47081580250857	5.07712420809652	818.005510742901	-8.49225179270358	0.196425897477674	3.18734264591823	3.25336041295842	0.0018614297085145	0.00499363803131161
0.88	6.47402327206701	5.12478966116755	818.42281299362	-8.57875936753063	0.182115841233003	3.1869097602016	3.25368143071985	0.00184533428364773	0.0050904281782496
0.89	6.47484046362382	5.18499238924258	818.830962091275	-8.68185785813779	0.166082913804225	3.18449384452019	3.25213648340309	0.00182717148802511	0.00520760009612405
0.9	6.47373080736065	5.25588917568453	819.223494281389	-8.79796157371907	0.147890130766186	3.18027215643429	3.24888363749767	0.00180640856425261	0.00534088780709469
0.91	6.47113196969458	5.33555566849478	819.595797806596	-8.92341344303426	0.127131717292919	3.17445040856034	3.24410837181124	0.00178254841862789	0.00548590416890916
0.92	6.46744004071847	5.42202225644484	819.944873273246	-9.05455949606981	0.103450227222751	3.16725724328127	3.23801846388226	0.0017551508499963	0.0056382359337836
0.93	6.46299814318728	5.51330782544692	820.269012053598	-9.18782130426146	0.0765528586183422	3.15893840873101	3.23083853688314	0.00172385303192099	0.00579353790557302
0.94	6.45808995738374	5.60745144585681	820.567430289336	-9.31976542980362	0.0462260974375361	3.14975078707061	3.22280442838153	0.00168838809527926	0.00594762436504582
0.95	6.45293835583381	5.70254211057257	820.839896932136	-9.44716871272881	0.0123478951921783	3.13995643025643	3.21415755008794	0.00164860072912316	0.00609655563932855
0.96	6.44770903266993	5.79674665706937	821.086391960392	-9.56707800509761	-0.0251032895859353	3.12981676044582	3.20513940959226	0.00160445887002922	0.00623671746016924
0.97	6.44251870831334	5.88833596642409	821.306825754969	-9.67686278228635	-0.0660430919264243	3.11958709034753	3.19598645959423	0.0015560607710791	0.0063648906272142
0.98	6.43744720500096	5.97570944562724	821.500843124213	-9.77425895758563	-0.110279796064969	3.1095116116069	3.18692542627802	0.00150363701162273	0.00647830850059991
0.99	6.43255243667809	6.05741767670875	821.66772633179	-9.85740222843188	-0.15751695123701	3.09981898541475	3.17816924605078	0.00144754730476514	0.0065747000152347
1	6.42788715220819	6.1321829715506	821.806401501437	-9.92484941263736	-0.207359943587367	3.09071864822564	3.1699137095469	0.00138827225657744	0.00665231624813651
1.01	6.4235161276597	6.19891742156257	821.915542794263	-9.97558650241488	-0.259326223201761	3.08239791685044	3.16233487520042	0.00132640050623598	0.00670993907732456
1.02	6.41953243428853	6.25673789516697	821.993759595186	-10.009022572135	-0.312858712319876	3.07501994223632	3.15558727419515	0.00126261191006871	0.00674687112926802
1.03	6.41607142383441	6.30497733215562	822.039844333438	-10.0249692092064	-0.367341781446534	3.06872252183066	3.14980288714003	0.0011976576103778	0.00676290699177085
1.04	6.41332117788002	6.34319163017941	822.053053080154	-10.0236057705421	-0.422119081084084	3.06361773914456	3.1450908335324	0.00113233794342782	0.0067582865288743
1.05	6.41152836371685	6.37116142978121	822.033388107412	-10.0054314632266	-0.47651246172429	3.0597923590745	3.14153768100038	0.00106747918779004	0.00673363202333509
1.06	6.4109987191872	6.38888819071295	821.981851335852	-9.97120596223485	-0.529841203851234	3.05730887196729	3.13920825508559	0.00100391013765644	0.00668987173419913
1.07	6.41209173991802	6.39658411769749	821.900639996513	-9.92188096015335	-0.581440810220943	3.0562070514032	3.1381468139262	0.000942439413898783	0.00662815323372287
1.08	6.41520954391786	6.39465573462568	821.793260627408	-9.85852564214888	-0.630680679163738	3.05650587277365	3.13837844682122	0.000883834310182087	0.00654975052345388
1.09	6.42078031453915	6.38368121056369	821.664544270981	-9.78224954504725	-0.676980072697223	3.05820563365887	3.13991056162636	0.000828801826064236	0.00645596937428504
1.1	6.42923714320084	6.36438188919918	821.520553845678	-9.69412655035662	-0.719821908295827	3.06129012342314	3.14273434270244	0.000777972378027729	0.00634805555101047
1.11	6.44099347631535	6.33758883932324	821.368383453362	-9.59512384626085	-0.758764029420277	3.06572870782	3.14682608732243	0.000731886516279568	0.00622711054377522
1.12	6.45641668596789	6.30420559734385	821.215858142346	-9.48603955579564	-0.793447739092517	3.0714782230505	3.15214836189515	0.000690984821370083	0.00609401912900938
1.13	6.47580150425443	6.26516858227264	821.071150688858	-9.36745236637991	-0.823603505816322	3.07848460991655	3.15865095726161	0.000655601018740484	0.00594939253120515
1.14	6.49934516621467	6.22140689999078	820.942338685124	-9.23968592508177	-0.8490538664851	3.08668425893704	3.16627166130657	0.000625958236280167	0.00579353018229518
1.15	6.52712608354094	6.17380339316597	820.836930154168	-9.10279001583943	-0.869713652794058	3.0960050775523	3.17493690348154	0.000602168241407869	0.0056264021215145
1.16	6.55908771761008	6.12315882018494	820.761388733326	-8.95653965436812	-0.88558775388379	3.10636732676061	3.18456235573037	0.000584233428491877	0.00544765300233138
1.17	6.59502904261698	6.07016095456782	820.720690040124	-8.80045227879832	-0.896766697549051	3.11768430298052	3.19505359416451	0.000572051280649096	0.00525662753952971
1.18	6.6346026039637	6.01536018905105	820.717939192756	-8.63382223997053	-0.903420385238444	3.12986295865328	3.20630693274771	0.000565420996924847	0.00505241610731398
1.19	6.6773207083145	5.95915291845069	820.754075803731	-8.45577086621327	-0.905790352510962	3.1428045602596	3.2182105324591	0.000564051951378359	0.00483391815495289
1.2	6.72256976132255	5.90177358258282	820.827687436386	-8.26530955062475	-0.904180946879457	3.15640547457695	3.23064586669359	0.000567573630725785	0.00459992019979173
