Time [s]	GRFml [N]	GRFap [N]	GRFv [N]	Mml [N.m]	Map [N.m]	Mv [N.m]	Mfree [N.m]	COPml [m]	COPap [m]
0.01	-3.00025076662486	0.985688615549007	590.107149723868	-2.72613270525916	22.3725271504772	0.575508414162208	-0.599865487527768	-0.000863819580793845	0.00789507682439328
0.02	-3.02413866681467	1.19809181365203	588.914017549473	-3.14475181936851	22.7147521818997	0.576383883732111	-0.607108892292592	-0.00159117378227425	0.00855565391555568
0.03	-3.16804215816493	1.42367950612982	587.787719168502	-3.58045473097893	23.1248705146062	0.569411402172705	-0.606177216739258	-0.0023473784955641	0.00932771156606926
0.04	-3.53040241918076	1.6727790974596	586.794281576758	-4.04638331116401	23.6598894944584	0.547985763617747	-0.590178350771627	-0.00315436126984436	0.0103037837599169
0.05	-4.15095338471318	1.95202021053545	586.016080633301	-4.54449256170257	24.3466487747028	0.508845335836704	-0.555900077885238	-0.00401431873650171	0.0115231817173245
0.06	-4.99988367533182	2.26341148019605	585.548861474816	-5.06373036697933	25.1751609235563	0.452818388349776	-0.504608894115347	-0.00490661738021581	0.0129608792371276
0.07	-5.98473224030746	2.60385934434952	585.486468178651	-5.58151748463818	26.0999381075709	0.384650718520524	-0.441793253706892	-0.00579065848581817	0.0145311781931683
0.08	-6.97187543387274	2.96515228971766	585.897270903328	-6.0677907233569	27.0483241227569	0.312013603761177	-0.375976724232066	-0.00661335431446652	0.0161041054224987
0.09	-7.81613560125775	3.33446898263987	586.799343075004	-6.4904550200687	27.9335843627039	0.243960262946681	-0.316927238166177	-0.00731906715563635	0.0175300354474853
0.1	-8.39099325686789	3.69546973571663	588.142112745912	-6.82107094004667	28.6699342672412	0.189183972902929	-0.273685078741528	-0.00785980816718768	0.0186669894239037
0.11	-8.61293335631439	4.02998357715258	589.800551507316	-7.03981227451955	29.1867114497962	0.154429772773719	-0.252822570491569	-0.00820389017085343	0.0194052661807904
0.12	-8.45580740283458	4.32021831018376	591.58465728762	-7.1390034879118	29.4393514650158	0.143342119465976	-0.257256421206072	-0.008341786622591	0.0196851695026203
0.13	-7.95377009702156	4.55130612324151	593.263099782798	-7.12480168874519	29.4155560704697	0.155919429898593	-0.285793531632299	-0.00828848824046136	0.0195052332009836
0.14	-7.19359471845919	4.71385392964416	594.596559989639	-7.01681331852383	29.135926923321	0.188620086723266	-0.333436310725804	-0.00808211953454996	0.0189201889692037
0.15	-6.2986620216566	4.80601565015042	595.374372131897	-6.84566533408174	28.6492797811726	0.235046684680732	-0.392332173224964	-0.00777901177534612	0.0180297106024099
0.16	-5.40772418974005	4.83450611426921	595.447901116863	-6.64881238090648	28.0237452986664	0.287044946353641	-0.453146357263382	-0.00744586735294339	0.0169604768920558
0.17	-4.65191104335207	4.81402910545659	594.755381174499	-6.46514362522206	27.3354609419158	0.336004012956136	-0.506583896117805	-0.00715008538874085	0.0158451124427874
0.18	-4.13353695177019	4.76487187327573	593.334971242078	-6.32919942378469	26.6570087436341	0.374140908921289	-0.544793065497815	-0.00694967937322921	0.014801907324119
0.19	-3.91005175899428	4.70891466037862	591.324741378275	-6.2659423478737	26.0476438105841	0.395588594129266	-0.562443246126436	-0.00688439929018925	0.0139187878418454
0.2	-3.98578858678978	4.66488175086337	588.949706104083	-6.28698879399301	25.5467903135936	0.397167997083241	-0.557363936522876	-0.00696958280310533	0.013243880134346
0.21	-4.31288121086587	4.64409027822188	586.496908365055	-6.38898091319229	25.1714070669718	0.378786942251628	-0.530726664438263	-0.00719387078852529	0.0127834447470936
0.22	-4.80098068941495	4.64800382881418	584.280387068904	-6.5544018429032	24.9169157184351	0.343452670978545	-0.486816630798445	-0.00752127825948212	0.0125063882832872
0.23	-5.33361063012038	4.66845862933738	582.59911617183	-6.75468972008277	24.7607341899047	0.296902845010653	-0.432460975361048	-0.00789732951958577	0.012353423128065
0.24	-5.78772388088632	4.69059300910031	581.692777200322	-6.9550844643958	24.6672535793508	0.246864703567608	-0.376166317109432	-0.00825820574042069	0.0122485386290214
0.25	-6.05269768972965	4.6975659178337	581.702025088112	-7.12033439354936	24.5933284335655	0.20196910757793	-0.327002397481392	-0.00854127863853771	0.0121107701714079
0.26	-6.04570113048467	4.67547959753607	582.640809963951	-7.22025846735836	24.4938106036035	0.170398378820001	-0.29328742756783	-0.00869514727461662	0.0118650125232418
0.27	-5.72173130391399	4.6168321120354	584.387442346745	-7.23422710884622	24.3270425587693	0.158435198823682	-0.281199384097565	-0.00868742242110654	0.0114513679835507
0.28	-5.0780280420433	4.52139739291684	586.698111410766	-7.15387040123382	24.0602968789988	0.169174554858521	-0.293534653762093	-0.00850899229684865	0.0108328643970992
0.29	-4.15348500088355	4.39445709399665	589.242013855422	-6.9836870913882	23.6748604187567	0.201710250110588	-0.328907755826239	-0.00817423915139948	0.0100012089197408
0.3	-3.02387049917371	4.24336766079908	591.652393224817	-6.73962283898991	23.1699976277133	0.251064106398465	-0.381673804456033	-0.00771747224508923	0.00897977772277342
0.31	-1.79338204384798	4.07408022659609	593.584139817266	-6.44601835952939	22.5647053823785	0.308975343398681	-0.442727955508435	-0.00718649772388558	0.00782270851252448
0.32	-0.582783144835419	3.88915754123551	594.767278308517	-6.13153037696707	21.8962727193002	0.365444982161602	-0.501115384511981	-0.00663461388417341	0.00660916275735529
0.33	0.485438921051526	3.68808178402813	595.046942827131	-5.82468385771209	21.2152703498805	0.410711056495464	-0.54614412787249	-0.00611236607848709	0.00543269854642925
0.34	1.30368102212675	3.46955911013475	594.403686469058	-5.54965912366993	20.5775491994633	0.437198050905274	-0.569524096771347	-0.00566020043883486	0.0043870218666644
0.35	1.79532541943246	3.23459555843943	592.952053725471	-5.32281718802721	20.0347702055779	0.440989436479587	-0.567027452646697	-0.00530286595598695	0.00355066443015034
0.36	1.92728924980493	2.98876384589151	590.919139462009	-5.15037487033708	19.6255390546565	0.422510407571296	-0.53929031691406	-0.00504615733942515	0.00297381873977637
0.37	1.71603158118897	2.74245177784336	588.60766925531	-5.02756725966028	19.369145621229	0.386322661603008	-0.491605359292975	-0.00487640479845997	0.0026702993218834
0.38	1.22512870092378	2.50879795865446	586.349784903145	-4.93953804990043	19.2632228382767	0.340146362635114	-0.432806543645005	-0.00476293683720386	0.00261641461692858
0.39	0.554435228414056	2.30005824403341	584.45837332189	-4.86401577612997	19.2855930381216	0.293372701812569	-0.373542323956665	-0.00466345350255037	0.00275681151712942
0.4	-0.177062486863631	2.12384683606492	583.182682557938	-4.77553143759396	19.3995325094801	0.255387485739877	-0.324326671462355	-0.00453177704712693	0.00301567700681815
0.41	-0.851065689103785	1.98076529224317	582.674265154384	-4.65054603329151	19.5609923469612	0.234003762916217	-0.293745898124142	-0.00432684218523582	0.00331058658487354
0.42	-1.36838440290619	1.86436262521626	582.967986561343	-4.47249924897223	19.7261348542723	0.234232799106118	-0.287112582239727	-0.00402123428589307	0.00356605746284955
0.43	-1.6626312007422	1.76342449310103	583.980913410221	-4.2356179461845	19.8578335040644	0.257540999116148	-0.305737081676263	-0.00360733933451973	0.00372442854169341
0.44	-1.70738689970192	1.66567920108902	585.529424174454	-3.94646124015372	19.930325285877	0.301665017804253	-0.346867388097988	-0.00309944449188515	0.00375269847747828
0.45	-1.51669011795513	1.56150834743969	587.362092476529	-3.62265522228913	19.9317295689063	0.360991812734501	-0.404250048149697	-0.0025309647738877	0.00364495995083397
0.46	-1.139874069071	1.44634492907209	589.203165739824	-3.288980269007	19.8644691885812	0.427449461876705	-0.469194522488896	-0.0019471878030255	0.00342074360328698
0.47	-0.652205056353273	1.32105489630797	590.799295240899	-2.97170497135243	19.7437217264474	0.49179346667921	-0.53197699097734	-0.00139516119576899	0.00311985972889584
0.48	-0.142647886958203	1.19043528151492	591.961105556329	-2.69256822743333	19.5940221921732	0.545113933052689	-0.583390199980177	-0.000913180798654989	0.0027943846862678
0.49	0.30013894066542	1.06065005763161	592.591683882603	-2.46391449216216	19.4442244468456	0.580340952405875	-0.616228552559927	-0.000522470860572	0.00249857259153496
0.5	0.602350932584283	0.936683400049794	592.696330501147	-2.28614566131618	19.3213289865303	0.593502462481227	-0.626493081240524	-0.000223018135334541	0.00227786756558773
0.51	0.718319183638587	0.820655893725575	592.371704370927	-2.14798377534756	19.2441526343861	0.584503888189115	-0.614116604219515	5.65970835120222e-06	0.00215877877386678
0.52	0.640010554984718	0.711295013646696	591.777056378398	-2.02927015293184	19.2182339480582	0.557259248404545	-0.583056204585573	0.000199366781495569	0.00214183531892925
0.53	0.400016399191316	0.604288094713576	591.094399503861	-1.90540805392143	19.2334513103482	0.519106819136026	-0.540686029919821	0.000401317094776088	0.00219974575496346
0.54	0.066114939041923	0.492960214799153	590.48700236094	-1.75226498899261	19.2653859002838	0.479574715174961	-0.496544920792056	0.000653550636898426	0.00228199203451723
0.55	-0.272573834016331	0.368825178148978	590.065696656314	-1.55043611518651	19.2805223973085	0.448697484162392	-0.460630606200886	0.000989588731737268	0.00232549297760892
0.56	-0.525295026240621	0.221944022965796	589.870100286939	-1.28814836698559	19.2442333621724	0.435191739601473	-0.441550364520557	0.00142955120821797	0.00226916584231945
0.57	-0.620536445899233	0.0414265635212572	589.867731570333	-0.962584578767205	19.1295718956325	0.444846349613223	-0.444897960716754	0.00197806642975606	0.0020688848343608
0.58	-0.522605902304439	-0.183436981562295	589.969423168358	-0.579838490454921	18.9245834709654	0.479452086556835	-0.472200533640793	0.00262454548468749	0.00170905471441202
0.59	-0.239512008716956	-0.461136629333005	590.055780992373	-0.153937844550522	18.6362845288711	0.536488304299978	-0.52066410069521	0.00334500477151001	0.00120795234529708
0.6	0.179621205168859	-0.795187218392136	590.007581408833	0.294645485565847	18.2904678457459	0.609623358672536	-0.583768804042076	0.00410467322335839	0.000615794755291332
0.61	0.656206127246026	-1.18133001451517	589.733169345774	0.740776298005885	17.9276703781582	0.689910424552358	-0.652572563187774	0.00486099129009143	6.46312976304575e-06
0.62	1.09905828405149	-1.60560785110445	589.187673179068	1.15674389382936	17.5965271320316	0.767415260178702	-0.717427118804475	0.00556705196768259	-0.000534786466792836
0.63	1.42180308536243	-2.04411669501192	588.38139926262	1.5148054727515	17.3460603068774	0.832933551632431	-0.769733900060631	0.00617578658234308	-0.000924879478231277
0.64	1.55707924021076	-2.46482411802258	587.37732510978	1.79026927096924	17.2182366362538	0.8794605139952	-0.803384672107488	0.00664509596465113	-0.00109549229876543
0.65	1.46579287974246	-2.83131415049278	586.279640302225	1.96494713256038	17.2416393723149	0.903158551527946	-0.815631873512821	0.00694368097392994	-0.00100329357132489
0.66	1.14162655148682	-3.10786180428477	585.216550543094	2.03046672575479	17.4266932858009	0.903702276140147	-0.807282236094347	0.00705672016266412	-0.000637253911004443
0.67	0.611975185658138	-3.26497504294825	584.321024735715	1.99067084048634	17.7627690089324	0.884023458439145	-0.782260768199027	0.00699006333536756	-2.26222265876652e-05
0.68	-0.0638053297315251	-3.28447844497672	583.712874143704	1.8622950965382	18.2176412279248	0.849591648865493	-0.746710430502598	0.00677152536808534	0.000779096627738174
0.69	-0.798997284531447	-3.16329439793932	583.484612143099	1.67337706914978	18.7399256422912	0.80742336650879	-0.707851371663934	0.00644830420166898	0.00167511171577062
0.7	-1.48799281626387	-2.91524187595718	583.692179049439	1.45936436998546	19.264957550411	0.765009619626965	-0.672818975818254	0.00608043476178455	0.00255197646475225
0.71	-2.01951989432803	-2.57039567878546	584.350224380248	1.25750587891361	19.7239356824436	0.729304533678583	-0.6476478350254	0.00573126332148488	0.0032915499324489
0.72	-2.29412933882085	-2.17184633217482	585.430709611848	1.10062682552617	20.0551557354767	0.705856131843721	-0.636496416232268	0.00545682895961275	0.00379029622498422
0.73	-2.2433686255786	-1.77009230451231	586.863505982361	1.01162658917447	20.2151783594343	0.698113880015018	-0.641143811526493	0.00529645665178291	0.0039782790709465
0.74	-1.84630139559733	-1.41575903406473	588.53845126052	0.999909911303733	20.1872901184112	0.706935545237546	-0.660756509026178	0.00526664573993407	0.00383337224007552
0.75	-1.13857540954407	-1.15178398801003	590.309602840297	1.06050099005579	19.9849571866007	0.730337615131896	-0.691924166665747	0.00535953777592879	0.00338676026049523
0.76	-0.210561277282884	-1.00649332888626	592.00348549469	1.17593658687693	19.6491494842423	0.763567020143776	-0.728984023099772	0.00554611775615899	0.00271778270161349
0.77	0.806134747729826	-0.988986369577355	593.43328064385	1.32038561916213	19.2400731218581	0.799582354860065	-0.764665128111722	0.0057831876270078	0.00193899876030734
0.78	1.76121130543349	-1.08787247208516	594.419766651916	1.46498202656095	18.8254050179657	0.829990127678484	-0.791058054900652	0.00602236902748243	0.00117503519534573
0.79	2.51214218687751	-1.27372450646243	594.817562380461	1.58319405111114	18.4680043586757	0.846379765071641	-0.800843568203632	0.00621912897938037	0.000540358376607708
0.8	2.94853480196642	-1.50479558345726	594.542560035952	1.65519179964015	18.2159743509766	0.841867647224397	-0.788613817346411	0.0063400800992448	0.000121038683563612
0.81	3.00929011672516	-1.73482498337854	593.594397121887	1.67052911241246	18.0969546365094	0.812547833026768	-0.752034147117199	0.00636742793955025	-3.60301454900847e-05
0.82	2.68979892034913	-1.9213384013244	592.067395875033	1.62889058554239	18.1170801834159	0.758508820461088	-0.692568097687591	0.00630018402032018	7.45749872084756e-05
0.83	2.03911524296847	-2.03282088413124	590.145104002573	1.53904352383704	18.2637315635967	0.684139238624861	-0.615547686706234	0.00615241458340177	0.000421740746941346
0.84	1.14914904977109	-2.05346868044494	588.07715868037	1.41640148240122	18.5104889977743	0.597597884850763	-0.52950616652948	0.00594922505115236	0.000947361565812821
0.85	0.138861264525373	-1.98477694478308	586.14166804914	1.27973717505927	18.8227357319283	0.509517804704706	-0.444860866971172	0.00572137334285516	0.00157773083637647
0.86	-0.863702905644359	-1.8438437096689	584.600236069643	1.14760900169164	19.1629285532518	0.431190879688819	-0.372187075771099	0.00549942494889843	0.00223479506090141
0.87	-1.73938077318582	-1.65885400632374	583.65484088621	1.03503084108156	19.495241015802	0.372591880145461	-0.320417724841901	0.00530829188448478	0.00284633318306199
0.88	-2.39423461107909	-1.46268467781353	583.415349643797	0.950847737282551	19.7896828292925	0.340628592480631	-0.295318792125944	0.00516288915487029	0.0033547887594168
0.89	-2.77268719670887	-1.28589300614484	583.883749150841	0.896185446745085	20.0257299022354	0.337951518355305	-0.298530842076317	0.00506550249653848	0.00372446782451596
0.9	-2.86556946475835	-1.15047009768673	584.95719146224	0.864209931377183	20.1950935387764	0.362541320510985	-0.327351633792662	0.00500526710091032	0.00394630360768772
0.91	-2.71111047946367	-1.06560713067984	586.448001401139	0.841257493227744	20.3028601163862	0.408138860205103	-0.375287962212487	0.00495988936385994	0.00403891062053596
0.92	-2.38759384733771	-1.0263299554404	588.115931296828	0.809187614799372	20.3662000711252	0.46541852802077	-0.433254206342134	0.00489941171632802	0.00404475690303285
0.93	-1.99806404105103	-1.01525972500993	589.706625858845	0.748597920041793	20.4103343805001	0.523661429865357	-0.491169922422572	0.00479146832833632	0.004021213137619
0.94	-1.64967610941644	-1.00707233217645	590.990277348468	0.642365496128337	20.4623169025456	0.572592788746822	-0.539637943130233	0.00460717528090482	0.00402775209718054
0.95	-1.4321695685919	-0.974612068584396	591.795232678881	0.47888418082574	20.544064854972	0.604031876278544	-0.571387442907042	0.00432661722385808	0.00411205041522822
0.96	-1.40060630855468	-0.895217944404141	592.032309621356	0.254386578932557	20.6665234686389	0.613068069072213	-0.582243632508861	0.0039428947179555	0.00429848698975172
0.97	-1.56649163033739	-0.755758743923624	591.706566957296	-0.0261149335574769	20.8266300079845	0.59860343133492	-0.571513547352755	0.00346391102375498	0.00458211277121273
0.98	-1.89897331367029	-0.555188060869289	590.914415640424	-0.349478916699832	21.0078943267728	0.563250699134675	-0.541814424665976	0.00291148438691657	0.0049296557352308
0.99	-2.33489010241101	-0.304069215245618	589.825603592387	-0.696571699007557	21.1842690990551	0.512700569996923	-0.498474072547524	0.00231789819847084	0.00528706852634098
1	-2.79413061051972	-0.0213254728604453	588.651962018584	-1.04547861926935	21.3260025065261	0.45474111734607	-0.448674034705666	0.00172053060508681	0.00559129950290621
1.01	-3.19587310526124	0.270784917306458	587.607649934275	-1.37515747961819	21.4057250490462	0.398116969449921	-0.400486031840079	0.00115560820055838	0.00578302810715642
1.02	-3.47196447833945	0.552017249753468	586.868257919418	-1.66882333707116	21.4032464664335	0.351374653966214	-0.361896061564107	0.000652302218551948	0.00581731515152317
1.03	-3.57546073857739	0.808348448749591	586.537506166319	-1.91643515537431	21.3082634852026	0.321787118392934	-0.339857730700639	0.000228286091815244	0.00567026184265451
1.04	-3.48431806983988	1.03401126528583	586.629487927637	-2.11587057658808	21.1210405845162	0.314417486636535	-0.339399735714067	-0.000112470000416587	0.00534128503833675
1.05	-3.20157015259108	1.23104670780826	587.071170252306	-2.27266453288238	20.8517377996852	0.331384470164794	-0.362841794793153	-0.00037938536871307	0.00485185921152337
1.06	-2.75362754930232	1.4068404126448	587.724793653395	-2.39847564262661	20.5191868403168	0.371419107246091	-0.409229764101024	-0.000592670260351369	0.00424210697309574
1.07	-2.18768610816313	1.5706726427548	588.424377238212	-2.50866569013244	20.1495721223099	0.429824570127747	-0.474144728656052	-0.00077909596106418	0.0035663687490648
1.08	-1.56814790912504	1.73048828599024	589.016547571982	-2.61949308539364	19.7748986761289	0.498934340217501	-0.550032237659663	-0.000967026412068361	0.00288814793779057
1.09	-0.971110248342043	1.89084619158208	589.394808839895	-2.74542434621843	19.4306762117019	0.569091812978353	-0.627116872502373	-0.00118163657990111	0.0022741220774754
1.1	-0.47589673339767	2.05245365257459	589.518621044796	-2.89697813117033	19.152212343924	0.63005719020356	-0.694827850447736	-0.0014410920364194	0.00178670829460176
1.11	-0.153459717143715	2.21305967278693	589.413518037126	-3.07936887173685	18.9693805536271	0.672622442571081	-0.743508010145751	-0.00175418965627683	0.00147517709909112
1.12	-0.0529998787557736	2.36902106106358	589.154306125509	-3.29204964512944	18.9005417564956	0.690130118060198	-0.766068847930892	-0.00211963594678	0.00136633951458948
1.13	-0.189689871246215	2.51674091698596	588.838149652497	-3.5290999685246	18.9470831835381	0.679584125318974	-0.759233963993661	-0.00252683981553137	0.00145688082226875
1.14	-0.537193242588461	2.65342908157322	588.556512026392	-3.7802885728878	19.0903848018145	0.642120072372472	-0.724096204089627	-0.00295787761960153	0.00170987564122749
1.15	-1.02817533642252	2.7771044852334	588.373927616434	-4.03257893060363	19.2926771992625	0.582747063069786	-0.665875969281351	-0.00339018315433781	0.00205749252576132
1.16	-1.56413474995266	2.88620644201496	588.318083760072	-4.27183953546209	19.5022559640857	0.509437125570791	-0.592957604862481	-0.00379952635983105	0.00241041039275924
1.17	-2.03316651432203	2.97937683210926	588.381261297867	-4.48455976169484	19.6622085849155	0.431773033943755	-0.515438076759747	-0.00416293994375627	0.00267251272878377
