Time [s]	GRFml [N]	GRFap [N]	GRFv [N]	Mml [N.m]	Map [N.m]	Mv [N.m]	Mfree [N.m]	COPml [m]	COPap [m]
0.01	11.8998912227709	1.57698881923574	697.099035848546	-36.887867019716	-1.84066419733136	-0.146730264598943	0.487083577724312	8.07320677337327e-05	-0.00643297196014547
0.02	11.2285424157402	1.74052820780798	697.036292314098	-36.9881826582451	-1.74641394501338	-0.30495265052119	0.295244931971617	0.000215281086531939	-0.00628188262510802
0.03	10.5699191539677	1.90265528125876	696.975846919195	-37.0895178964738	-1.65401852946424	-0.460458603344437	0.106562402035526	0.000347137825773873	-0.00612990607700426
0.04	9.93582982398834	2.06089621898236	696.920146995024	-37.1918195096121	-1.5653606472015	-0.610433543011013	-0.0755162010932893	0.000473612352521475	-0.00597734310194364
0.05	9.33727162759849	2.212812638161	696.871630267259	-37.2949818113266	-1.48221237571002	-0.752235441311387	-0.247748829999507	0.000592174907172666	-0.00582454677176574
0.06	8.78401269598849	2.35606610387115	696.832620530868	-37.3988060129486	-1.4061664544769	-0.883491680835893	-0.40722000720304	0.000700554154974262	-0.00567197423505453
0.07	8.28423226235314	2.48848178712904	696.805224139443	-37.5029698997384	-1.33857705486456	-1.00218237670737	-0.551445380335016	0.000796821739019749	-0.00552022523625979
0.08	7.84423639635721	2.60810960419954	696.791231881385	-37.6070109494776	-1.2805128699334	-1.1067063082377	-0.678455151965361	0.000879459046037577	-0.00537006283402939
0.09	7.46826248939042	2.71328101227191	696.792030631868	-37.7103245346293	-1.23272449369572	-1.19592671723649	-0.786852825650856	0.000947403351483906	-0.00522241382204241
0.1	7.15838065338605	2.80265954553867	696.808528791301	-37.8121773310035	-1.19562712643543	-1.26919546209093	-0.875847173802719	0.00100007187733086	-0.00507834848104816
0.11	6.91449478243279	2.87528317563389	696.841098966982	-37.9117346501298	-1.16929871029409	-1.32635528263267	-0.945256850967849	0.00103736366463361	-0.00493904130004175
0.12	6.73444057159693	2.9305966824516	696.889540656355	-38.0080992316511	-1.15349273071088	-1.36772114361024	-0.995488557944276	0.00105964043450592	-0.00480571603121516
0.13	6.61417263126528	2.96847242704589	696.953064887499	-38.1003581523693	-1.14766416627734	-1.39404270691221	-1.02749102511752	0.00106768870442415	-0.00467957976722985
0.14	6.54802828659199	2.98921822214328	697.03030190839	-38.1876339713824	-1.15100647003816	-1.40645087167717	-1.0426882549122	0.00106266628341077	-0.00456175157676685
0.15	6.52905196701281	2.99357138757661	697.119332132324	-38.2691360449664	-1.16249704235019	-1.40639197248484	-1.04289638342222	0.00104603685620094	-0.00445319157639069
0.16	6.5493614600453	2.98267854423353	697.217739678125	-38.3442080913363	-1.18094841766586	-1.39555361462747	-1.0302291457905	0.00101949667418154	-0.00435463616569851
0.17	6.60053584064631	2.95806122494878	697.322687016763	-38.4123685224136	-1.20506233033226	-1.37578624820473	-1.00699723287499	0.000984897412833194	-0.00426654455605823
0.18	6.67400462754726	2.9215679458019	697.431008467832	-38.4733407289291	-1.23348393177947	-1.3490244547836	-0.975606803133092	0.00094416906220338	-0.0041890607567728
0.19	6.76141862072342	2.8753139654711	697.539319588648	-38.5270713380975	-1.26485367876193	-1.31721157324673	-0.938462080544397	0.000899246331241939	-0.00412199394225492
0.2	6.85498483074113	2.82161053959175	697.644138869176	-38.5737353869988	-1.29785476924175	-1.28223076930967	-0.897876365348183	0.000852001517734575	-0.00406481871752116
0.21	6.94775075549292	2.76288602438539	697.742017590461	-38.6137282982479	-1.33125443567464	-1.24584500804032	-0.855994966706349	0.0008041861735054	-0.00401669533819435
0.22	7.03382678393047	2.70160166955097	697.829673229455	-38.6476454418038	-1.36393788107864	-1.20964767574063	-0.814732606175805	0.000757383227162637	-0.00397650853214724
0.23	7.10853947290001	2.6401653335875	697.904121413222	-38.6762508613913	-1.39493412935181	-1.17502487047967	-0.77572681619774	0.000712970555914743	-0.00394292230888197
0.24	7.16851260236493	2.58084662485305	697.96280116441	-38.7004373910987	-1.42343352945464	-1.14312968761554	-0.740307846249142	0.000672096358634375	-0.00391444710935629
0.25	7.21167701846744	2.52569709102206	698.003688070404	-38.7211808554043	-1.448797079697	-1.11486820734253	-0.709484660460454	0.000635666101453494	-0.0038895149026424
0.26	7.23721409101569	2.47647902578328	698.025390089804	-38.7394913157886	-1.47055810543219	-1.09089637442025	-0.683945819861349	0.000604340304456785	-0.00386655741335405
0.27	7.24544093788663	2.4346062201916	698.027221021638	-38.75636439407	-1.48841711877226	-1.07162656293937	-0.664073427247945	0.000578542026687432	-0.00384408257864123
0.28	7.23764823739429	2.40109955299374	698.009247238817	-38.7727355738615	-1.50223090607193	-1.05724234709495	-0.649967890506159	0.000558472594237655	-0.00382074457645613
0.29	7.21590334083025	2.37655969771961	697.972304147814	-38.7894400753277	-1.51199702682942	-1.0477198482968	-0.641481029894083	0.000544133905386436	-0.00379540330779436
0.3	7.1828324423956	2.36115844600602	697.917979981456	-38.807180442212	-1.51783496996336	-1.04285398734797	-0.638254999514704	0.00053535553607123	-0.00376717000720601
0.31	7.14139574730515	2.35464924162206	697.848565935097	-38.8265034087315	-1.51996520758692	-1.04228802003256	-0.639764585170619	0.000531824853180535	-0.00373543663694916
0.32	7.09466893787158	2.35639653547171	697.766973264993	-38.8477869673251	-1.51868732258765	-1.0455448542584	-0.645360646125937	0.000533118413588322	-0.0036998878204756
0.33	7.04564285648458	2.36542256587057	697.676619700325	-38.8712378792218	-1.51435827630649	-1.05205881498279	-0.654312751830933	0.000538733071874966	-0.00366049521576382
0.34	6.99705132849834	2.38046920435586	697.581289273645	-38.896899201741	-1.5073717386772	-1.0612067186141	-0.665849393662211	0.000548115425127746	-0.00361749534371746
0.35	6.95123459270707	2.40007165062034	697.484971329277	-38.9246667908117	-1.49813923718695	-1.07233732305146	-0.679194498386886	0.00056068847304737	-0.0035713529011977
0.36	6.91004306754895	2.4226400727489	697.391685901325	-38.9543132121161	-1.48707370363635	-1.08479841817897	-0.693599312633796	0.000575874648729407	-0.00352271244027105
0.37	6.87478334072266	2.44654482373394	697.305303744274	-38.9855170912067	-1.47457581796431	-1.09796100381602	-0.708369050497221	0.000593114662845888	-0.00347234193448166
0.38	6.84620550843744	2.47020066130631	697.22936994992	-39.0178956756819	-1.46102337358738	-1.1112401615357	-0.722883989196695	0.000611881885516614	-0.00342107214314875
0.39	6.82452847390923	2.49214547662567	697.166940222879	-39.0510382853027	-1.44676372425799	-1.12411236123776	-0.736614954368622	0.00063169225205015	-0.00336973580577481
0.4	6.80949768538915	2.51110939913604	697.120438478558	-39.0845383924093	-1.43210922238449	-1.1361290543026	-0.749133354022724	0.000652109910004907	-0.00331911054797702
0.41	6.8004681633074	2.52607076957503	697.091543478893	-39.1180222975323	-1.41733542606319	-1.14692649665215	-0.760116097509783	0.000672749018089449	-0.00326986897305351
0.42	6.79650460874252	2.53629632030492	697.081110781228	-39.1511727249639	-1.4026817391641	-1.15623182277397	-0.769345873521942	0.000693272258076801	-0.00322253878165833
0.43	6.79648993626852	2.541363914056	697.089134432279	-39.1837461314465	-1.38835405789559	-1.16386546179707	-0.77670736079104	0.000713386727901645	-0.00317747495373397
0.44	6.79923372769013	2.54116729800066	697.114750710868	-39.2155830610082	-1.37452893052122	-1.16974005436607	-0.782180009324465	0.0007328379484826	-0.00313484510185572
0.45	6.80357281501955	2.53590345129825	697.156283949548	-39.246611447792	-1.36135869637892	-1.17385609801877	-0.785828062164226	0.000751402741095778	-0.00309462813176074
0.46	6.80845739268032	2.52604416085804	697.211332193623	-39.2768433217207	-1.34897705774305	-1.17629462047843	-0.787788491997616	0.000768881719607232	-0.00305662539567779
0.47	6.81301762375701	2.51229437700239	697.276888329115	-39.3063658656521	-1.33750455425933	-1.17720725379651	-0.788257508298212	0.00078509209603337	-0.00302048266672741
0.48	6.81660751665851	2.49554061403198	697.349490455852	-39.3353281688501	-1.32705345435793	-1.17680415457084	-0.787476254127282	0.000799861422146777	-0.00298572056036241
0.49	6.8188247696902	2.47679312284264	697.425393800439	-39.3639252898171	-1.31773164937603	-1.17534028192539	-0.785716262272719	0.000813022787488314	-0.00295177053163154
0.5	6.81950717368678	2.45712574641779	697.500755428933	-39.3923813621049	-1.30964523062504	-1.1731006002116	-0.78326518254709	0.000824411868641341	-0.00291801331890006
0.51	6.81870789753766	2.43761726924962	697.571822471002	-39.4209334423241	-1.30289954228916	-1.17038481215994	-0.780413229486667	0.000833866079949479	-0.00288381670060072
0.52	6.81665344562742	2.41929770600077	697.635114514939	-39.4498176158703	-1.29759862752486	-1.16749224590647	-0.777440735049896	0.000841225916953752	-0.0028485696764366
0.53	6.8136891811968	2.40310238109401	697.687591256632	-39.4792585612192	-1.29384311422927	-1.16470751265286	-0.774607125838274	0.000846338416958543	-0.00281171065310047
0.54	6.81021799528447	2.38983588453617	697.726797341669	-39.509463357517	-1.29172671296381	-1.16228751899529	-0.772141579631699	0.000849062494142647	-0.00277274786386341
0.55	6.80663793832245	2.38014711732288	697.750977565971	-39.5406198408623	-1.29133161468057	-1.16045035919754	-0.770235551868961	0.000849275748911589	-0.00273127102364411
0.56	6.80328442340035	2.37451573556472	697.759157121654	-39.5728993158531	-1.29272317270235	-1.159366529563	-0.769037299126795	0.000846882213408818	-0.00268695404904522
0.57	6.80038198960554	2.37324943923946	697.751183308189	-39.606462955995	-1.2959443249789	-1.15915280273274	-0.768648463742177	0.00084182038854165	-0.00263954948513153
0.58	6.79800964045433	2.37649079628221	697.727726988575	-39.6414708223175	-1.3010102531381	-1.15986897856688	-0.769122721794009	0.000834070863368131	-0.00258887600864737
0.59	6.79608252805911	2.38423170122577	697.690243970936	-39.6780921305692	-1.3079037799325	-1.16151759554329	-0.770466436275155	0.000823662794297431	-0.00253480096071607
0.6	6.79435133620982	2.39633317993879	697.640898356435	-39.7165152304977	-1.31657197405275	-1.16404654826848	-0.772641199194143	0.00081067856509707	-0.0024772202545003
0.61	6.79241923215892	2.41254809013566	697.582451639288	-39.7569557407367	-1.32692436118482	-1.16735441908452	-0.775568091395901	0.000795256050447879	-0.00241603817633926
0.62	6.78977481683414	2.43254433386394	697.518122906484	-39.7996614111811	-1.3388330357796	-1.17129820140412	-0.779133437980879	0.00077758806157454	-0.00235114954397617
0.63	6.785838210506	2.4559264766807	697.451426804465	-39.8449125497248	-1.35213483543979	-1.17570297580408	-0.783195791300992	0.00075791875248706	-0.00228242641413968
0.64	6.78001635751123	2.48225412487633	697.385996967637	-39.8930172283671	-1.36663558805196	-1.18037300324359	-0.787593833747048	0.000736536994677902	-0.00220971107358887
0.65	6.77176289305434	2.51105599852702	697.325403299153	-39.9443009421327	-1.38211628195775	-1.18510362861336	-0.792154860312563	0.000713766968006938	-0.00213281644698692
0.66	6.76063753760922	2.54183929540501	697.272971827507	-39.9990908940368	-1.39834085406333	-1.18969334675015	-0.796703477964356	0.000689956445344056	-0.00205153436572681
0.67	6.74635999346594	2.57409460417654	697.231615813983	-40.0576955789214	-1.41506515259232	-1.19395537530601	-0.801070147235072	0.00066546344797383	-0.00196565142277393
0.68	6.72885370865391	2.60729722998773	697.203686347874	-40.120380797821	-1.43204652204968	-1.19772810600614	-0.805099193399879	0.000640642099932566	-0.00187497144777317
0.69	6.70827561327237	2.64090628217787	697.190849843921	-40.1873436161825	-1.44905338771887	-1.2008838675096	-0.808655932176001	0.000615828598836318	-0.00177934302688123
0.7	6.68502896467274	2.6743631942992	697.193998669487	-40.2586860540891	-1.4658741925399	-1.20333552690424	-0.811632589563006	0.000591328240534743	-0.00167869000688519
0.71	6.65975768313625	2.70709146858153	697.213199613661	-40.3343904436004	-1.48232506377347	-1.20504057838419	-0.813952747624704	0.000567404383483696	-0.00157304259557849
0.72	6.63332192655085	2.7384993474118	697.247683121132	-40.4142983960483	-1.49825565979259	-1.20600251054854	-0.815574116613912	0.000544270120498456	-0.00146256651981331
0.73	6.60675604156996	2.76798682097888	697.295874222992	-40.4980951892972	-1.51355276415255	-1.2062694000904	-0.816489516052669	0.000522083250096181	-0.00134758773597013
0.74	6.58121134000912	2.79495791071424	697.355463995511	-40.5853011199154	-1.52814134682274	-1.20592984030546	-0.816726038716263	0.000500944920328014	-0.00122861039944711
0.75	6.55788728960543	2.81883856762206	697.423518272598	-40.675270984991	-1.54198299039432	-1.20510646809546	-0.816342466115365	0.00048090207046805	-0.00110632617398099
0.76	6.53795559743643	2.83909985092064	697.496618344699	-40.7672023874181	-1.5550717695445	-1.2039474932656	-0.81542509551964	0.00046195353664096	-0.000981613472824883
0.77	6.52248224021817	2.85528537054589	697.571026616614	-40.8601530269976	-1.56742786136688	-1.20261674995838	-0.814082220425908	0.000444059432644858	-0.000855525839405562
0.78	6.51235271869311	2.86704135270352	697.6428687837	-40.9530665814163	-1.57908933859878	-1.20128287453711	-0.812437573183966	0.000427153182132379	-0.00072926935711283
0.79	6.50820566870029	2.87414718117395	697.708323119875	-41.0448062314259	-1.59010274430952	-1.20010826171208	-0.810623086373869	0.000411155376985369	-0.000604169685025052
0.8	6.51037946056473	2.87654392819504	697.763807026708	-41.1341943780006	-1.6005131538898	-1.1992384582831	-0.808771356524358	0.000395988481859657	-0.00048163000599788
0.81	6.51887559748764	2.87435825244358	697.806151113218	-41.220056667821	-1.61035448920542	-1.19879262136424	-0.807008199822228	0.00038159130773584	-0.000363081803700378
0.82	6.53334164138488	2.86791912552404	697.832751765405	-41.3012681143555	-1.61964085460913	-1.19885559787349	-0.805445676095216	0.000367932147330434	-0.00024993091674521
0.83	6.55307512790914	2.85776515168466	697.841694387754	-41.3767988961426	-1.6283596128172	-1.19947207939046	-0.804175927065623	0.000355019509308506	-0.000143501716746292
0.84	6.57704857044208	2.84464074959733	697.831841182487	-41.445757345386	-1.6364668121066	-1.20064315825289	-0.803266130562338	0.000342909509737781	-4.49824954684083e-05
0.85	6.60395429074429	2.82948013542244	697.802879369521	-41.5074277145343	-1.64388542060027	-1.20232546553132	-0.802754816807214	0.000331709176724495	4.46247947526179e-05
0.86	6.63226654556193	2.81337883566925	697.755328009422	-41.5613005239695	-1.65050662815661	-1.20443291872093	-0.802649728387399	0.000321575190431625	0.000124547432495986
0.87	6.66031732945144	2.79755331026372	697.690503926546	-41.6070936403977	-1.65619425442419	-1.20684095623045	-0.802927333960866	0.000312707901969339	0.000194274751777759
0.88	6.68638139553303	2.78329011985207	697.610449490207	-41.6447626960246	-1.66079206827644	-1.20939299614888	-0.803534028765311	0.000305340830753193	0.000253578690375657
0.89	6.70876549944449	2.77188686557617	697.517827055607	-41.6745000099408	-1.66413359580658	-1.21190873634832	-0.804388974435284	0.000299726205026396	0.000302520492343097
0.9	6.72589666627714	2.76458780713374	697.415786569053	-41.696721787043	-1.66605378826569	-1.21419381816002	-0.805388448908538	0.0002961174546893	0.000341442751248769
0.91	6.7364044105127	2.76251757623163	697.307814105466	-41.7120440141326	-1.66640175369145	-1.21605031112972	-0.806411497653864	0.000294749858518596	0.000370946811886007
0.92	6.73919228639176	2.76661670855789	697.197569864567	-41.7212481129093	-1.66505364025634	-1.21728744409311	-0.807326604357888	0.000295820760409628	0.000391856407232855
0.93	6.73349487139633	2.7775827922404	697.088724375212	-41.72523800978	-1.66192470607596	-1.21773200826412	-0.80799903752054	0.000299470877885988	0.000405169244012016
0.94	6.71891723245428	2.79582086339189	696.984801351068	-41.7249908077446	-1.65697962576279	-1.21723788948227	-0.808298484202395	0.000305768215583199	0.000411999013786656
0.95	6.69545502492504	2.82140627459686	696.889034845952	-41.7215036635612	-1.65024017002473	-1.21569424582587	-0.808106557913036	0.000314695962068887	0.000413510949256561
0.96	6.6634945535058	2.85406264092474	696.804247144909	-41.7157397556979	-1.64178954762794	-1.2130319287866	-0.807323767459265	0.000326145497110642	0.000410854524728346
0.97	6.62379330539238	2.89315666624345	696.732752294429	-41.7085763532633	-1.63177291048446	-1.20922784559394	-0.805875558691562	0.000339915286424837	0.000405097180818326
0.98	6.57744257593532	2.93771071940207	696.67628843734	-41.700757949238	-1.62039377913526	-1.2043070711394	-0.803717090475832	0.000355716019574239	0.000397163011415742
0.99	6.5258147794713	2.98643302442444	696.635980300317	-41.6928571985586	-1.6079064300931	-1.1983426343049	-0.800836476670267	0.000373181888220594	0.000387780172671374
1	6.47049881747124	3.03776431632411	696.612331411116	-41.6852460092887	-1.5946045780691	-1.19145301961179	-0.797256312387712	0.00039188744374773	0.000377440359422512
1.01	6.41322742055809	3.08993886079544	696.605244016414	-41.6780785906174	-1.58080696321837	-1.18379753565352	-0.793033399159931	0.00041136905226062	0.000366373058447729
1.02	6.35580066380001	3.14105690428096	696.614063329403	-41.6712875928324	-1.56684069458126	-1.17556980193543	-0.788256683118501	0.000431149614239592	0.000354536459338896
1.03	6.30000986647741	3.18916496451859	696.637641733543	-41.6645937191547	-1.55302338624563	-1.1669896912561	-0.78304351655417	0.000450764962297655	0.00034162592584628
1.04	6.24756583640794	3.23233993162117	696.67441794813	-41.6575283921619	-1.5396452365697	-1.15829413200111	-0.777534440655386	0.000469790211824311	0.000327099859214357
1.05	6.20003493035239	3.26877275125904	696.722505931844	-41.6494682677536	-1.52695223255943	-1.1497272208239	-0.771886761551814	0.000487864324799274	0.000310221686161953
1.06	6.15878571722625	3.29684751249257	696.779788438176	-41.6396796577188	-1.51513160711179	-1.14153011926195	-0.766267250101982	0.000504711256304145	0.000290115649700988
1.07	6.12494820392973	3.3152120537698	696.844010587999	-41.6273702961373	-1.50430053923815	-1.13393120713407	-0.760844336597056	0.000520156276945256	0.000265833143964424
1.08	6.09938667760187	3.32283670620878	696.912869513408	-41.6117454073947	-1.49449887639724	-1.12713694163758	-0.755780194197592	0.000534136385334205	0.000236425583115152
1.09	6.08268630004926	3.31905847499023	696.984096963428	-41.5920647377917	-1.48568638965554	-1.12132382578348	-0.751223109659787	0.000546704119238509	0.000201019287388138
1.1	6.07515272580797	3.30360876935975	697.055532652951	-41.5676971202599	-1.47774476728572	-1.11663182624791	-0.747300527253721	0.000558024513407977	0.000158887648866297
1.11	6.07682326422997	3.27662367569243	697.125186994789	-41.5381692609117	-1.47048423427093	-1.11315950291025	-0.744113122330504	0.000568365404801959	0.000109515928323062
1.12	6.08748751678062	3.23863667120387	697.191292609786	-41.5032057613571	-1.4636543784863	-1.11096102495206	-0.74173021541388	0.000578081719529222	5.2654432563283e-05
1.13	6.10671502781462	3.19055454555587	697.25234461231	-41.4627579025176	-1.45695849220372	-1.11004515634332	-0.740186776858171	0.000587594759260176	-1.16434936362139e-05
1.14	6.13388730861154	3.1336180869725	697.307130093345	-41.4170193823062	-1.45007051976911	-1.11037620172126	-0.739482197460444	0.000597367811036856	-8.30012998530097e-05
1.15	6.16823163162452	3.06934976012948	697.354747470502	-41.3664279791286	-1.44265355356899	-1.11187681660757	-0.739580914266292	0.000607879612254874	-0.00016071841819993
1.16	6.20885422967703	2.99949112669731	697.394616463591	-41.3116529566189	-1.4343787493265	-1.11443250756255	-0.740414886618679	0.00061959729909115	-0.000243789126409301
1.17	6.25477094365272	2.92593311859526	697.42647942117	-41.2535688793813	-1.42494354029642	-1.11789758142076	-0.741887819859902	0.000632950447966859	-0.000330940168959293
