Time [s]	GRFml [N]	GRFap [N]	GRFv [N]	Mml [N.m]	Map [N.m]	Mv [N.m]	Mfree [N.m]	COPml [m]	COPap [m]
0.01	16.5723890181298	-6.63579949155581	729.297337925228	-40.6934904044741	6.10294357955616	0.819569790708627	1.79978985349022	-0.00115411745225414	-0.00910690461322543
0.02	15.7505773854676	-6.58793770982913	728.790935407743	-40.5792586115846	6.09611990152532	1.03506083355594	1.96714224465514	-0.00115892390207891	-0.00922732691406518
0.03	14.9435830248307	-6.54024302762137	728.292973765359	-40.4671753045242	6.08955980268157	1.24627245445269	2.13127404364982	-0.00116332026681346	-0.00934526803512056
0.04	14.1659388180798	-6.49327969919556	727.81176782935	-40.3593225553349	6.08340577185309	1.44919725391168	2.28900906317024	-0.00116721763768207	-0.00945852125606941
0.05	13.431209351469	-6.4476481895135	727.355182444248	-40.257654578293	6.07778517395801	1.64010469248669	2.43737980278387	-0.00117055044529631	-0.00956503044590087
0.06	12.7514826582014	-6.40397707780829	726.930362445945	-40.1639252290175	6.07280406486207	1.815686779079	2.5737466166578	-0.00117328007950474	-0.00966296660750287
0.07	12.1369360146723	-6.3629092435039	726.543488194005	-40.0796252495089	6.06854193132018	1.97318217540415	2.6959003574958	-0.00117539711854304	-0.0097507924893318
0.08	11.5954964962747	-6.32508223499992	726.19956751969	-40.0059323235554	6.0650477091422	2.11047256222774	2.80214305715391	-0.00117692207233677	-0.00982731222449246
0.09	11.1326110500735	-6.29110346963305	725.902273881987	-39.9436762807965	6.06233738810186	2.22614689444954	2.8913426327279	-0.00117790458825734	-0.00989170386505788
0.1	10.7511342027575	-6.26152161006434	725.65383876868	-39.8933209277034	6.06039344365474	2.31953116016335	2.96295927379945	-0.00117842109905378	-0.00994353367187978
0.11	10.4513346631301	-6.23679603224752	725.455003961703	-39.8549630431627	6.05916624402074	2.39068331095432	3.01704294216297	-0.00117857092169942	-0.00998275203895593
0.12	10.2310154568616	-6.21726668728207	725.305036320244	-39.8283481154947	6.05857746954998	2.44035500945084	3.05420316562314	-0.00117847085405164	-0.0100096719206768
0.13	10.0857362603664	-6.20312683009682	725.20180441146	-39.8129014789351	6.05852545467957	2.46992362214217	3.07555390585208	-0.00117824837355791	-0.0100249315380312
0.14	10.0091216225086	-6.19440103041877	725.141912880282	-39.8077726903764	6.05889222845165	2.48129936877637	3.08263761882688	-0.00117803362414826	-0.0100294439192676
0.15	9.9932350295964	-6.19093060509516	725.120887166449	-39.8118903235728	6.05955189653188	2.47681364905277	3.07733362416182	-0.00117795048258614	-0.0100243364411116
0.16	10.0289964328679	-6.19236814314058	725.133398316355	-39.8240238886199	6.06037988623746	2.45909525729188	3.06175650831066	-0.0011781071152427	-0.0100108839462604
0.17	10.1066199679969	-6.19818217824654	725.173515437112	-39.842849335201	6.0612624771056	2.43094145114684	3.0381504919139	-0.00117858655553814	-0.00999043920016764
0.18	10.2160491053296	-6.20767235078934	725.234971983186	-39.8670145780445	6.06210597352508	2.39519067501651	3.00878551154497	-0.00117943793223366	-0.0099643644072044
0.19	10.3473682439704	-6.21999465129644	725.311431660588	-39.8952016841762	6.06284485206756	2.35460319217905	2.97586024619658	-0.00118066903970935	-0.00993396724087286
0.2	10.4911725990755	-6.23419560968082	725.396740303219	-39.9261827594482	6.0634482410721	2.31175501247058	2.94141652491624	-0.00118224094638963	-0.00990044437897564
0.21	10.6388818760834	-6.24925364573921	725.485151556477	-39.9588671281075	6.06392416690182	2.26894939080669	2.90726856241659	-0.00118406527538566	-0.0098648349120164
0.22	10.782987394881	-6.26412527542757	725.571516450279	-39.9923380651737	6.06432112886664	2.22814890160701	2.8749493672196	-0.00118600465888195	-0.00982798526339271
0.23	10.9172267292697	-6.27779351243138	725.65142974849	-40.0258780628013	6.06472673700452	2.19092975398439	2.84567553249207	-0.00118787667022503	-0.00979052648232651
0.24	11.0366842815028	-6.28931564021195	725.721329074034	-40.0589823335799	6.06526335285706	2.15845868828373	2.82033052575345	-0.00118946128885579	-0.00975286400552945
0.25	11.1378202648398	-6.29786756550036	725.778545962989	-40.0913609251014	6.06608089803881	2.13149156385188	2.79946560076782	-0.00119051167379926	-0.00971517928703192
0.26	11.218434106968	-6.30278219375776	725.821310943727	-40.1229303988003	6.06734722080202	2.11039167579284	2.7833166097671	-0.00119076773653004	-0.00967744211266275
0.27	11.2775711527127	-6.30357966883703	725.848717252946	-40.1537964814894	6.06923661764473	2.09516497406894	2.77183432843086	-0.00118997174055905	-0.00963943197703887
0.28	11.3153836310196	-6.29998785809545	725.860649730961	-40.1842294131283	6.0719172765716	2.08550873310401	2.76472543702146	-0.00118788493881276	-0.00960076662062411
0.29	11.3329581118272	-6.2919520955638	725.857686694804	-40.2146338859965	6.07553852466534	2.08086984734681	2.76150103266258	-0.00118430411283352	-0.00956093569988388
0.3	11.3321221214661	-6.27963386863411	725.840983153321	-40.2455155080655	6.0802188131549	2.08050880413152	2.76152947221612	-0.00117907681615726	-0.0095193375778272
0.31	11.315242268271	-6.2633987961611	725.81214365444	-40.277445646666	6.08603535171082	2.08356549050689	2.76409044514225	-0.00117211415661467	-0.00947531734766631
0.32	11.2850252515859	-6.24379484973719	725.773092446392	-40.311026344043	6.09301621008845	2.08912329415596	2.76842742618367	-0.00116340007920263	-0.00942820440542732
0.33	11.2443316159709	-6.22152227518364	725.725947632441	-40.34685677359	6.10113554567719	2.09626842010214	2.77379602851013	-0.00115299632473963	-0.00937734813369697
0.34	11.1960102156853	-6.19739704945774	725.672904757306	-40.3855024531469	6.1103124019917	2.10414191977168	2.7795062359423	-0.00114104252433441	-0.00932215051753157
0.35	11.1427592272145	-6.17230994406175	725.616133930737	-40.4274681742946	6.12041327226486	2.11198257123499	2.78495700417681	-0.00112775122415626	-0.00926209476128552
0.36	11.0870173410799	-6.14718335822773	725.55769329311	-40.4731753621163	6.13125835368175	2.11915941537637	2.78966225303995	-0.00111339799325001	-0.00919676919738066
0.37	11.0308866171768	-6.12292804465914	725.499460446973	-40.5229443587274	6.14263115220081	2.12519340351311	2.79326779529647	-0.00109830712138314	-0.00912588597018076
0.38	10.976086519408	-6.10040169823974	725.443082464158	-40.5769819285975	6.15429085541993	2.12976821545305	2.79555923745106	-0.001082833736816	-0.0090492941441183
0.39	10.9239369497487	-6.08037114089316	725.389944239874	-40.635374110528	6.16598668927696	2.13273083861087	2.79646132453991	-0.00106734344089939	-0.00896698703523899
0.4	10.8753667460198	-6.06347954299439	725.341154283199	-40.6980843821362	6.17747332756628	2.13408294178472	2.79602956984453	-0.00105219074774115	-0.00887910371256533
0.41	10.8309431304729	-6.0502198013041	725.297546471833	-40.7649569485661	6.18852634080471	2.13396442189651	2.79443530279032	-0.0010376977192658	-0.00878592477272636
0.42	10.7909170096083	-6.04091486888969	725.259695819375	-40.8357248102183	6.1989566574486	2.13263074499758	2.79194547980239	-0.00102413419228049	-0.00868786266679245
0.43	10.7552788166991	-6.0357055212656	725.227945877723	-40.9100221010918	6.20862306551847	2.13042584573324	2.78889873339095	-0.00101170090532199	-0.0085854470542762
0.44	10.7238197234401	-6.03454575545653	725.202445016325	-40.9874000222282	6.21744190149541	2.12775239766055	2.78567918726836	-0.00100051665651912	-0.00847930586994927
0.45	10.6961934755486	-6.03720575875276	725.183188497365	-41.0673455325607	6.22539324725441	2.12504122849622	2.78268954537587	-0.000990610372705697	-0.00837014300071307
0.46	10.6719747669479	-6.04328215027055	725.170063035748	-41.1493018165649	6.23252317310136	2.12272153962587	2.78032487768954	-0.000981918662304494	-0.00825871366214038
0.47	10.6507108898259	-6.05221498648199	725.162890442488	-41.2326894424931	6.23894181184252	2.12119340946254	2.77894838433126	-0.000974289080831739	-0.00814579871384869
0.48	10.631964313383	-6.06331082610733	725.161467049607	-41.3169270751945	6.24481731009175	2.12080382791499	2.77887023164146	-0.000967488980466891	-0.0080321792361076
0.49	10.6153447853925	-6.07577096593639	725.165595943249	-41.4014506293873	6.2503659630659	2.12182723751538	2.78033033013047	-0.000961219466259319	-0.0079186126876724
0.5	10.6005304573595	-6.08872378624571	725.175109605501	-41.4857298523711	6.25583908251108	2.12445125951299	2.78348567594817	-0.000955133662238653	-0.0078058118651435
0.51	10.5872783548838	-6.10125998594248	725.189881368599	-41.5692815104774	6.26150735961332	2.12876797478997	2.78840261652759	-0.000948858219743415	-0.00769442768596128
0.52	10.5754252095839	-6.11246935162099	725.209825065671	-41.6516786117368	6.26764365277651	2.13477082430901	2.79505413943766	-0.000942016793403028	-0.00758503653099311
0.53	10.5648802090461	-6.12147760367798	725.23488333472	-41.7325554088673	6.27450524314512	2.14235690620265	2.80332203317087	-0.000934254079445617	-0.00747813253053605
0.54	10.55561158984	-6.1274818112067	725.265006087961	-41.8116082638301	6.28231665062617	2.15133418990731	2.81300354092752	-0.000925258964267718	-0.00737412479093915
0.55	10.5476291899948	-6.12978288022444	725.30012157849	-41.8885927845316	6.29125408522188	2.16143295362883	2.8238219335799	-0.000914785371906217	-0.00727333917552275
0.56	10.5409650962784	-6.12781370865352	725.340103170852	-41.963317931205	6.30143252196081	2.17232058913892	2.83544027421809	-0.000902669525849864	-0.0071760239122711
0.57	10.5356543826398	-6.12116177255005	725.384735268172	-42.0356380033119	6.31289623621859	2.18361881346961	2.84747753987872	-0.000888842547244464	-0.00708235803787345
0.58	10.5317176625468	-6.10958515984334	725.433681823897	-42.1054435339021	6.32561342790521	2.19492228273673	2.8595262092034	-0.000873337586807502	-0.00699246153115969
0.59	10.5291468005574	-6.09302139002662	725.486460478188	-42.1726521247165	6.33947531040063	2.20581761725975	2.87117041763682	-0.000856291015889295	-0.00690640595525181
0.6	10.5278946842528	-6.07158873197359	725.542424665806	-42.2372001524014	6.3542997595464	2.21590191357959	2.88200382093371	-0.000837937563374028	-0.00682422451938164
0.61	10.5278694873953	-6.04558013146857	725.600755145217	-42.2990360775745	6.36983932844389	2.22479992871714	2.89164638691403	-0.00081859965690915	-0.00674592067654752
0.62	10.5289334006329	-6.01545025488392	725.660461427839	-42.358115819133	6.38579315550853	2.23217926337293	2.899759446061	-0.000798671585283389	-0.00667147466729494
0.63	10.5309054066057	-5.98179651449523	725.72039268124	-42.4144003493057	6.40182204595833	2.23776303075067	2.90605846378903	-0.000778599419948291	-0.00660084776825849
0.64	10.5335673653	-5.94533523558379	725.779256966843	-42.4678553576433	6.4175658082561	2.24133966330415	2.91032314069866	-0.000758857896135064	-0.00653398436614955
0.65	10.5366724768834	-5.90687433301331	725.835647244168	-42.5184525608476	6.43266179081417	2.24276966923271	2.91240459211458	-0.000739925640034838	-0.00647081231185544
0.66	10.5399551148852	-5.8672839710247	725.888072472984	-42.5661720312696	6.4467634994211	2.24198929457193	2.91222949629027	-0.000722260225633518	-0.00641124227691139
0.67	10.5431410705878	-5.82746667996769	725.93499235723	-42.6110048024009	6.45955818567337	2.23901116886248	2.90980122548526	-0.000706274546818332	-0.00635516700512833
0.68	10.5459574043057	-5.78832830289737	725.974854728827	-42.6529549956891	6.47078237879592	2.23392210959669	2.90519808164329	-0.000692315897798673	-0.00630246140580736
0.69	10.5481413332152	-5.75075095765625	726.006135147737	-42.6920407980885	6.48023447993016	2.22687833313382	2.89856884695609	-0.000680648974798264	-0.00625298436484159
0.7	10.549447862109	-5.71556894749188	726.027378851694	-42.7282937907323	6.48778373717572	2.2180983704476	2.89012592961784	-0.000671443757408444	-0.00620658296264809
0.71	10.5496561420824	-5.6835482611807	726.037245576727	-42.7617563630663	6.493375156114	2.20785401970763	2.88013643857541	-0.000664768916820321	-0.0061630995023824
0.72	10.5485747826458	-5.65536999954205	726.034557862727	-42.7924772143205	6.49703015711827	2.19645968993755	2.86891156098063	-0.000660591051662289	-0.00612238139770977
0.73	10.5460465108964	-5.63161777575009	726.018353178208	-42.8205052132226	6.49884304995634	2.1842605062622	2.85679464545114	-0.000658779693428055	-0.00608429358313762
0.74	10.5419526432614	-5.61276888541716	725.987939530252	-42.8458821265414	6.49897364139072	2.17161956180981	2.84414841573768	-0.000659117675667495	-0.00604873273153382
0.75	10.5362178005177	-5.59918884750424	725.942953225872	-42.8686349113226	6.49763650804131	2.15890471654936	2.83134175454791	-0.000661316145919206	-0.00601564223238452
0.76	10.5288151598273	-5.59112879103552	725.883416244032	-42.8887683759183	6.49508764289576	2.14647535935238	2.81873650634793	-0.000665033235614662	-0.00598502663567011
0.77	10.5197723174806	-5.58872511092257	725.809789440825	-42.9062590415491	6.49160931111361	2.13466956429104	2.80667474990559	-0.000669895205713318	-0.00595696412748355
0.78	10.5091775641892	-5.59200083770166	725.723016750326	-42.9210509790379	6.48749402440724	2.12379208173845	2.79546698406627	-0.000675518764697415	-0.00593161559214868
0.79	10.4971860905636	-5.60086825302001	725.624554866339	-42.933054263099	6.48302856215846	2.11410360425088	2.78538165113229	-0.000681533215606942	-0.00590922893750469
0.8	10.4840253864133	-5.61513242206421	725.516382768782	-42.9421464947188	6.47847893376489	2.1058117313193	2.77663638867761	-0.000687601129590737	-0.00589013760904857
0.81	10.4699989136686	-5.63449548813672	725.400986005777	-42.9481776109575	6.47407709557754	2.09906402142594	2.76939135075187	-0.000693436359569595	-0.00587475257719539
0.82	10.4554870511875	-5.65856176247759	725.281311889861	-42.9509779531962	6.4700101144468	2.0939434614835	2.76374487242418	-0.000698818389309972	-0.00586354752269348
0.83	10.4409443504223	-5.68684382180208	725.160693654558	-42.9503693212023	6.46641231702729	2.09046660177998	2.75973166810667	-0.000703602247362363	-0.00585703743359849
0.84	10.4268923089575	-5.71876997447052	725.042743997559	-42.9461785205584	6.46336078898326	2.08858450045265	2.75732365618027	-0.000707723486536012	-0.00585575132436899
0.85	10.4139071537341	-5.75369355299584	724.931221087538	-42.9382527300714	6.46087440052172	2.08818649905299	2.75643339357535	-0.000711198021392179	-0.00586020025395975
0.86	10.4026025023668	-5.79090451845549	724.829872763437	-42.9264758840507	6.45891634330222	2.08910671582373	2.75691998871419	-0.00071411691220926	-0.00587084221815161
0.87	10.3936072030398	-5.82964380928206	724.742267022742	-42.9107851872467	6.45739997712754	2.09113300345176	2.75859724501152	-0.000716636468517997	-0.00588804579017968
0.88	10.3875390978307	-5.8691207277429	724.671618712662	-42.8911868588857	6.45619761061978	2.09401798199761	2.761243675912	-0.000718964304718095	-0.00591205455939323
0.89	10.3849758660654	-5.90853343531647	724.620623391145	-42.8677702341986	6.45515168543285	2.0974916346746	2.76461393247158	-0.000721342202491104	-0.00594295445620826
0.9	10.3864244420879	-5.94709233529901	724.591309477395	-42.8407194321649	6.45408770504122	2.10127485325437	2.76845110202762	-0.000724026809757732	-0.00598064594943552
0.91	10.3922907323112	-5.98404577855331	724.584919022479	-42.8103219202182	6.45282815290284	2.10509324934096	2.77249927752434	-0.000727269325839504	-0.00602482286596929
0.92	10.4028514576699	-6.01870716571044	724.60182575728	-42.7769734626977	6.45120658633322	2.10869051422707	2.77651576684115	-0.000731295381292045	-0.00607495922913225
0.93	10.4182299107856	-6.05048217195501	724.641496665929	-42.7411791214398	6.44908107631449	2.11184061791088	2.78028231412861	-0.000736286314705691	-0.00613030506514814
0.94	10.4383772466896	-6.0788945277238	724.702500409097	-42.7035501749755	6.44634619278045	2.11435818870963	2.78361474312851	-0.000742362976156109	-0.00618989161807137
0.95	10.4630606381853	-6.10360858889184	724.782562749612	-42.6647970273437	6.4429428106376	2.11610650725215	2.78637050604228	-0.000749573049387079	-0.00625254587715705
0.96	10.4918592477101	-6.12444685757263	724.878665993835	-42.6257183775463	6.43886513214316	2.11700267782908	2.78845372853881	-0.000757882687160056	-0.00631691379432667
0.97	10.5241685290328	-6.14140069524375	724.987186620049	-42.5871871041991	6.43416448133231	2.11701969864207	2.7898174771915	-0.000767173005378584	-0.00638149108999043
0.98	10.5592129092159	-6.1546327170029	725.104062939356	-42.5501334744952	6.42894961771069	2.1161853306611	2.7904631327911	-0.000777241694540978	-0.00644466014709101
0.99	10.5960664481543	-6.16446976781307	725.224982980885	-42.5155264001969	6.42338352805588	2.11457785133007	2.79043692235476	-0.000787809698504019	-0.00650473120433333
1	10.6336806599813	-6.17138594056174	725.345581892417	-42.4843535258913	6.41767687311744	2.11231896242925	2.78982383362643	-0.000798532600064126	-0.00655998590047441
1.01	10.6709183317378	-6.17597576727672	725.461638006299	-42.4576009395553	6.41207847507353	2.10956428951522	2.7887392972645	-0.000809016061597572	-0.00660872120214219
1.02	10.7065919062178	-6.17891845020704	725.569257279413	-42.4362332410326	6.40686341650851	2.10649205315901	2.7873191628993	-0.000818834417777711	-0.00664929186586346
1.03	10.7395048159287	-6.18093473937877	725.66503696557	-42.4211745948572	6.40231946850603	2.1032906011319	2.78570860617516	-0.000827551324774861	-0.00668014982641413
1.04	10.7684940641142	-6.18273874294722	725.746200978793	-42.4132912409801	6.39873266305532	2.10014555942268	2.78405067706747	-0.000834741250772682	-0.00669987924245501
1.05	10.792472340964	-6.18498751221267	725.81070130499	-42.4133757571495	6.39637286612672	2.09722738465414	2.78247522995714	-0.000840010554884946	-0.00670722633177485
1.06	10.8104680281833	-6.18823161776941	725.857281871292	-42.4221331809854	6.3954801899311	2.09468007975977	2.78108896068066	-0.000843016947873088	-0.00670112355178554
1.07	10.8216615701826	-6.19287008333491	725.885503357915	-42.4401689309623	6.39625300837637	2.09261176974414	2.77996721537782	-0.00084348625396728	-0.00668070808430071
1.08	10.8254168617437	-6.19911294381691	725.895729431516	-42.4679783352496	6.39883821549954	2.09108772826009	2.77914813337351	-0.000841225587921143	-0.00664533492840479
1.09	10.82130650736	-6.20695433974975	725.889076710524	-42.5059375031598	6.4033242034365	2.09012630384309	2.77862954682817	-0.000836132309448703	-0.00659458516020153
1.1	10.8091300356499	-6.21615846920481	725.867332382117	-42.5542952665486	6.40973684777613	2.08969802394888	2.77836889071822	-0.000828198399103051	-0.00652827006320068
1.11	10.7889243948787	-6.226259929528	725.832844733063	-42.6131659799769	6.41803858888033	2.08972796397857	2.77828618676112	-0.000817510194264166	-0.00644643186096149
1.12	10.7609663068314	-6.23657905142295	725.788392898541	-42.6825230914788	6.42813050306106	2.09010126711533	2.77826996443552	-0.000804243709795321	-0.00634934170102951
1.13	10.7257663124034	-6.246251826408	725.737042846204	-42.7621935642695	6.43985708148506	2.09067150001443	2.77818578262268	-0.000788656025016791	-0.00623749536561457
1.14	10.684054601087	-6.25427303160008	725.681996974124	-42.8518534205061	6.45301328935057	2.09127134095669	2.77788682875947	-0.000771073429554764	-0.00611160694958883
1.15	10.6367589762341	-6.25955023918171	725.626444694463	-42.9510248639115	6.46735337235085	2.09172493309695	2.77722591125236	-0.000751877171869074	-0.0059726004866401
1.16	10.5849755661843	-6.26096563134428	725.573420995378	-43.0590755905217	6.48260081727022	2.09186110769068	2.77606803748098	-0.000731487737229784	-0.00582159925856796
1.17	10.5299331443135	-6.25744198222746	725.525679234915	-43.1752209906797	6.49845886040981	2.09152660125194	2.77430269508846	-0.000710348593549834	-0.00565991232744473
1.18	10.472952163173	-6.24800885675948	725.48558335966	-43.2985299614401	6.51462096911626	2.09059836487996	2.77185493726247	-0.00068891028661869	-0.00548901771616372
