Time [s]	GRFml [N]	GRFap [N]	GRFv [N]	Mml [N.m]	Map [N.m]	Mv [N.m]	Mfree [N.m]	COPml [m]	COPap [m]
0.01	5.63826026571973	6.12865534480636	702.117745664996	-69.1576677077209	5.74980171367755	-2.16818501399959	-1.66298331888841	0.00365434842626586	0.0135199676064359
0.02	6.0514729260499	6.04058428287511	702.641118428684	-69.0561240569453	5.7229394953662	-2.11871283941448	-1.57313372061009	0.00361015790393389	0.0132954658478802
0.03	6.45583016240957	5.9556195495714	703.154767401368	-68.9561913929412	5.69646649802675	-2.07018587100447	-1.48528932815966	0.0035666192965445	0.0130747326080763
0.04	6.8435459492536	5.87586259324987	703.649495109435	-68.8588137404484	5.67068597789651	-2.02345438038771	-1.40105379128275	0.00352426598436875	0.0128603807986183
0.05	7.20741374089861	5.8031932477384	704.116807927782	-68.7647563336359	5.64585101526138	-1.97929172795822	-1.32188713161003	0.00348355277086846	0.0126546621712973
0.06	7.54109944639757	5.73917419972033	704.549241743127	-68.6745738040728	5.62215350091954	-1.93836398683437	-1.24904900377941	0.00344483633139845	0.0124593791474643
0.07	7.83939115266786	5.68497324457537	704.940631053215	-68.5885868762624	5.59971634533877	-1.90120602728309	-1.18355321422601	0.00340836086458745	0.0122758173220724
0.08	8.09839288384354	5.64130806566982	705.286307901603	-68.5068687790615	5.57858927178466	-1.86820536467734	-1.12613566620129	0.00337424964934986	0.012104701781632
0.09	8.31565319365593	5.60841667404684	705.583221786553	-68.4292421752264	5.55874828087353	-1.83959451680812	-1.07723700895218	0.00334250276101253	0.011946179127769
0.1	8.49022335996769	5.58605490404106	705.829976851211	-68.3552869444598	5.54009860763469	-1.81545202456391	-1.0370003526185	0.00331300075223001	0.0117998257830854
0.11	8.62264410285808	5.57352060715477	706.026787870552	-68.284358652616	5.52248075820051	-1.79571170950925	-1.00528352677833	0.00328551370016227	0.011664681846284
0.12	8.71486379940773	5.56970253838378	706.175361429582	-68.2156170303669	5.50567903122221	-1.78017921419113	-0.981684557723873	0.0032597146952268	0.0115393085251699
0.13	8.77009486270547	5.57315048416726	706.278712915189	-68.1480632991701	5.48943181193718	-1.76855443080344	-0.965578355129487	0.00323519662301139	0.0114218660668268
0.14	8.79261807363839	5.58216201605115	706.340933266503	-68.0805847500548	5.47344288012074	-1.76045809753722	-0.9561620609814	0.00321149098232571	0.0113102081725698
0.15	8.78754703933419	5.59488042302404	706.366921672277	-68.0120046271531	5.4573929953314	-1.75546064662805	-0.95250614236251	0.0031880874892911	0.0112019881705416
0.16	8.76056650019151	5.60939790908046	706.362101481969	-67.9411351132757	5.44095110576566	-1.75311133121127	-0.953608117250617	0.00316445332863746	0.0110947717507689
0.17	8.71765887949535	5.6238580488028	706.33213650936	-67.8668310726216	5.42378465731532	-1.7529657375306	-0.95844579375994	0.00314005110816627	0.0109861508652568
0.18	8.66483328649351	5.63655175889141	706.282663731936	-67.7880421820173	5.40556864022037	-1.75460999385152	-0.966027075116933	0.00311435482314192	0.010873853466365
0.19	8.60787021857668	5.64600163423126	706.219056271389	-67.7038611754529	5.38599318366755	-1.75768029879261	-0.975433723175474	0.00308686341362551	0.0107558440938719
0.2	8.55209357577942	5.65103036304984	706.146227677678	-67.6135661287321	5.36476967585826	-1.76187678445883	-0.98585696099954	0.00305711176955505	0.0106304109039234
0.21	8.50217944578655	5.65081001349598	706.06848516311	-67.5166550074462	5.34163553267949	-1.76697117381748	-0.996623398976619	0.00302467927976995	0.0104962355263355
0.22	8.4620086015526	5.6448902009416	705.989435792789	-67.4128710734294	5.31635784987226	-1.7728081546375	-1.00721044949526	0.00298919621262766	0.0103524430926114
0.23	8.43456694307629	5.63320442433522	705.91194598272	-67.3022181707601	5.28873624356581	-1.7793008410281	-1.01725110642061	0.00295034834550148	0.0101986308380754
0.24	8.42189537097942	5.61605512405078	705.838151221066	-67.1849653695117	5.25860520897597	-1.78642109702335	-1.02652865824023	0.0029078803241694	0.0100348747848438
0.25	8.42508794985512	5.59407919058448	705.76950991769	-67.0616409114783	5.22583630822131	-1.79418582763989	-1.03496252944739	0.00286159823363554	0.00986171509459922
0.26	8.44433483185065	5.568196679518	705.706892870293	-66.9330158562064	5.19034044083541	-1.80264058017226	-1.04258696017481	0.00281137180724673	0.00968012168227728
0.27	8.47900437024946	5.53954631160861	705.650698134339	-66.800078249372	5.15207036301572	-1.81184192835448	-1.04952460501813	0.00275713660248123	0.00949144255329827
0.28	8.52775723815987	5.50941192007531	705.60098017004	-66.6639990131241	5.11102351442031	-1.82184012886509	-1.05595733628753	0.00269889634260502	0.00929733802877045
0.29	8.58868423201245	5.47914432805189	705.557582031993	-66.5260910765201	5.06724509587831	-1.83266344649933	-1.06209656652712	0.00263672547701945	0.00909970452902198
0.3	8.65945881086737	5.45008319169184	705.520260032689	-66.3877635133298	5.02083122914859	-1.84430535232133	-1.06815526641035	0.00257077186258336	0.00890059188281669
0.31	8.73749530307131	5.42348313804457	705.488791669235	-66.2504726265338	4.97193193130483	-1.85671552644096	-1.0743235667586	0.00250125932562748	0.00870211821668974
0.32	8.82010408035818	5.4004480854684	705.463059530599	-66.1156720084104	4.92075356023049	-1.86979526734032	-1.0807494280726	0.00242848974088817	0.00850638636541529
0.33	8.90463581249937	5.38187699435777	705.443106244858	-65.9847636092948	4.86756034072633	-1.88339754983077	-1.0875253758041	0.00235284416920042	0.0083154054485671
0.34	8.98860810898476	5.36842350361112	705.429158103887	-65.8590517666887	4.81267456716737	-1.89733161171295	-1.0946817765026	0.00227478253928415	0.00813102080396144
0.35	9.06980934582725	5.36047101669739	705.421617627615	-65.7397019821495	4.7564751004337	-1.91137161172826	-1.10218661059746	0.00219484134749647	0.00795485488605094
0.36	9.14637616880064	5.35812386699861	705.421027813774	-65.6277059923646	4.6993938336554	-1.92526861181429	-1.10995121984449	0.0021136288879117	0.00778826105939474
0.37	9.2168429529061	5.36121427177864	705.428012988928	-65.5238543725642	4.64190989071805	-1.93876491345632	-1.11784110282034	0.00203181761537703	0.007632291480118
0.38	9.28016327163143	5.36932393040245	705.443202885421	-65.4287175479756	4.58454143904768	-1.95160963352269	-1.12569052342194	0.00195013338424535	0.00748767949924392
0.39	9.33570508194739	5.38181838104411	705.467147706228	-65.3426356886139	4.52783513762184	-1.96357434539026	-1.13331949909877	0.00186934148881602	0.00735483627867511
0.4	9.38322276585672	5.39789163704567	705.500232439214	-65.2657175432888	4.47235339435785	-1.97446763605811	-1.14055165238287	0.00179022964699589	0.00723386062003797
0.41	9.42281030783744	5.41661820355515	705.542598525888	-65.1978478510722	4.41865976435851	-1.98414753318108	-1.14723143770502	0.00171358830102403	0.0071245604025256
0.42	9.45484067358383	5.43700933856257	705.594080208304	-65.1387025742767	4.36730297111495	-1.99253092652162	-1.15323938492627	0.00164018883987686	0.00702648353782835
0.43	9.47989685918249	5.45807036877239	705.654161547386	-65.087770847428	4.31880016524452	-1.9995993314775	-1.15850421534578	0.00157076055730984	0.00693895600164007
0.44	9.49870009894377	5.47885598716794	705.721958341317	-65.04438225116	4.27362013848806	-2.00540060086635	-1.16301096511972	0.00150596732802583	0.00686112430771205
0.45	9.51204037872144	5.49852072346893	705.796227117509	-65.0077378145557	4.23216727453673	-2.01004646660682	-1.16680457268135	0.00144638509535779	0.00679199975850656
0.46	9.52071374724926	5.51636216217829	705.875401187356	-64.9769430358112	4.19476703510016	-2.01370606694137	-1.16998872772603	0.00139248130463635	0.00673050193274694
0.47	9.5254700169028	5.5318549533814	705.957651606369	-64.9510411952531	4.16165374497842	-2.0165958701943	-1.17272011702553	0.00134459738031068	0.00667549914108252
0.48	9.52697337607762	5.54467418653721	706.04096893356	-64.9290453165822	4.132961353202	-2.01896662773177	-1.17519851595409	0.00130293523157522	0.00662584397389174
0.49	9.52577728295193	5.55470724741668	706.123260074915	-64.9099673053323	4.10871771228594	-2.02108816474036	-1.17765344614176	0.00126754858691358	0.00658040254945788
0.5	9.5223138594744	5.56205382792196	706.202453340648	-64.8928430456857	4.08884274224203	-2.02323293913936	-1.18032833473071	0.00123833971474419	0.00653807661055657
0.51	9.51689693365397	5.56701428816914	706.276604223141	-64.8767525508096	4.07315064181673	-2.02565936164708	-1.18346325909161	0.00121506180223647	0.00649781817464171
0.52	9.50973695528787	5.57006706590035	706.343994350552	-64.8608346170457	4.06135609080725	-2.02859587276416	-1.18727743682571	0.00119732695771246	0.0064586369796784
0.53	9.50096528789096	5.57183628062288	706.403216586053	-64.8442958058578	4.05308417004629	-2.03222671775261	-1.19195262319855	0.0011846194958174	0.00641960145017684
0.54	9.4906648929355	5.57305108263795	706.45324027974	-64.8264139463509	4.04788352552643	-2.03668025415819	-1.19761850985041	0.00117631388052342	0.00637983430803508
0.55	9.47890418778418	5.57449864554153	706.493452157339	-64.8065366934879	4.04524213447752	-2.04202047606933	-1.20434108654168	0.00117169645865591	0.00633850424998481
0.56	9.4657708731772	5.57697298984171	706.523670134226	-64.7840759733987	4.04460490555597	-2.04824225493443	-1.21211474182407	0.0011699899319744	0.00629481529581664
0.57	9.45140276951892	5.58122204846283	706.544129339964	-64.7584993813674	4.0453922704347	-2.05527058926793	-1.22085865126682	0.00117037940001001	0.00624799547567183
0.58	9.436013138214	5.58789553317915	706.555441679837	-64.7293197581803	4.04701890346315	-2.06296393626609	-1.23041774710959	0.00117203876437862	0.00619728647474507
0.59	9.41990854826339	5.59749622318316	706.558532195614	-64.6960842489114	4.04891173876657	-2.07112147831723	-1.24056829546837	0.0011741563178973	0.00614193570041038
0.6	9.40349802555222	5.61033726030674	706.554557175679	-64.6583641417247	4.05052653519723	-2.07949396698049	-1.25102784078196	0.00117595844283651	0.0060811919956521
0.61	9.38729293672669	5.62650788735996	706.544810279842	-64.6157466941906	4.05136236061926	-2.08779759547498	-1.26146902544839	0.00117673050169556	0.00601430591281915
0.62	9.37189775755311	5.64584979667521	706.530623787757	-64.5678299865867	4.05097351737404	-2.09573018603062	-1.2715365675795	0.001175834207088	0.00594053510433472
0.63	9.35799250988214	5.66794586049931	706.513272386235	-64.5142216055575	4.04897859832587	-2.10298884725251	-1.28086649186783	0.00117272098849569	0.00585915500441517
0.64	9.34630818409124	5.69212249634089	706.493886652974	-64.4545416711573	4.0450665351835	-2.10928816436356	-1.28910656633237	0.001166941115707	0.00576947459061075
0.65	9.3375968689629	5.71746629140397	706.473382586896	-64.3884303929796	4.03899966602103	-2.1143779361172	-1.2959368080454	0.00115814857502468	0.00567085664800621
0.66	9.33259857431943	5.74285479412677	706.452412235412	-64.3155599968004	4.0306139967664	-2.11805946954343	-1.30108888891388	0.00114610190978603	0.00556274163268064
0.67	9.33200685079412	5.76700061134944	706.43133877302	-64.2356505236672	4.01981695376256	-2.12019948957532	-1.30436330137444	0.00113066141906185	0.00544467396264046
0.68	9.33643529312637	5.78850716945681	706.410237423695	-64.1484886907576	4.0065830159003	-2.1207408156586	-1.30564323450837	0.00111178324877883	0.00531632936871916
0.69	9.34638687315729	5.80593375594003	706.388921545883	-64.0539487386881	3.99094767276204	-2.1197091005157	-1.3049042621323	0.0010895110031148	0.00517754182546905
0.7	9.36222780622656	5.81786680575375	706.366991180478	-63.9520139916432	3.97300018008839	-2.11721511385175	-1.30221915146525	0.0010639655500922	0.00502832855839777
0.71	9.38416733269906	5.82299388451769	706.343899564274	-63.8427977390032	3.95287557864437	-2.11345227970405	-1.29775735623971	0.00103533369685797	0.00486891168896249
0.72	9.4122444185705	5.8201764918377	706.319031684222	-63.7265620189671	3.9307464122089	-2.10868943100344	-1.2917790502475	0.00100385637332863	0.0046997352266782
0.73	9.44632196880084	5.80851769635881	706.291788012331	-63.6037329487156	3.90681453123112	-2.10325901627818	-1.28462387140356	0.000969816896045489	0.00452147633718669
0.74	9.4860887263297	5.78742073943257	706.261666198072	-63.4749113981655	3.88130330747023	-2.09754126610938	-1.27669486458297	0.000933529796710248	0.00433505009015539
0.75	9.53106861931483	5.75663511012077	706.228333737326	-63.3408780352765	3.85445051812334	-2.09194508387663	-1.26843841381049	0.000895330601457006	0.00414160720202379
0.76	9.58063693813558	5.71628718699151	706.191685464969	-63.2025920646042	3.82650209098923	-2.08688664878775	-1.26032122029324	0.000855566845950537	0.00394252461466539
0.77	9.63404238959112	5.6668933311389	706.151881061957	-63.061183317397	3.79770683903152	-2.08276689228899	-1.2528055927596	0.000814590514555539	0.00373938907074231
0.78	9.69043380394313	5.6093542542937	706.109359511414	-62.9179377081926	3.76831225545727	-2.07994911725233	-1.24632445390179	0.000772752003468218	0.00353397414037708
0.79	9.74889007376649	5.54493051807557	706.064829430455	-62.774276425605	3.73856138960597	-2.07873806229003	-1.24125751918658	0.000730395629819859	0.00332821140550058
0.8	9.80845179118202	5.47520007999141	706.019236271031	-62.631729550479	3.70869077871822	-2.07936166568012	-1.23791006545922	0.000687856641226064	0.00312415670610652
0.81	9.86815302668059	5.40199982057166	705.973709342945	-62.4919050719024	3.67892936943399	-2.0819566550178	-1.23649557676367	0.000645459621442796	0.0029239524901159
0.82	9.92705175789932	5.32735389825433	705.929493293465	-62.3564544838471	3.64949832396841	-2.08655888612242	-1.2371233405532	0.000603518135367381	0.00272978738459186
0.83	9.98425760420252	5.25339252561399	705.887869933894	-62.2270362809312	3.62061156817455	-2.09309908979816	-1.23979178219346	0.000562335408412677	0.00254385412479133
0.84	10.0389557409389	5.18226529493102	705.850077026098	-62.1052787256954	3.59247690200385	-2.10140437431136	-1.24438798784865	0.000522205790026349	0.00236830694752214
0.85	10.090426138931	5.1160534700521	705.817230772172	-61.9927432331214	3.56529745839487	-2.11120549480852	-1.25069349772415	0.000483416709057013	0.00220521948810777
0.86	10.1380575793742	5.0566856887395	705.790258283502	-61.8908896183187	3.53927326684393	-2.12214956002569	-1.25839607739438	0.000446250791755965	0.00205654412899209
0.87	10.1813562089968	5.00586128644379	705.769845291851	-61.8010442930075	3.51460265634649	-2.13381752330011	-1.26710681880717	0.000410987785087941	0.001924073645296
0.88	10.2199487021621	4.96498497699098	705.756402905289	-61.7243722919424	3.49148322310078	-2.14574551937021	-1.27638160702102	0.000377905913594751	0.00180940588902614
0.89	10.253580364904	4.93511594202299	705.750055446947	-61.6618537800223	3.47011209530966	-2.15744887817399	-1.28574573303694	0.000347282302790883	0.00171391215631481
0.9	10.2821087344414	4.91693353623436	705.750649512517	-61.6142654529227	3.45068525386146	-2.16844748540029	-1.29472025206092	0.000319392131212058	0.00163870979426529
0.91	10.3054933864243	4.91072086620415	705.757782521118	-61.5821670156186	3.43339571556279	-2.17829107597169	-1.30284858988588	0.000294506230889779	0.0015846395251366
0.92	10.3237827581132	4.91636650910454	705.770847384664	-61.5658927184492	3.41843045511556	-2.18658304522229	-1.30972189210176	0.000272886944276158	0.00155224789230159
0.93	10.337098833281	4.93338366687319	705.789088630496	-61.5655477602112	3.40596603126792	-2.19300144280927	-1.31500169047261	0.000254782163794869	0.0015417751596951
0.94	10.3456205245368	4.96094516097656	705.81166449109	-61.5810092390981	3.39616298742854	-2.19731597142908	-1.31843862202576	0.000240417624196764	0.00155314891929587
0.95	10.3495665460133	4.99793191414334	705.837709186559	-61.611931248105	3.38915921131591	-2.19940003722192	-1.31988616874885	0.000229987680122141	0.00158598357573361
0.96	10.3491785104549	5.0429919784361	705.866389882403	-61.6577536710391	3.38506255395374	-2.19923717883041	-1.31930867516631	0.000223644970678254	0.00163958578159208
0.97	10.3447049245267	5.09460677987855	705.896953567307	-61.7177142344053	3.38394311632003	-2.19692152193946	-1.31678323044752	0.000221489535649465	0.00171296579194671
0.98	10.3363867048337	5.15116106960437	705.928760278435	-61.7908634022382	3.385825702506	-2.19265224788666	-1.31249535200814	0.000223558088746382	0.00180485459479129
0.99	10.3244447979903	5.2110130962609	705.961300582428	-61.8760817562707	3.3906830019676	-2.18672240904651	-1.30672875858873	0.00022981425649673	0.00191372655933925
1	10.3090704566807	5.27256172681666	705.994196852461	-61.9720995719642	3.39843009220241	-2.17950274981941	-1.29984985220326	0.000240140642933087	0.00203782723129413
1.01	10.2904186885227	5.33430761462668	706.027189508194	-62.0775183703844	3.40892084084442	-2.17142148017544	-1.29228782082912	0.000254333569288566	0.00217520579713043
1.02	10.2686053395659	5.39490600849328	706.060110853644	-62.1908342851597	3.42194672935602	-2.1629411804207	-1.28451151015907	0.000272101258248114	0.00232375164097756
1.03	10.2437081822325	5.45320937427436	706.092850323411	-62.310463122148	3.43723851904966	-2.15453417580761	-1.27700437942628	0.000293066083352387	0.00248123432888275
1.04	10.215772234413	5.50829862048633	706.12531572588	-62.4347669979667	3.45447103740123	-2.14665779681958	-1.27023894389535	0.000316771291474901	0.00264534627532471
1.05	10.1848193352338	5.55950234299189	706.157395386668	-62.5620824158866	3.47327118532168	-2.13973092991142	-1.26465211081121	0.000342692341478312	0.00281374727392117
1.06	10.1508617465072	5.6064040977957	706.188925923595	-62.6907495707995	3.49322906427488	-2.13411316480163	-1.26062273752674	0.000370252702111893	0.00298411000601786
1.07	10.1139192506438	5.64883824809155	706.219669746442	-62.819142570286	3.51391190865497	-2.13008766496886	-1.25845258656081	0.000398843637955655	0.00315416557572672
1.08	10.0740388993165	5.68687539182266	706.249305332428	-62.94570012198	3.53488029843988	-2.12784864046903	-1.25835163354556	0.000427847207205896	0.00332174805827494
1.09	10.0313162629523	5.7207987456792	706.277431978178	-63.0689560788549	3.55570593557323	-2.12749400401603	-1.26042841528424	0.000456661423300458	0.00348483699316779
1.1	9.98591677281167	5.75107313328016	706.303589194034	-63.1875690683404	3.57599011031996	-2.12902346326299	-1.26468580398916	0.000484726316202013	0.00364159671056334
1.11	9.93809556712201	5.77830839711843	706.32728932606	-63.3003502761664	3.59538187496709	-2.13234196684737	-1.27102227911503	0.000511549487475782	0.00379041135701681
1.12	9.88821417689893	5.80321912802014	706.3480605092	-63.4062883311231	3.61359489281681	-2.13726810137205	-1.27923845906303	0.000536729699772877	0.00392991449572611
1.13	9.83675243306822	5.82658258867402	706.365495809609	-63.5045701619597	3.63042194753995	-2.14354675165686	-1.28904836935009	0.000559977083171158	0.00405901220723005
1.14	9.78431415061342	5.84919660916335	706.379303525465	-63.5945966895132	3.64574618383175	-2.15086510469135	-1.30009467749347	0.000581128678103759	0.00417689871833443
1.15	9.73162544235188	5.87183906572409	706.389353176337	-63.6759922885743	3.659548301794	-2.15887091190106	-1.31196693088739	0.000600158260183041	0.00428306374588985
1.16	9.67952491833267	5.89523033548763	706.395711778073	-63.7486071115427	3.67190913609546	-2.16719183289466	-1.32422170199504	0.000617179692274625	0.00437729095955189
1.17	9.6289455113595	5.91999986828045	706.398665587594	-63.8125116089457	3.68300730349831	-2.17545466998645	-1.33640348116283	0.000632443404234143	0.00445964724041759
1.18	9.58088820268564	5.94665775112933	706.398723578731	-63.8679829021657	3.69311188181145	-2.18330336469546	-1.34806516329349	0.000646325987211411	0.0045304627321098
1.19	9.53638846842657	5.97557188071337	706.396600399872	-63.9154830457784	3.70257037046204	-2.1904147586874	-1.35878704852883	0.000659313281489501	0.00459030203481811
