Time [s]	GRFml [N]	GRFap [N]	GRFv [N]	Mml [N.m]	Map [N.m]	Mv [N.m]	Mfree [N.m]	COPml [m]	COPap [m]
0.01	11.4053969821364	1.60055668851838	717.974822323454	-49.0342324528857	3.57526074209141	-3.49487333591545	-2.72402278742424	-0.0118741699968157	-0.0155978284816595
0.02	11.2131272936274	1.49513655607355	719.811663131812	-49.2148647499901	3.72555347609796	-3.3560170338269	-2.5971755694983	-0.0116778259460053	-0.0155105899182019
0.03	11.0247560718284	1.39038290218825	721.627210615228	-49.393094128232	3.87297747777047	-3.22007329241629	-2.4729759871415	-0.0114856204570935	-0.015424679461396
0.04	10.8439080527555	1.28637541597101	723.38717789001	-49.5637469936191	4.01512512271044	-3.08965287702951	-2.35382577116392	-0.0113005844041373	-0.015344040438121
0.05	10.6739930907873	1.18300325483555	725.057465465037	-49.7214316067049	4.14979785730555	-2.96717741326371	-2.24195249768857	-0.0111254451551712	-0.015272936600738
0.06	10.518075183124	1.07998074631713	726.605195730009	-49.8607039967813	4.27509234685354	-2.85478195315246	-2.13932006136991	-0.010962519234869	-0.0152158204073262
0.07	10.3787566299265	0.976871673877139	727.999741486099	-49.9762474389846	4.38947297211284	-2.75423179768663	-2.04755263135873	-0.010813624408108	-0.0151771818490348
0.08	10.2580828505577	0.873121200117592	729.213715565982	-50.0630598868046	4.49182702952025	-2.666857751928	-1.96787585220913	-0.0106800155431867	-0.015161382465313
0.09	10.1574722639792	0.768094296136876	730.223887810094	-50.1166427154447	4.58149993697974	-2.5935128213624	-1.90107790774096	-0.0105623473218199	-0.0151724805778937
0.1	10.0776743094459	0.661119315475347	731.01199611151	-50.1331833377245	4.65830885091604	-2.53455204889576	-1.84749181348406	-0.010460665409143	-0.0152140549323519
0.11	10.0187572068886	0.551535080616203	731.565420085761	-50.1097238084871	4.72253429249331	-2.4898358339164	-1.80699903864819	-0.0103744261663267	-0.0152890347263757
0.12	9.98012551498205	0.438739566103968	731.87768919567	-50.0443075069492	4.77489058640067	-2.45875575757022	-1.77905336925929	-0.0103025434700369	-0.0153995443284504
0.13	9.96056602066321	0.322238005458231	731.948801782714	-49.9360964148624	4.81647705867867	-2.44028074226726	-1.76272288312684	-0.0102434597834615	-0.0155467707952745
0.14	9.95831906676361	0.201688065043898	731.785337260561	-49.7854523922456	4.84871294995341	-2.43302036544678	-1.75674706849931	-0.010195237382004	-0.0157308615733069
0.15	9.97117116952809	0.0769396602303041	731.40035049403	-49.5939771593425	4.87325981636942	-2.43530137810072	-1.75960551441819	-0.0101556646401021	-0.0159508585566909
0.16	9.9965637621552	-0.0519329285845838	730.813044867754	-49.3645073618044	4.89193576576435	-2.44525297929494	-1.76959424410115	-0.01012237158572	-0.0162046730469816
0.17	10.0317121799782	-0.184608730998061	730.048228480129	-49.1010630404944	4.90662618156943	-2.46089618163738	-1.78490564723416	-0.0100929485598747	-0.0164891042264894
0.18	10.0737286187846	-0.320509221482709	729.135566012928	-48.8087499446039	4.91919561067	-2.48023266355736	-1.80370807254526	-0.0100650617950461	-0.0167999016427979
0.19	10.1197427734509	-0.458800007654597	728.108646858459	-48.4936183027407	4.93140524215156	-2.50132881984252	-1.82422143820117	-0.0100365600441714	-0.0171318700406011
0.2	10.1670142022532	-0.598405471822485	727.00389776599	-48.1624827827779	4.94483990747327	-2.52239125542519	-1.84478566838943	-0.0100055670283473	-0.0174790127980357
0.21	10.2130311430506	-0.738036002548807	725.859375323963	-47.8227103114594	4.9608478305054	-2.54183067138801	-1.86391933167867	-0.00997055538670195	-0.0178347083443596
0.22	10.2555914883114	-0.876226678267582	724.713479742537	-47.4819840816255	4.98049550118227	-2.5583119120611	-1.88036650246749	-0.00993039895177196	-0.0181919123503136
0.23	10.2928628426349	-1.01138554015797	723.603636352571	-47.1480533554201	5.00453909985573	-2.57078882052701	-1.89313055495672	-0.00988440147166581	-0.018543377264472
0.24	10.3234199573801	-1.14184897514746	722.564994700205	-46.8284795021244	5.03341292412227	-2.57852343061965	-1.90149429604607	-0.00983230128059966	-0.0188818799670934
0.25	10.3462592686093	-1.2659412724908	721.629196808415	-46.5303890385452	5.06723432734814	-2.58108985522019	-1.90502651847518	-0.00977425280041151	-0.0192004479542315
0.26	10.360791658266	-1.38203515626054	720.823265844722	-46.2602442430904	5.10582382359286	-2.57836396977595	-1.9035756802119	-0.00971078705366171	-0.0194925745571391
0.27	10.3668158188631	-1.48861005249934	720.168663877111	-46.0236411938581	5.14873829279572	-2.57050060293194	-1.89725196525839	-0.00964275450277901	-0.0197524142373361
0.28	10.364475644345	-1.58430502707425	719.680562498461	-45.8251438655245	5.19531466657062	-2.55790041054341	-1.88639943293139	-0.00957125442643251	-0.0199749499538945
0.29	10.3542058274442	-1.66796371396362	719.367362842023	-45.6681612648651	5.24472110903962	-2.54116891407784	-1.87156030005144	-0.00949755564528481	-0.0201561259396543
0.3	10.3366702730873	-1.73866911309287	719.230492017823	-45.5548725692776	5.29601253556611	-2.52107032923568	-1.85343361195806	-0.00942301367643903	-0.0202929408938327
0.31	10.3126980206557	-1.79576682790742	719.264491542083	-45.4862029556852	5.34818732903562	-2.4984788047542	-1.8328306395706	-0.00934898931683465	-0.0203834985273737
0.32	10.2832211143971	-1.83887608224216	719.457400333451	-45.4618503830812	5.40024230136964	-2.47432955182658	-1.81062929451512	-0.00927677324671208	-0.0204270144915966
0.33	10.2492183052515	-1.86788864550604	719.791420882558	-45.4803611451648	5.45122328124397	-2.44957209414261	-1.78772969438655	-0.00920752054933053	-0.0204237808685429
0.34	10.2116676645176	-1.88295654651281	720.24384296274	-45.53924966812	5.50026915518098	-2.42512753362533	-1.76501275448726	-0.00914219813065721	-0.020375091477683
0.35	10.1715102120757	-1.88447011585574	720.788185526987	-45.6351559177133	5.54664771233214	-2.40185133538898	-1.74330335528951	-0.00908154697746561	-0.0202831331289452
0.36	10.1296255915067	-1.87302841971491	721.395505059814	-45.7640320145709	5.58978220641542	-2.3805027147378	-1.72333926374878	-0.00902606010552527	-0.0201508495047749
0.37	10.0868197471358	-1.84940450157042	722.035808439663	-45.9213483349335	5.62926811591294	-2.36172128455848	-1.70574659889147	-0.00897597600886957	-0.0199817854831027
0.38	10.0438235565008	-1.81450801368163	722.679501061123	-46.102308571471	5.6648801237685	-2.34601121528935	-1.69102225268937	-0.00893128650098282	-0.0197799203492145
0.39	10.0013005193626	-1.76934779331635	723.298797177477	-46.3020629917822	5.69656982358261	-2.33373278965524	-1.67952332634385	-0.00889175709402841	-0.019549498457031
0.4	9.95986095984568	-1.71499672964173	723.869019577888	-46.5159094760758	5.72445507005711	-2.32510091380853	-1.67146333411799	-0.00885695752504164	-0.0192948655001143
0.41	9.92007980161314	-1.65256089844538	724.369720007318	-46.7394728217749	5.74880221337855	-2.32018988405827	-1.66691467010351	-0.00882629971795635	-0.0190203176897093
0.42	9.88251484615027	-1.58315444601953	724.78556011363	-46.9688542197823	5.77000268339227	-2.31894350835051	-1.66581663074193	-0.0087990803576278	-0.0187299698936284
0.43	9.84772261876114	-1.50788112042184	725.106904843186	-47.2007446526526	5.78854551927868	-2.32118954473213	-1.66798813641022	-0.0087745253222477	-0.018427647271173
0.44	9.81626922317097	-1.42782272201659	725.330095525013	-47.4324981307261	5.80498747906738	-2.32665734289362	-1.67314419530256	-0.00875183344011141	-0.0181168032634332
0.45	9.78873422380478	-1.34403412120183	725.457387575939	-47.662163040589	5.8199223202739	-2.33499755511673	-1.68091509755345	-0.00873021736786589	-0.0178004650852248
0.46	9.76570630183395	-1.25754391377941	725.49655682951	-47.8884722914364	5.83395073099318	-2.34580281373986	-1.69086731253619	-0.00870893979244044	-0.0174812062275433
0.47	9.74777024548219	-1.16935929406964	725.460197814762	-48.1107952662058	5.84765222461512	-2.3586283470138	-1.70252508374473	-0.00868734360313089	-0.0171611440162429
0.48	9.73548567199736	-1.08047335730108	725.364755700034	-48.3290566786031	5.86156010626901	-2.37301161699935	-1.71539177062993	-0.00866487513382757	-0.0168419590623742
0.49	9.72935867469777	-0.99187282293744	725.229349897682	-48.5436291815021	5.87614039000981	-2.38849020482962	-1.72897007262968	-0.00864110001379618	-0.0165249325376917
0.5	9.72980828588486	-0.904544116954344	725.074460413927	-48.7552078658572	5.89177530609951	-2.40461733293974	-1.74278038461277	-0.00861571157007221	-0.0162109966458912
0.51	9.73713019668623	-0.819475870451932	724.920557004566	-48.9646755598635	5.9087517989168	-2.42097459322744	-1.75637667138627	-0.00858853208206182	-0.0159007934419196
0.52	9.75146054131995	-0.737656179620075	724.786755374477	-49.1729680463541	5.92725518702627	-2.43718163668239	-1.76935940678812	-0.00855950749065567	-0.0155947372605952
0.53	9.77274271246391	-0.66006341134545	724.689583636195	-49.3809479586437	5.94736794420692	-2.45290276557843	-1.78138529366479	-0.00852869640520992	-0.0152930764135896
0.54	9.80070011707033	-0.587649901673553	724.641935945925	-49.5892952232442	5.9690733679124	-2.46785054538791	-1.7921736568233	-0.0084962544303446	-0.0149959504457758
0.55	9.83481751287295	-0.521318542893422	724.652278934343	-49.7984205576525	5.9922637319463	-2.48178671171086	-1.801509573048	-0.00846241495122278	-0.0147034400416202
0.56	9.87433310327852	-0.461892943405822	724.724160856186	-50.0084067973182	6.01675237399245	-2.49452077973204	-1.80924396142494	-0.00842746757321374	-0.0144156075672308
0.57	9.91824294290345	-0.410082522249733	724.85605422212	-50.2189808351593	6.04228904626517	-2.50590686300321	-1.81529099489664	-0.00839173541353387	-0.014132527151144
0.58	9.96531845880414	-0.366444515530761	725.041541237135	-50.4295168415445	6.06857775906355	-2.51583926917553	-1.81962330264255	-0.00835555239388719	-0.0138543040795187
0.59	10.0141370726173	-0.331345375952454	725.26982903069	-50.6390693303231	6.09529627292757	-2.52424745915303	-1.82226550663853	-0.00831924159086492	-0.0135810840519142
0.6	10.0631250705269	-0.304924396295888	725.526559905752	-50.8464326818437	6.12211634654447	-2.53109093190518	-1.8232866707389	-0.00828309557263473	-0.0133130534690757
0.61	10.1106110667822	-0.287062549370249	725.79486213752	-51.0502220494772	6.1487238263661	-2.53635453150611	-1.82279223536041	-0.00824735949484759	-0.0130504323774042
0.62	10.1548876955325	-0.277359488679843	726.056570593998	-51.248969264584	6.17483767238975	-2.54004457040958	-1.82091596644418	-0.00821221755468571	-0.0127934619664802
0.63	10.194278591894	-0.275121387181595	726.293534797244	-51.4412264925646	6.2002270551328	-2.54218603096855	-1.81781236767723	-0.00817778321828133	-0.0125423886127832
0.64	10.2272073236885	-0.279361811699658	726.488925865026	-51.6256700254584	6.22472573343954	-2.54282095585821	-1.8136498965446	-0.00814409345116016	-0.0122974464048884
0.65	10.2522647353045	-0.288817158015441	726.628453565373	-51.8011967375471	6.24824303222653	-2.54200797958491	-1.8086051967346	-0.0081111070003315	-0.0120588399030686
0.66	10.2682711761271	-0.301977340622046	726.701410562166	-51.967006359871	6.27077088268272	-2.53982280121549	-1.80285842282969	-0.00807870660505516	-0.0118267286148991
0.67	10.2743303055513	-0.317131488718464	726.701472477645	-52.1226637970888	6.29238656160107	-2.53635926667388	-1.79658960042228	-0.00804670485475625	-0.0116012143444955
0.68	10.2698715791575	-0.332427404091691	726.627198883493	-52.2681371386565	6.31325096567224	-2.53173063030507	-1.7899758483319	-0.00801485326988145	-0.0113823322295829
0.69	10.2546790990782	-0.345942552766406	726.482200629779	-52.4038087075195	6.333602472406	-2.52607051052229	-1.78318920099075	-0.00798285405751122	-0.0111700459448186
0.7	10.2289052194791	-0.355763460254052	726.274961622783	-52.5304583303057	6.35374666133435	-2.51953305037389	-1.77639471754798	-0.00795037389169907	-0.0109642472411567
0.71	10.1930680921784	-0.360069628610586	726.018326682836	-52.6492198827026	6.37404238520396	-2.51229184346534	-1.76974855564824	-0.00791705899321995	-0.0107647597212889
0.72	10.1480331705464	-0.35721755484902	725.728689806145	-52.7615139414874	6.3948848782007	-2.50453728648276	-1.76339572374421	-0.0078825507399437	-0.0105713465252957
0.73	10.094979513644	-0.345820155486757	725.424937437514	-52.8689609470576	6.41668675438392	-2.49647216411818	-1.75746730313446	-0.00784650103283832	-0.0103837214186591
0.74	10.0353525006086	-0.324816925517091	725.127217831362	-52.9732805479678	6.43985787325987	-2.48830544844367	-1.75207704207569	-0.00780858667802048	-0.0102015626339796
0.75	9.97080523569373	-0.293530495810923	724.855619116575	-53.076183682917	6.46478512182066	-2.48024448711372	-1.74731735780233	-0.00776852212410277	-0.0100245287146788
0.76	9.90313146236615	-0.251705892080313	724.628844527772	-53.1792644020271	6.49181317740235	-2.47248594546401	-1.74325492376148	-0.00772607001409112	-0.00985227554113606
0.77	9.83419318477303	-0.199529709199388	724.462973074608	-53.2838984128082	6.52122727086129	-2.46520603841173	-1.73992615305743	-0.00768104916501475	-0.00968447368646314
0.78	9.7658464013749	-0.137627543624082	724.370387773569	-53.3911548617137	6.55323886610864	-2.45855072205339	-1.73733299931969	-0.00763333976403368	-0.00952082525184444
0.79	9.69986838406262	-0.0670393027903438	724.358941959508	-53.5017269641526	6.58797501510366	-2.45262659777608	-1.7354395689684	-0.00758288575074635	-0.00936107937282686
0.8	9.63788979245702	0.0108266501586929	724.431417991061	-53.6158858361949	6.62547194571287	-2.44749330339999	-1.73417006330108	-0.00752969452391596	-0.00920504567091043
0.81	9.58133461233842	0.0942582456911181	724.585313026591	-53.7334603452383	6.66567320521677	-2.44315812124131	-1.73340853846832	-0.00747383425025431	-0.00905260505040102
0.82	9.53137047164752	0.181319886132759	724.81296484394	-53.8538440875916	6.7084324288291	-2.4395734224919	-1.7330008849537	-0.0074154291510204	-0.00890371740637974
0.83	9.48887134482218	0.269943595055854	725.102008382375	-53.9760288321665	6.7535205458468	-2.43663739711243	-1.73275928991412	-0.00735465319348147	-0.00875842600860714
0.84	9.45439403691483	0.358025960539167	725.436132275567	-54.0986620586061	6.80063699163962	-2.43419830000512	-1.73246926539427	-0.00729172262088187	-0.0086168585454683
0.85	9.42816917436677	0.443525302139023	725.796085500384	-54.220124678259	6.84942427635495	-2.43206219355904	-1.73189911743486	-0.00722688772549354	-0.00847922503380968
0.86	9.41010675007063	0.524553456510412	726.160868584348	-54.338623758743	6.89948508372956	-2.43000390300748	-1.73081151336545	-0.00716042421820051	-0.00834581300325114
0.87	9.39981560501655	0.599456906492393	726.50903253761	-54.4522941602487	6.95040094575005	-2.42778064538612	-1.72897659685531	-0.0070926244898487	-0.00821698052474253
0.88	9.39663560340216	0.666882654400831	726.820002441674	-54.5593024930249	7.00175146771446	-2.42514756616995	-1.72618592227904	-0.00702378900718626	-0.00809314775235818
0.89	9.39968069594647	0.725825218944255	727.075341742863	-54.6579467514557	7.05313306654422	-2.42187423899332	-1.7222663493242	-0.00695421804786189	-0.00797478766957448
0.9	9.40789058823256	0.77565235145001	727.259877730008	-54.746745371425	7.10417623243796	-2.4177610688054	-1.71709296944367	-0.00688420395684135	-0.00786241666980905
0.91	9.42008835606652	0.816108438434595	727.362618063922	-54.8245102646903	7.15456042631501	-2.41265449808687	-1.71060013647648	-0.00681402409710707	-0.00775658545918688
0.92	9.43504109489757	0.847295989954625	727.377401917674	-54.8903995489239	7.20402587626526	-2.40645995423588	-1.70278974719925	-0.0067439346627103	-0.0076578705613304
0.93	9.45152056965798	0.869637008002445	727.30324638103	-54.9439471328187	7.25238172630321	-2.39915159255537	-1.69373606004311	-0.00667416551244097	-0.00756686645308484
0.94	9.46836085584637	0.883817290567896	727.14436819029	-54.985067931537	7.29951020910462	-2.39077807594279	-1.6835865420106	-0.00660491615887576	-0.00748417809733705
0.95	9.4845101382006	0.890717768925403	726.909881353709	-55.0140391665125	7.3453667486341	-2.38146387640454	-1.67255848012942	-0.00653635300512498	-0.00741041339904019
0.96	9.49907415902095	0.891337728687199	726.613191587885	-55.0314598291592	7.38997613527456	-2.37140586751165	-1.66093136601804	-0.00646860786005298	-0.00734617492733017
0.97	9.51134927480164	0.886715181243996	726.271127416362	-55.0381918486079	7.43342514153225	-2.36086528057121	-1.64903533971163	-0.00640177768737248	-0.00729205014960396
0.98	9.52084366838953	0.877849708480099	725.902864151462	-55.0352876993995	7.47585214725464	-2.35015539907055	-1.63723624102914	-0.00633592546467033	-0.00724859943346069
0.99	9.52728594557268	0.865632803611943	725.528709781505	-55.0239100351969	7.51743450734645	-2.33962564483526	-1.62591804432554	-0.00627108195758115	-0.00721634119888248
1	9.53062108179117	0.850790103807851	725.168830227253	-55.0052493824924	7.55837451196062	-2.32964294645783	-1.61546362956475	-0.00620724816443902	-0.00719573384233828
1.01	9.5309944312715	0.833839007802619	724.841994982931	-54.9804459456806	7.59888485159738	-2.32057146051884	-1.60623495777383	-0.00614439816746952	-0.00718715438990832
1.02	9.52872521773325	0.815064063960155	724.564422582981	-54.9505211635161	7.63917450341314	-2.31275182799677	-1.59855376568806	-0.00608248214253088	-0.007190874239656
1.03	9.52427154289925	0.794511283059695	724.348798716237	-54.916323848599	7.67943590012998	-2.30648118603253	-1.59268387158265	-0.00602142932881554	-0.00720703278701619
1.04	9.51818943035226	0.772001262502783	724.203528543326	-54.8784945955008	7.7198341330723	-2.30199511788007	-1.58881609561071	-0.00596115083471554	-0.00723561014849337
1.05	9.51108873038883	0.747159789854364	724.132269561988	-54.8374507422858	7.76049878372588	-2.29945261516658	-1.58705665128861	-0.00590154224326533	-0.00727640056529245
1.06	9.50358882175764	0.719463500660775	724.133773174721	-54.7933926149248	7.80151878489039	-2.29892495445371	-1.58741967114853	-0.00584248606479954	-0.00732898834015168
1.07	9.4962769498864	0.688297262009169	724.202043118741	-54.7463301852798	7.84294049669404	-2.30038916601315	-1.58982430219435	-0.0057838541508447	-0.00739272830583332
1.08	9.48967174747245	0.653019286102303	724.326798429252	-54.6961277444014	7.8847689598389	-2.30372651091919	-1.5940965598932	-0.00572551022031235	-0.00746673282150853
1.09	9.48419401865551	0.613029575397958	724.494208980672	-54.6425628417393	7.92697207435875	-2.30872609907248	-1.5999758773332	-0.00566731265066367	-0.00754986713541357
1.1	9.48014627391973	0.567837172183537	724.68785419701	-54.5853946623978	7.96948726212972	-2.31509349253403	-1.60712604244874	-0.00560911765296444	-0.00764075464365098
1.11	9.47770183152067	0.517121823313858	724.889841410738	-54.5244362839214	8.01223001872573	-2.32246386234723	-1.61514999302486	-0.00555078288649089	-0.00773779313319432
1.12	9.47690360966695	0.460786053234267	725.082010519127	-54.4596249216332	8.05510365533672	-2.33041901847332	-1.62360774683904	-0.00549217148591504	-0.00783918254968471
1.13	9.47767207776542	0.398994232080393	725.247146677712	-54.3910843594651	8.09800948089765	-2.33850742508231	-1.63203659094924	-0.00543315638447219	-0.00794296421258503
1.14	9.47982126374194	0.332195989469704	725.370123072265	-54.3191742642774	8.14085668043129	-2.34626615788219	-1.63997254572515	-0.00537362473241929	-0.00804707075098475
1.15	9.48308126541507	0.261132212810812	725.438901241493	-54.2445219599856	8.18357120539022	-2.35324366370377	-1.64697205947584	-0.00531348214251162	-0.00814938539303918
1.16	9.4871254106674	0.186822833919638	725.445326536788	-54.1680334316845	8.2261030986146	-2.35902214880451	-1.65263288008329	-0.00525265645146786	-0.00824780864887914
1.17	9.49160006227023	0.110536602176239	725.385670330736	-54.0908817564699	8.26843181975655	-2.36323845130231	-1.6566130905716	-0.00519110067366862	-0.00834032991464967
1.18	9.49615506304743	0.0337440211266653	725.260887487764	-54.0144727187671	8.31056930325703	-2.36560234141098	-1.65864738384406	-0.00512879484276199	-0.00842510112187433
