Time [s]	GRFml [N]	GRFap [N]	GRFv [N]	Mml [N.m]	Map [N.m]	Mv [N.m]	Mfree [N.m]	COPml [m]	COPap [m]
0.01	-2.60923731866172	0.505490628475584	524.317950224087	-8.49569817505219	31.5904239950849	0.288341917956819	-0.276566330612105	0.00157071445861368	-0.00208011719658585
0.02	-2.49862147225958	0.63341731122686	524.128394049074	-8.62021681193678	31.4985538670392	0.318224831214751	-0.315246751385442	0.0013260523740608	-0.00222790506410681
0.03	-2.40614475930647	0.754643142559229	523.969272331884	-8.73141847023432	31.418397937518	0.345386733487903	-0.350574832272075	0.00110801413490391	-0.00235680807458444
0.04	-2.35108065948189	0.862042908544337	523.877150446036	-8.81966287501556	31.3600396110076	0.368261117722924	-0.380288762051982	0.000936354315758225	-0.00245174321408781
0.05	-2.34567969164654	0.948831214045363	523.884857160755	-8.88137684301202	31.3285257388403	0.38651905903028	-0.403469961726821	0.000819035751119523	-0.00250680634278644
0.06	-2.39056188746851	1.00956929792782	524.011721571204	-8.91967832456815	31.3223913941755	0.400795680867962	-0.420403777832145	0.000750711652075187	-0.00252697959985926
0.07	-2.47181156684552	1.04150830967786	524.25269808158	-8.94292684688594	31.3337114997524	0.411967777851446	-0.431993788549352	0.000715157412518042	-0.00252680202721078
0.08	-2.56154126977196	1.04575019016721	524.571988351662	-8.96171863143903	31.3498151499464	0.420371177997448	-0.439054714026713	0.000690836262183803	-0.00252637943229805
0.09	-2.62295079442456	1.02763984488352	524.90611192139	-8.98533957485283	31.3563745096941	0.425380432869173	-0.441848824483629	0.000657811682842291	-0.00254584321959667
0.1	-2.61936586144801	0.996015112029072	525.17792040463	-9.0188230152922	31.3411554816979	0.425589322874876	-0.440084728574904	0.000603852515653758	-0.00259978607154893
0.11	-2.52502105133958	0.961360177152344	525.318303966439	-9.06150467445092	31.2974389998057	0.419526116288831	-0.433348338879697	0.000527913668093682	-0.0026931957119381
0.12	-2.33422896979907	0.93335895543972	525.288439359726	-9.10743455738011	31.226115146242	0.406565038343927	-0.421712009799902	0.000440072513879008	-0.00281997957333635
0.13	-2.06562519872436	0.918628705783963	525.09419873446	-9.14739274997949	31.1357631986779	0.387585748685577	-0.406177462900597	0.000358136911740026	-0.00296444175184146
0.14	-1.75950991663409	0.919398024307664	524.78651734742	-9.17177415850952	31.0405935162608	0.365035327130105	-0.388689760008783	0.000302134097724061	-0.00310524776896604
0.15	-1.46851368040495	0.933570809440719	524.446437502658	-9.17340632826308	30.9567760229892	0.342312597259386	-0.371669311223562	0.000288432050308374	-0.00322073247692489
0.16	-1.24411405687643	0.956112055546919	524.159365632052	-9.14948449310486	30.8982020617791	0.322700684388256	-0.357245283164215	0.000325201474037584	-0.00329406933049348
0.17	-1.1230625764653	0.981203573852298	523.987499638008	-9.10217295570379	30.8729368183901	0.308283353299669	-0.346526618676702	0.000410369585914894	-0.0033169173042164
0.18	-1.11794780197236	1.00434358847288	523.950556003091	-9.03787812476894	30.8814303229989	0.299301834795559	-0.339246713775901	0.000532381462621023	-0.00329065408335427
0.19	-1.21482142781698	1.0236136378119	524.022211497597	-8.96558009088817	30.9170114519509	0.294232789090982	-0.333964865164995	0.000673267763227958	-0.00322503286915871
0.2	-1.37850137614355	1.03968893378022	524.143948243598	-8.89480211679763	30.968460863241	0.290570785447071	-0.328769532091517	0.000812965839700697	-0.00313484159019589
0.21	-1.5636673523514	1.05468183129625	524.25135857374	-8.83377377379255	31.0237858453524	0.286006418174701	-0.322209032764665	0.00093367365369057	-0.00303567724074649
0.22	-1.72806311232729	1.07037593971096	524.302975287633	-8.78815976104476	31.073932560162	0.279525698949348	-0.31406882477235	0.00102320686693502	-0.00294012379523678
0.23	-1.84361639583445	1.08664485773845	524.300338014298	-8.76048480890484	31.1152063171656	0.271984022103319	-0.305665772960484	0.00107674767204435	-0.00285540288559244
0.24	-1.90219093187032	1.10076468727644	524.290923096982	-8.75018432146715	31.1496207709521	0.265914041571851	-0.299516519988916	0.00109685082372746	-0.00278303783536815
0.25	-1.91460721513625	1.10796348671586	524.351754489685	-8.75410736405234	31.1831100272997	0.264624942064787	-0.298481703704629	0.00109196729171701	-0.00272041100920317
0.26	-1.9038050758835	1.10305321939394	524.558718564565	-8.76729390700836	31.2222701044496	0.270921591754536	-0.304691811605707	0.0010739853269548	-0.00266351110355234
0.27	-1.89482291148313	1.08255555431295	524.952178149099	-8.78389859816676	31.2708001799702	0.285913141410872	-0.318645408739528	0.00105537051594662	-0.00260983487751576
0.28	-1.90509717107465	1.04652427718398	525.511380567477	-8.79818102952461	31.3269236684284	0.30834450819134	-0.338807851120956	0.00104645587602314	-0.00256041324484713
0.29	-1.93826081934655	0.999353568637268	526.147678071567	-8.80548758560899	31.3827538457668	0.334692942933495	-0.361857730562832	0.00105334438513072	-0.00252025368591874
0.3	-1.98333062202617	0.949200788689388	526.720567370099	-8.80311043619449	31.4259367753564	0.360002961705695	-0.383500939822822	0.00107677068289158	-0.0024970177831804
0.31	-2.01937609897263	0.906116522801156	527.07304456202	-8.79085943335022	31.4431604051267	0.379185772935924	-0.399582539310325	0.00111212536886784	-0.00249832355081153
0.32	-2.02401677581664	0.879403573711008	527.07626523856	-8.77117215181173	31.4244957721661	0.388367789732712	-0.407139471209013	0.0011506590845024	-0.00252851523922887
0.33	-1.9828982895468	0.874984806333937	526.670124739158	-8.74865129955301	31.3672255937689	0.385877432735267	-0.405076753245174	0.00118165426544681	-0.00258595371209364
0.34	-1.896971427571	0.89357361680699	525.887205367272	-8.72905597866813	31.2779137809264	0.372597769424592	-0.394294043289998	0.00119511616989054	-0.00266178555802643
0.35	-1.78501833134792	0.930211527481262	524.852282155391	-8.71794257589928	31.1719523544173	0.351628150782479	-0.377280896591423	0.00118436085584306	-0.00274076232007986
0.36	-1.68026464185571	0.975335450381239	523.756704681046	-8.71928757753428	31.0705506719893	0.327412863679518	-0.357366815027556	0.00114784179853467	-0.00280409572176904
0.37	-1.62170653999087	1.0170833078127	522.814239538082	-8.73446815790633	30.9958902683387	0.304637206191229	-0.337898142899111	0.00108970333982528	-0.00283370920496606
0.38	-1.64246880172399	1.04418060379816	522.210168667265	-8.76189865892568	30.9657287509576	0.287220422194265	-0.321593624191025	0.00101886307252108	-0.00281676787867108
0.39	-1.75859729308975	1.04858893134809	522.057142573475	-8.79743949600635	30.9889277731753	0.277653478057707	-0.310221895044309	0.000946827377396042	-0.00274919903779253
0.4	-1.96181740501033	1.02719341566705	522.369185104143	-8.83546745535755	31.0631443288587	0.276780665717522	-0.304599202305991	0.000884814234507703	-0.0026371313762053
0.41	-2.2188523334349	0.982126795243855	523.060163889916	-8.87029932701822	31.1753315841818	0.283970886730151	-0.304787292453637	0.000840974443365172	-0.00249574123554952
0.42	-2.47809468581749	0.919762448048649	523.9665457512	-8.8975612660252	31.304920465104	0.297523784896489	-0.310326292574142	0.000818487751848784	-0.00234574002474636
0.43	-2.68224297092071	0.848807631713144	524.888121861969	-8.91512749125692	31.4288214849952	0.315134673095783	-0.320375726104997	0.000815056273948622	-0.00220843784681185
0.44	-2.78359148037302	0.778158570944968	525.636112168578	-8.9234013537496	31.5269051748059	0.334290292761686	-0.333730032414562	0.00082389536609806	-0.00210074813232375
0.45	-2.7576154724569	0.71517317392924	526.076568675558	-8.92492460150236	31.5865187868418	0.352547787125952	-0.348771910223168	0.000835866141726482	-0.00203151500920246
0.46	-2.61072213845778	0.664794634126283	526.15852884159	-8.92349969686068	31.6048945401295	0.3677191044023	-0.363479376418817	0.000842059443391663	-0.00200014426277584
0.47	-2.37956992195847	0.629613895182424	525.920479842194	-8.92312664177344	31.5889063297975	0.378014179470223	-0.375587571219824	0.000836046351456177	-0.00199783232696971
0.48	-2.12180132556014	0.610620194852155	525.474354565289	-8.92705838632694	31.5523629667878	0.382184661400609	-0.382934190223872	0.000815183873209446	-0.00201093441165762
0.49	-1.90065899185751	0.608173674170516	524.972067316493	-8.93718484506411	31.5116834414539	0.379672297996252	-0.383923562981443	0.000780728815177545	-0.00202541921095195
0.5	-1.7679147241509	0.622708696985523	524.563994878395	-8.95381875587442	31.4812068700069	0.370727571463216	-0.37797194980747	0.000736916855650027	-0.00203108690477966
0.51	-1.75015856343488	0.654838645124104	524.360608206301	-8.97583777877267	31.469441587366	0.356445416368272	-0.365777294171193	0.000689452298069271	-0.00202433990923145
0.52	-1.84251620193605	0.704815773625756	524.407150134255	-9.0010738158689	31.4772461896697	0.338673646284624	-0.349298565410287	0.000643937461424882	-0.0020087465273983
0.53	-2.01157280116022	0.771595701411901	524.677234995134	-9.02683376792453	31.4983511038268	0.319780416169005	-0.33141628718489	0.000604657797365848	-0.00199329646123397
0.54	-2.20642194224987	0.851953391334548	525.085744125499	-9.05045973619778	31.5219401337518	0.302306098754821	-0.31534440085604	0.000573917421598735	-0.00198893348467594
0.55	-2.37427306703884	0.940119787724115	525.516073157863	-9.06985955262047	31.5364182108822	0.288558536834815	-0.303940200392341	0.000551903095878492	-0.00200447222086914
0.56	-2.47574937279927	1.02824476953371	525.853207679397	-9.08394332320014	31.5331715547391	0.280229918361543	-0.299090619130597	0.000536926378314706	-0.00204320379579148
0.57	-2.49528561621806	1.10770250273154	526.013207265229	-9.0928925129247	31.5091778284435	0.278115369086051	-0.301333321476963	0.000525877820586551	-0.00210129136370413
0.58	-2.44374700774411	1.17094590254773	525.961532045278	-9.09818415806487	31.4677293035568	0.281997904023958	-0.309808579667475	0.000514791045315377	-0.00216849316916068
0.59	-2.35292545881145	1.21339772616134	525.716487495074	-9.10231534432965	31.4171577299033	0.290733004786202	-0.322550839273382	0.000499494268247469	-0.00223099625247147
0.6	-2.26408114379284	1.23480995365929	525.338599739981	-9.10823283300586	31.3680862124853	0.302522252968503	-0.337039169757887	0.00047636058419287	-0.00227544925826312
0.61	-2.21439619691152	1.23964535219379	524.91057525709	-9.11856172715369	31.3301686890234	0.315317412409693	-0.350855925496215	0.000443125823848201	-0.00229289316772874
0.62	-2.2256115517734	1.23629327458181	524.514575220783	-9.13481778966355	31.3093736679596	0.327257976907238	-0.362272554616183	0.000399640822561054	-0.00228134408305003
0.63	-2.29818295373752	1.2352456800412	524.213389620112	-9.15684092412501	31.3066116346221	0.337031868771897	-0.37060223531265	0.000348322745962526	-0.00224625681855184
0.64	-2.41239165473286	1.24663866167011	524.039992384232	-9.18266679262437	31.3180054097109	0.344069784324887	-0.37622858295496	0.000294042918286275	-0.00219881149486695
0.65	-2.53562322203099	1.27773567902977	523.996764049277	-9.20894684299275	31.3365474019697	0.348534604836873	-0.380318892814119	0.000243288203047642	-0.00215265928318309
0.66	-2.63318119930651	1.33095236188158	524.062543480349	-9.23185684218683	31.3544687483477	0.351130396593882	-0.384327118715751	0.000202653955376442	-0.00212020540257463
0.67	-2.67906715640809	1.402900861777	524.203647268274	-9.24825586777845	31.3654901262536	0.352806206689726	-0.389452097596364	0.000176997443144922	-0.00210957254252164
0.68	-2.66336357173168	1.48470117223072	524.384609986539	-9.25674048812258	31.3662578090385	0.35444885763011	-0.396219002477184	0.000167788643121169	-0.0021230887635208
0.69	-2.59407818949368	1.5635269646687	524.575527366508	-9.25823589260476	31.3566173352358	0.356642390741633	-0.404298023203996	0.000172235845064317	-0.00215760728588016
0.7	-2.49313262443369	1.62508907948319	524.754857861963	-9.25588986409217	31.3388040273684	0.359532993380192	-0.412587933342366	0.000183590831390856	-0.0022063759633969
0.71	-2.38803145697488	1.65656359662399	524.908466419203	-9.25425085589101	31.3159865377982	0.362799412417639	-0.41950884605652	0.000192691855512517	-0.00226171257354069
0.72	-2.30207091665197	1.64937287840342	525.026853834556	-9.25794616469189	31.2907759808564	0.365708020421225	-0.423397852662461	0.000190395001998689	-0.00231753729096612
0.73	-2.24635032597867	1.601234386847	525.102620035187	-9.27024968495595	31.2642666155054	0.367232770064296	-0.422894844932697	0.000170219168568297	-0.00237091469586626
0.74	-2.21622588235348	1.51699933892834	525.129462360176	-9.2919808778296	31.2359371079227	0.366232468967569	-0.417234865369632	0.000130407293188362	-0.00242212546549569
0.75	-2.19339277097043	1.40800568325832	525.10292990702	-9.32108773693879	31.2044053549053	0.36168413954971	-0.406407229352207	7.47407064948247e-05	-0.002473307408704
0.76	-2.15294315235369	1.28995740334808	525.022288974395	-9.35306336877584	31.1687120178388	0.352959966302607	-0.391180317131089	1.18018747681248e-05	-0.00252621445948414
0.77	-2.07308889399405	1.17968434732309	524.892516252008	-9.38209275772157	31.1296139359176	0.340107368673446	-0.373013355725824	-4.71487214344091e-05	-0.00257997404108234
0.78	-1.94428257115582	1.09146667922019	524.725599943091	-9.40260469650129	31.0903599341477	0.324060328787702	-0.353882475819001	-9.108872527408e-05	-0.00262975722860898
0.79	-1.77454799445624	1.03382415534867	524.540719678284	-9.4107844668126	31.0565970244892	0.306694183246002	-0.336044587662668	-0.000112110221119677	-0.00266698369984131
0.8	-1.5889691819551	1.00766704462437	524.363188647135	-9.40562118304436	31.0353519269686	0.290651172019007	-0.321757650204161	-0.000107448405507249	-0.00268115042074807
0.81	-1.42317383089475	1.00642337232278	524.222143553685	-9.38920848424137	31.0333489348981	0.278914741068815	-0.312976162052009	-8.01277738733397e-05	-0.00266278060892849
0.82	-1.31270001236652	1.01822954247668	524.146959309861	-9.36623681767991	31.0551544715577	0.27418714450261	-0.311048788366079	-3.81101405859674e-05	-0.00260655191381975
0.83	-1.28166113359438	1.02963759023871	524.162464298664	-9.34283927795061	31.1017082486588	0.278204484933342	-0.31645893110454	7.74792419167003e-06	-0.00251354386409519
0.84	-1.33455566707659	1.02976432060454	524.28338598068	-9.32511709038147	31.1696938835553	0.29117626252387	-0.32866205489126	4.63199005940051e-05	-0.00239179231511072
0.85	-1.45418006917066	1.01359614948443	524.509010959995	-9.31773694194287	31.2519591339752	0.311536119847185	-0.346075857255538	6.87012393697506e-05	-0.00225486702932193
0.86	-1.60663204680617	0.983388665737633	524.819547879047	-9.32295289276844	31.3388980850483	0.336124600282138	-0.366261870192755	6.99463944459078e-05	-0.00211881437061334
0.87	-1.75198311964493	0.947722732316371	525.175814633103	-9.34027891180179	31.4204451001873	0.360804431233909	-0.386297054350874	4.96759775301392e-05	-0.00199832107719528
0.88	-1.85719401247678	0.918590481959242	525.523404704536	-9.36685972999771	31.4881741755041	0.381369414455544	-0.403279210060137	1.15041113021297e-05	-0.00190319638459774
0.89	-1.9069707401245	0.907573560469679	525.801407803338	-9.39840209526108	31.5369805639271	0.394499289385336	-0.414858712534579	-3.84462842558664e-05	-0.00183617529213215
0.9	-1.90885260632227	0.922457988435999	525.954317998992	-9.43038113267847	31.5659363986855	0.398480517565367	-0.419663530528041	-9.34408139303677e-05	-0.0017926602719987
0.91	-1.89070608206482	0.965382979019576	525.944432293345	-9.45916572477272	31.57812105182	0.393477494980311	-0.417501115951465	-0.000147855390157825	-0.00176246855526119
0.92	-1.89133387681067	1.03295442092235	525.761381338383	-9.48273523018385	31.5794792546762	0.381283497824226	-0.409280603760456	-0.000198212539959552	-0.00173309768807411
0.93	-1.94722966868611	1.11796529411399	525.425853526368	-9.50078639402613	31.5770032447726	0.364654859432011	-0.396684231039309	-0.000243250797750227	-0.00169360920988121
0.94	-2.07982275992184	1.21180135020626	524.986104910785	-9.51422444870489	31.5767190116035	0.346469714730651	-0.381697149402727	-0.000283066530291531	-0.00163805743462275
0.95	-2.287415947651	1.30649991187808	524.508034426386	-9.52424045675845	31.5820329632418	0.32900057761648	-0.366148114965975	-0.000317689482111638	-0.00156749613792906
0.96	-2.54447309441446	1.39577894046661	524.061633501775	-9.53132896360096	31.5929255759021	0.313529426943853	-0.351400942032552	-0.000345672689132437	-0.0014899604982353
0.97	-2.80848631389546	1.47495537450844	523.707667794398	-9.53463654700372	31.6062531893491	0.300389544525335	-0.338271129416904	-0.000363309390431055	-0.00141836943602225
0.98	-3.03216822399769	1.54021903691436	523.488079463429	-9.53192764235835	31.6170790718798	0.289348531436829	-0.327149227302434	-0.000364901772059611	-0.00136689718138705
0.99	-3.17700728933176	1.5879693143168	523.421989959966	-9.52023360058178	31.6205979368635	0.280120270533318	-0.318230933453927	-0.0003441401831491	-0.00134685745237589
1	-3.2238557625414	1.61477600603506	523.507058439503	-9.49698630118956	31.6139749792266	0.272760246841869	-0.311718887866829	-0.000296219842596868	-0.00136336309187424
1.01	-3.17728985309609	1.61810636262602	523.724231661766	-9.4612265093381	31.5974039312927	0.267769046782785	-0.307888032458614	-0.000219979634506928	-0.00141385918717429
1.02	-3.06260044202246	1.59749934803206	524.043290986209	-9.41440763942638	31.5739371666655	0.265869629630949	-0.306982468002457	-0.000119238393113119	-0.00148908307034568
1.03	-2.91670210153164	1.55559123250124	524.427198013162	-9.3604293378611	31.5480876353387	0.267573292131358	-0.30900159123509	-2.70210482955502e-06	-0.0015762228995817
1.04	-2.77616284262372	1.49841573156241	524.834624888271	-9.30480440197455	31.5236891908802	0.272744555641905	-0.31349557237541	0.000117718112212728	-0.0016632786953778
1.05	-2.66633128228066	1.43467828562446	525.221466858161	-9.25319278175769	31.5018375123106	0.280379545770035	-0.319496748013694	0.000229756301100448	-0.00174315247447843
1.06	-2.5949594721282	1.37409073126527	525.542875975526	-9.20979965269301	31.4797725502209	0.288727770875802	-0.325661324026363	0.000323913691135047	-0.00181600515973718
1.07	-2.55205049071928	1.32518259937662	525.757115170565	-9.17621957970283	31.451268365973	0.295750258328505	-0.330607253431336	0.000395786844720858	-0.00188895186256638
1.08	-2.51552452685392	1.29317136688304	525.831491871116	-9.15116938007809	31.4085602316955	0.29977197423912	-0.333346291377483	0.000446767789702429	-0.00197306798794417
1.09	-2.46044303059195	1.27845870322593	525.749320635568	-9.13123118733298	31.34525317877	0.300103417049491	-0.333657060101719	0.000482850551781433	-0.00207864338580305
1.1	-2.36855660062374	1.27617096964447	525.515883972728	-9.1123441412907	31.2592394621374	0.297403818186828	-0.332252387685556	0.000511976334937492	-0.00221030325650851
1.11	-2.2350988221369	1.27694247316298	525.161117100629	-9.09148920906044	31.1545673373442	0.29363569732886	-0.330656593972511	0.000540902374486674	-0.00236374981112403
1.12	-2.07087727701238	1.26888864833208	524.737329250914	-9.0679276504616	31.0414936957731	0.291590158412716	-0.330804204140606	0.000572759781180432	-0.00252539513992173
1.13	-1.89934341180673	1.24044887699389	524.311502037557	-9.04351799029958	30.9345252760118	0.294101233231454	-0.334466640860037	0.000606193345691897	-0.00267520816370909
1.14	-1.74987208867908	1.18351648838339	523.953217190012	-9.0219865664976	30.8489123084131	0.303171853468284	-0.342675151295443	0.000636357950932975	-0.00279201634749848
1.15	-1.64947459125463	1.09607553658638	523.720649671508	-9.00742443314796	30.7965805803956	0.319272103443952	-0.355316795817855	0.000657331950808859	-0.00285966483910965
1.16	-1.61538736874909	0.983527479033019	523.647927755705	-9.00257244312517	30.7827005601056	0.341031136805874	-0.371034346895252	0.000664983010986053	-0.00287212614576515
