Time [s]	GRFml [N]	GRFap [N]	GRFv [N]	Mml [N.m]	Map [N.m]	Mv [N.m]	Mfree [N.m]	COPml [m]	COPap [m]
0.01	17.6962067309173	-3.31652160411858	584.654615200415	-26.9444080239221	-7.27877183562909	0.682953876461513	1.45711226807155	-0.000581402669802588	0.000448310537588481
0.02	17.314029381505	-3.44197096887673	586.086926039356	-27.0114095846245	-7.27523428244385	0.705270392273637	1.46047887912782	-0.000544751283887009	0.000453856319722654
0.03	16.9390861886847	-3.56483022385541	587.438017913608	-27.0754179043153	-7.27139394419221	0.726767344511684	1.46341010180324	-0.000509691128623216	0.000460539419788041
0.04	16.5783687965239	-3.68226051494913	588.661042663611	-27.1355476787779	-7.26714503836747	0.746728216555131	1.46557767655562	-0.000476995971153955	0.000470516688163655
0.05	16.2383845265291	-3.79135373660777	589.714652477687	-27.191298516736	-7.26238966392501	0.764477779969695	1.46667404398734	-0.000447309310070648	0.000486173547289734
0.06	15.9249060139513	-3.8892280640169	590.565390843349	-27.2426126729624	-7.25704653671877	0.779413641216004	1.46643023812032	-0.000421117694022602	0.000510030326594364
0.07	15.6427593964916	-3.97313651925945	591.189639722029	-27.2899029766022	-7.25105953943491	0.791033677640626	1.46463149333815	-0.00039873458384586	0.000544632704758012
0.08	15.3956614630277	-4.04058474038624	591.574991650868	-27.334047189751	-7.24440554909708	0.798957898345687	1.46112956552143	-0.000380295082294674	0.000592430832594408
0.09	15.1861129368316	-4.0894523381828	591.720954587834	-27.3763475868315	-7.23710101112325	0.802943701606742	1.45585102841803	-0.000365761184838923	0.000655652875011008
0.1	15.0153514910563	-4.11811079251961	591.638942584407	-27.4184572397642	-7.22920676462184	0.802893973809258	1.44880111132213	-0.000354936664069504	0.000736179552400858
0.11	14.8833644374088	-4.12552996147831	591.351553485356	-27.4622770984624	-7.22083069014845	0.798857947696826	1.44006297265194	-0.000347490279800595	0.000835426684208752
0.12	14.7889575477551	-4.11136508666866	590.891182379091	-27.5098302579454	-7.21212784780436	0.791025177478967	1.42979263332145	-0.000342985683189653	0.000954242685067823
0.13	14.729873393283	-4.07601673560768	590.29806311441	-27.5631216208828	-7.20329789756842	0.779713368501668	1.41821009925175	-0.000340916130466084	0.00109282742475471
0.14	14.7029501059228	-4.02065740672181	589.617866851126	-27.6239923604462	-7.19457974005562	0.765351099918718	1.40558745869179	-0.00034074192326688	0.00125067786696331
0.15	14.7043097177551	-3.94722044080355	588.899013862072	-27.6939790791153	-7.18624347716354	0.748456687376561	1.39223492401418	-0.000341928346856582	0.00142656451519915
0.16	14.7295642907445	-3.85834927833362	588.189870916874	-27.7741873186802	-7.17857995895327	0.729614543568145	1.37848588164492	-0.000343981801028997	0.00161854101296553
0.17	14.774027922197	-3.75730777256702	587.536010665871	-27.8651881369584	-7.17188834476481	0.709450409005978	1.36468200894541	-0.000346481841781241	0.0018239873859034
0.18	14.8329233505759	-3.6478549855921	586.977701519108	-27.9669449123187	-7.16646225139604	0.688606751312123	1.35115941546698	-0.000349107010951063	0.00203968550173227
0.19	14.9015731877745	-3.53409042737557	586.547777474053	-28.0787754963649	-7.1625751778153	0.667719482054788	1.3382365819228	-0.000351652655180792	0.00226192348612599
0.2	14.975567621712	-3.42027783371564	586.270008867246	-28.1993524680983	-7.16046597427234	0.647396933315892	1.32620462739841	-0.000354039434398662	0.00248662418701097
0.21	15.0509025938995	-3.31065714432418	586.158059421163	-28.3267417271673	-7.16032515612692	0.628201792183732	1.31532016430826	-0.000356311873690703	0.0027094914282698
0.22	15.1240847759464	-3.20925521718467	586.215074966564	-28.458477180091	-7.16228284480922	0.610636431762755	1.30580073398018	-0.000358627068930036	0.00292616681655438
0.23	15.1922019673179	-3.11970594343281	586.433907776882	-28.5916669915182	-7.16639904953883	0.595131822985697	1.29782258327039	-0.000361234437484688	0.00313238931538787
0.24	15.252959653871	-3.04508981772041	586.797940448038	-28.7231249399167	-7.17265688738084	0.58203998118325	1.2915203671213	-0.000364448120040016	0.0033241497031001
0.25	15.3046862736812	-2.98780174341381	587.282437327021	-28.8495189490755	-7.18095918348009	0.571629710129363	1.28698825682964	-0.000368614203379063	0.00349783237941813
0.26	15.3463111430907	-2.94945403235702	587.856321823206	-28.9675279413311	-7.19112870879189	0.564085264699604	1.28428190213546	-0.000374075285689548	0.00365033774542387
0.27	15.3773199538794	-2.9308193538206	588.484256136585	-29.0739978132832	-7.20291211255449	0.559507466775855	1.28342073099847	-0.000381135019407198	0.00377917949480692
0.28	15.3976932559564	-2.93181597370639	589.128886961639	-29.166087568472	-7.21598740544762	0.557916777708008	1.2843901610465	-0.000390025152936567	0.00388255254507807
0.29	15.4078334204939	-2.95153518058676	589.75311686098	-29.2413974166747	-7.22997466089855	0.559257849547409	1.28714342394898	-0.000400877293775121	0.00395936891995047
0.3	15.4084852975936	-2.988308481474	590.322265907951	-29.2980718984097	-7.2444494388245	0.563405137063075	1.29160284979222	-0.000413701191478991	0.00400926058020132
0.31	15.4006552226551	-3.03981010085	590.806000991077	-29.3348727243774	-7.2589583080993	0.570169240604401	1.29766060523881	-0.000428370852444855	0.00403254990517111
0.32	15.3855322791036	-3.10318862916915	591.179929553463	-29.3512179246293	-7.27303575770079	0.57930375165209	1.30517901169051	-0.000444619302711956	0.00403019017284297
0.33	15.3644148845508	-3.17522040150633	591.42677891957	-29.3471859630741	-7.28622174462153	0.590512473582423	1.31399067613617	-0.000462042345116537	0.00400367990358916
0.34	15.3386449164316	-3.25247636762541	591.537110003614	-29.3234855676881	-7.29807912833691	0.603456976283008	1.32389873992756	-0.000480111228232561	0.00395495625909616
0.35	15.3095507995482	-3.33149383682148	591.509543336695	-29.2813940357483	-7.30821028279091	0.617764504138805	1.33467758517492	-0.000498193754472583	0.00388627376751344
0.36	15.27840028962	-3.40894451910651	591.350504309515	-29.2226685838248	-7.3162722507561	0.633036285838094	1.34607433400089	-0.000515582990703872	0.00380007542692047
0.37	15.246363130256	-3.48179070128164	591.073521774209	-29.14943682311	-7.32198990355105	0.648856289318457	1.35781143475235	-0.00053153239162127	0.00369886367462411
0.38	15.2144833416656	-3.54742215000017	590.698138356938	-29.0640735667936	-7.32516668206855	0.664800428592722	1.36959055621781	-0.000545295794712731	0.00358507875853839
0.39	15.183660606668	-3.60376738179493	590.248510909972	-28.9690718524421	-7.32569261347946	0.680446168039731	1.38109791278947	-0.000556170399392502	0.0034609916775816
0.4	15.1546400294989	-3.64937424139911	589.751794631245	-28.8669162471841	-7.32354941321317	0.695382394174079	1.39201102877229	-0.000563540521612015	0.00332861805419803
0.41	15.1280094251991	-3.68345624374966	589.236413903494	-28.7599661821787	-7.31881258675771	0.709219346958987	1.40200682813403	-0.000566919655133028	0.003189658068633
0.42	15.1042032207707	-3.70590281747211	588.730326507603	-28.6503562497053	-7.31165053542151	0.721598334646404	1.41077081678479	-0.000565988219481861	0.00304546595430744
0.43	15.0835119871084	-3.71725338591606	588.259385453343	-28.5399191357761	-7.30232074188259	0.732200908670656	1.41800701762021	-0.000560624383022219	0.00289705059320092
0.44	15.0660965550447	-3.71863707124898	587.845894413084	-28.4301352275755	-7.2911631652213	0.740757156024301	1.42344823279608	-0.000550925559130002	0.00274510656347857
0.45	15.0520055932674	-3.71168162863027	587.50743907599	-28.3221110295713	-7.27859101389279	0.747052779433324	1.42686615015986	-0.000537218604159458	0.0025900727193926
0.46	15.0411954461138	-3.69839691830768	587.256058369994	-28.2165864685641	-7.26507909368486	0.750934679545032	1.42808078632584	-0.000520057386539811	0.00243221319730021
0.47	15.0335509617932	-3.68103970126031	587.097797402934	-28.1139691055968	-7.25114995263256	0.752314822873949	1.42696876961916	-0.000500207200692646	0.00227171383153104
0.48	15.028906010159	-3.66196769416967	587.032659377306	-28.014391347632	-7.23735807327002	0.751172265554244	1.42347001094438	-0.000478616390560035	0.0021087855199861
0.49	15.0270624197322	-3.64349154495056	587.054948067011	-27.9177851066745	-7.22427240116529	0.747553295113652	1.4175923852785	-0.000456376430109961	0.00194376526923531
0.5	15.0278061787773	-3.62773361215492	587.153967283624	-27.8239671162604	-7.21245755245644	0.74156973931371	1.40941414382646	-0.000434672486594708	0.00177720559335103
0.51	15.0309199584031	-3.61650210060979	587.315020732074	-27.7327273868301	-7.2024541144408	0.733395562858896	1.39908388774342	-0.000414727089504838	0.0016099436931004
0.52	15.0361913272383	-3.61118820973892	587.520636335219	-27.643913128807	-7.19475854102539	0.723261922661491	1.38681804868165	-0.000397739900288765	0.00144314337459973
0.53	15.0434164220998	-3.61269252157413	587.751924893772	-27.5575009184861	-7.18980324395407	0.711450877445378	1.3728959297396	-0.000384826720800337	0.00127830486697966
0.54	15.0523992869085	-3.62138496884708	587.989974948506	-27.473650903102	-7.18793758224036	0.698287949057817	1.35765245506275	-0.00037696082366152	0.00111724037919191
0.55	15.0629475501704	-3.63710049812619	588.217184628538	-27.3927383660759	-7.18941054389816	0.684133716037302	1.34146885274981	-0.000374919489932521	0.000962016152822293
0.56	15.0748655292848	-3.65917013167782	588.418437318187	-27.3153598861695	-7.19435598137339	0.669374592746714	1.32476155280239	-0.000379238358581032	0.00081486464813816
0.57	15.0879461761967	-3.68648471072275	588.582040834196	-27.2423134743098	-7.2027812897981	0.654412919253262	1.30796962203149	-0.000390175875586622	0.000678073075111259
0.58	15.1019634673914	-3.71758635688035	588.700368612097	-27.174554284702	-7.21456039113357	0.639656467659022	1.29154108620256	-0.000407689799820041	0.000553856514312979
0.59	15.1166668578562	-3.75078079518454	588.770164793987	-27.1131295887943	-7.22943179625242	0.625507467811823	1.27591851270975	-0.000431427369281831	0.000444225188782732
0.6	15.1317792465462	-3.78426229453108	588.792501321155	-27.0590984947642	-7.24700235465704	0.612351274556164	1.26152425084766	-0.000460730319997689	0.000350855949025952
0.61	15.1469995439196	-3.81624221437893	588.772402120991	-27.0134432371745	-7.2667570677683	0.600544841573222	1.24874575541007	-0.000494655432784305	0.000274977705168038
0.62	15.1620104159434	-3.8450720640722	588.718175085885	-26.9769796339933	-7.2880750436782	0.590405230994838	1.23792145361687	-0.000532010617269969	0.000217279448500342
0.63	15.1764911498198	-3.86935258972529	588.640514693551	-26.9502744420937	-7.3102513234817	0.582198466963884	1.22932765184736	-0.00057140570964115	0.00017784777946632
0.64	15.1901349074409	-3.88802165041829	588.551454991064	-26.9335768235266	-7.33252393308917	0.57612912536442	1.22316700993478	-0.000611316182651778	0.000156138673496987
0.65	15.2026689767887	-3.90041542264596	588.463262860426	-26.9267700060152	-7.35410513642196	0.572331128916863	1.21955912652247	-0.000650156913464801	0.000150985760873232
0.66	15.2138760756595	-3.90629962642714	588.387364159527	-26.9293475784375	-7.3742155159913	0.570860273614713	1.21853376786624	-0.000686362140853918	0.00016064485836919
0.67	15.2236143771296	-3.9058698140564	588.333390288656	-26.9404168466902	-7.39211921558359	0.571689036576946	1.22002722457271	-0.000718466909907772	0.000182872035269337
0.68	15.2318337689745	-3.89972210526702	588.308420437909	-26.9587294608039	-7.40715847548686	0.574704196533453	1.2238821899815	-0.000745184793078587	0.000215030264702765
0.69	15.2385859652666	-3.88879789737829	588.316476328122	-26.9827373008027	-7.4187854968449	0.579707729736225	1.22985141973787	-0.000765476605856807	0.00025421781947519
0.7	15.2440264662775	-3.87430785503427	588.35830331062	-27.0106695666693	-7.4265897044341	0.586421324225269	1.23760526041513	-0.000778605262029414	0.000297410119353032
0.71	15.2484069918767	-3.8576417581474	588.431446275881	-27.040625329796	-7.43031864336114	0.594494687546401	1.24674293747227	-0.000784172822924364	0.000341605813400502
0.72	15.2520578443242	-3.84027147398956	588.530603184217	-27.0706746100826	-7.42989104153526	0.603517616054026	1.25680728504578	-0.000782137098676075	0.000383967565827863
0.73	15.2553606143824	-3.82365439001902	588.648215423182	-27.0989604404832	-7.4254009824347	0.613035561463122	1.26730239929169	-0.000772806710076863	0.000421948367603786
0.74	15.2587126379052	-3.80914412323261	588.775234665987	-27.1237944128589	-7.41711263800791	0.622568189633675	1.27771351937305	-0.000756815139017252	0.000453395244443162
0.75	15.262485538037	-3.79791428543372	588.901992115255	-27.1437388532026	-7.40544557762374	0.631630197067885	1.28752829874834	-0.000735075808375008	0.000476623945773511
0.76	15.2669809528073	-3.79089964912623	589.019089093347	-27.1576699842588	-7.39095125796823	0.639753451918	1.29625853289986	-0.000708721495181183	0.000490460480035294
0.77	15.2723870644446	-3.78875737207332	589.11822837712	-27.1648180853186	-7.3742818697643	0.646509376413478	1.30346136241004	-0.000679032302033523	0.000494248035811815
0.78	15.2787397533066	-3.79184916067316	589.192913291878	-27.1647826017415	-7.35615322934622	0.651530401045289	1.30875897301522	-0.000647356955745977	0.00048782065820735
0.79	15.2858920641193	-3.80024354339519	589.238955550314	-27.1575222169751	-7.33730381893506	0.654529307234858	1.31185586497404	-0.000615032382730083	0.000471447758775889
0.8	15.2934951974463	-3.81373593089305	589.254751758595	-27.1433218970865	-7.31845236766608	0.655315338397337	1.31255285913982	-0.000583306373747121	0.000445755844823315
0.81	15.3009934610983	-3.83188297708242	589.241310598479	-27.1227406812884	-7.30025650345459	0.653806096980996	1.31075714179037	-0.000553267756123488	0.000411635515816904
0.82	15.3076346009515	-3.85404700664825	589.202035864039	-27.0965453758222	-7.28327498156855	0.650034449089459	1.30648781884743	-0.000525787896582095	0.000370142618568763
0.83	15.3124957678229	-3.87944597755717	589.14229265902	-27.0656362048271	-7.26793580865055	0.644149915563039	1.29987664578863	-0.000501476608456607	0.00032240240364579
0.84	15.3145241696346	-3.90720459590142	589.068803160342	-27.0309708193384	-7.25451224175529	0.636414322118803	1.29116381416833	-0.000480654666967064	0.00026952461553232
0.85	15.3125903117321	-3.93640274592623	588.988932758621	-26.9934928544063	-7.24310817233012	0.627191792384366	1.28068889975575	-0.000463344172851713	0.000212535812434307
0.86	15.3055507405091	-3.96611825503844	588.909935898751	-26.9540704952766	-7.23365383570888	0.616933476889262	1.26887730044115	-0.000449276978317471	0.000152333062769128
0.87	15.2923164567018	-3.99546206957724	588.838232931099	-26.9134493525413	-7.22591215525997	0.606157699647506	1.25622270350978	-0.000437920341815091	8.96607671763833e-05
0.88	15.2719227109284	-4.02360504476424	588.77878472846	-26.8722224746185	-7.21949537861149	0.595426455269986	1.24326631137943	-0.000428517967043438	2.5109980949338e-05
0.89	15.2435957632365	-4.04979662264682	588.734621307831	-26.830818688075	-7.21389103423391	0.585319389879209	1.23057371338946	-0.000420143677519797	-4.08624899756807e-05
0.9	15.2068123797172	-4.07337656824155	588.706565333497	-26.7895088047447	-7.2084956709176	0.576406538175078	1.21871041135986	-0.000411764255903136	-0.000107899583323363
0.91	15.1613483249564	-4.09378156419068	588.693172698415	-26.7484277156212	-7.20265437621009	0.56922116019576	1.20821708292369	-0.000402307502736629	-0.000175699482177528
0.92	15.1073128390193	-4.11054876995851	588.690892177017	-26.7076091318175	-7.19570373111508	0.564234021719058	1.19958569540246	-0.000390731385008929	-0.000243966970655721
0.93	15.0451669950029	-4.12331841487459	588.694426296334	-26.6670288287076	-7.18701566647259	0.561830392581843	1.19323756221139	-0.000376090260216703	-0.000312366327996277
0.94	14.9757248413608	-4.13183713854269	588.697257878335	-26.6266517591149	-7.17603965028032	0.562290901676044	1.18950436296334	-0.000357594549063001	-0.000380480780384058
0.95	14.9001372629609	-4.13596317863949	588.692292706608	-26.5864783422213	-7.16234075308056	0.565777193510743	1.1886130287104	-0.000334660830304458	-0.000447782486864175
0.96	14.8198594710847	-4.13567372649981	588.672559617746	-26.546585583428	-7.14563139879224	0.572323089497677	1.19067522813342	-0.00030695006521792	-0.000513615756206579
0.97	14.736603890434	-4.13107393566104	588.631905678382	-26.5071593775092	-7.1257949907996	0.58183168056759	1.19568198427045	-0.000274392442825983	-0.00057719481612465
0.98	14.6522809007965	-4.12240629382235	588.565626114181	-26.4685153059785	-7.10290008084524	0.594078481369058	1.20350371256413	-0.000237198097338114	-0.000637616112108622
0.99	14.5689303807184	-4.1100584621551	588.470975907866	-26.4311063549424	-7.07720429008959	0.608720476331152	1.21389571046737	-0.000195853635325658	-0.000693883906494053
1	14.4886472783695	-4.09456733391096	588.347521604769	-26.3955171410592	-7.04914776444603	0.625310600686193	1.22650886008997	-0.0001511049982338	-0.000744946960050362
1.01	14.4135045079164	-4.07661702139857	588.197306607258	-26.3624453352698	-7.0193365172493	0.643316940649942	1.24090504383822	-0.000103927677579952	-0.000789743361815774
1.02	14.3454763620544	-4.05702876290508	588.024819616366	-26.3326719271058	-6.98851655116343	0.662145719809586	1.25657653486078	-5.54857151446441e-05	-0.000827250153778332
1.03	14.2863653795811	-4.03674132505996	587.836772321153	-26.3070227106449	-6.95754013164579	0.681166973777701	1.27296842470018	-7.08128538396725e-06	-0.000856534273867691
1.04	14.2377352554495	-4.01678130028047	587.641707454621	-26.2863238589204	-6.92732598485959	0.699741708913605	1.28950300270306	3.9903004964861e-05	-0.000876801487193102
1.05	14.2008519760513	-3.99822367245425	587.449470667657	-26.2713546785747	-6.89881549762849	0.71724929579345	1.30560491437724	8.40666445901337e-05	-0.000887440344134044
1.06	14.1766349473846	-3.98214403761736	587.270588403816	-26.2628006194851	-6.87292719511187	0.733113862480449	1.32072590302574	0.000124055821768032	-0.000888058732197959
1.07	14.1656194924175	-3.96956480576652	587.115598593524	-26.2612093950863	-6.85051185752173	0.746828521432565	1.33436797953996	0.000158627109988353	-0.000878511206248503
1.08	14.1679317481754	-3.96139846969807	586.994381479544	-26.2669527018472	-6.83231060894749	0.757976379599362	1.34610396347644	0.000186707086944481	-0.000858915919157377
1.09	14.1832767001166	-3.95839152299548	586.91553460843	-26.2801955693686	-6.81891817159829	0.766247435229287	1.35559448529715	0.000207444722361479	-0.000829660571342559
1.1	14.2109398439188	-3.96107278922379	586.885829692267	-26.300874880556	-6.81075323336607	0.771450648475028	1.36260072382351	0.000220253532187012	-0.000791397307957908
1.11	14.24980274284	-3.96970977180215	586.909780610744	-26.3286881180569	-6.80803753468849	0.773520678336859	1.36699236309448	0.000224840865631794	-0.000745026892108362
1.12	14.2983725233431	-3.98427616978052	586.989342334881	-26.3630929465543	-6.81078485467987	0.772518999529404	1.36875047840108	0.000221222274987182	-0.000691672769147493
1.13	14.3548250899559	-4.00443298263791	587.123751023934	-26.4033178409298	-6.81880058230529	0.768629344539023	1.36796529336493	0.000209719698642686	-0.000632645829705937
1.14	14.4170615120431	-4.0295247258623	587.309506831939	-26.4483836117648	-6.83169201556839	0.762147654233583	1.36482898122805	0.000190943122749577	-0.000569400813141482
1.15	14.4827766187426	-4.05859129117971	587.540493668235	-26.4971353441483	-6.84888896357704	0.753466960439683	1.35962390777708	0.000165756412643764	-0.000503485413890184
1.16	14.5495383266779	-4.09039500590724	587.808224597505	-26.5482839294915	-6.86967365976786	0.743057860151812	1.35270692444738	0.000135229043024961	-0.000436483307081813
1.17	14.6148756297644	-4.12346156113438	588.102197748987	-26.6004560107988	-6.89321845918699	0.731445465503409	1.34449051131187	0.000100576421670042	-0.000369952534824483
