Time [s]	GRFml [N]	GRFap [N]	GRFv [N]	Mml [N.m]	Map [N.m]	Mv [N.m]	Mfree [N.m]	COPml [m]	COPap [m]
0.01	2.23227372587955	-0.989590476249407	562.428026207562	-48.343027541016	-3.22999914504532	-4.55203040394787	-4.36591774440771	-0.00136154561753137	0.00496348618771637
0.02	2.14294903875121	-0.793330212922178	562.967614090599	-48.0814738202732	-3.14096544765101	-4.55778642421933	-4.37923745249498	-0.00119944137065736	0.00443368603779132
0.03	2.05716016757333	-0.59906616522173	563.493914412383	-47.8254730177547	-3.05409399987831	-4.5637819534063	-4.39245561534955	-0.00104114959843886	0.00391469555963192
0.04	1.97726431966743	-0.409556916649184	563.996401276779	-47.5802318082222	-2.97135012586106	-4.57009846180414	-4.40545488778593	-0.000890227665744159	0.00341719053523545
0.05	1.90542738287854	-0.227435074147848	564.465508048614	-47.350608140292	-2.89455408129194	-4.57681867387799	-4.41813918294124	-0.00074997670066543	0.00295116120018149
0.06	1.84351726871936	-0.0551326469085986	564.893044917156	-47.140916623137	-2.82530314484233	-4.58401933933002	-4.430434499012	-0.000623299683053006	0.00252549392131438
0.07	1.79301045501517	0.105185770940753	565.272541204668	-46.9547626883713	-2.76490686669943	-4.59176350035065	-4.44228778212507	-0.00051258275574716	0.00214760975421013
0.08	1.75491721972082	0.251679841460739	565.599493135543	-46.7949138625672	-2.71433892375769	-4.60009272751911	-4.45366407198387	-0.000419606153557075	0.0018231806831094
0.09	1.72973007899947	0.382878584014647	565.871504115933	-46.6632139639243	-2.67420776760627	-4.6090198594299	-4.46454233306832	-0.000345488923046691	0.00155593890742498
0.1	1.71739866157718	0.497712447806409	566.08831160955	-46.5605432614293	-2.64474690657644	-4.6185228057997	-4.47491046919638	-0.000290669216164222	0.00134758799494981
0.11	1.71733274021088	0.595531586810822	566.251701914194	-46.4868248135084	-2.62582434716437	-4.62853995364995	-4.48476004876686	-0.000254919572224842	0.0011978176782929
0.12	1.72843349308805	0.676110103539248	566.365321043559	-46.4410745275501	-2.6169695295708	-4.63896764906674	-4.49408123922734	-0.000237394423353555	0.00110441716559674
0.13	1.74915138959816	0.739636549788911	566.434396045247	-46.4214901172757	-2.61741510415774	-4.64966011574289	-4.50285837770281	-0.00023670520692654	0.00106347566280764
0.14	1.77756749749741	0.786691453313508	566.465386059236	-46.425572212311	-2.62615016485495	-4.66043202321676	-4.51106650925049	-0.000251017049617102	0.0010696538451305
0.15	1.81149359966526	0.818213057723248	566.465585957936	-46.4502694837336	-2.6419811121134	-4.67106374341	-4.51866912260943	-0.000278160069060211	0.00111650659376776
0.16	1.84858538422103	0.835452804967142	566.442707337476	-46.4921388385917	-2.663596167898	-4.68130914741238	-4.52561721846528	-0.00031574794998062	0.00119683557421472
0.17	1.88646220842059	0.839922349843467	566.404461895493	-46.547511511613	-2.68962969223069	-4.69090561054241	-4.53184976338487	-0.000361296582533467	0.00130305014198376
0.18	1.9228265861805	0.833334076205991	566.358170894785	-46.6126562118062	-2.71872281995327	-4.69958572754651	-4.53729551355166	-0.000412336155931618	0.00142751643957133
0.19	1.95557663396244	0.817537193028877	566.310421642257	-46.6839313014876	-2.74957749841914	-4.70709010492151	-4.54187613166113	-0.000466511102555784	0.00156287710748468
0.2	1.98290522200977	0.794451537086014	566.266787964882	-46.757919206612	-2.78100170335078	-4.71318050454846	-4.54551046163156	-0.000521663583714443	0.00170232742799176
0.21	2.00338047940966	0.766001210451425	566.231626861676	-46.8315377744256	-2.81194437889244	-4.71765256923357	-4.54811976426746	-0.000575897678624659	0.00183983759905686
0.22	2.01600352706908	0.734050146328183	566.207958215523	-46.9021249929751	-2.84151942793558	-4.72034736929772	-4.54963365126888	-0.000627622957632579	0.00197031487225999
0.23	2.02024077567923	0.700341632792662	566.197429035833	-46.9674952515345	-2.86901881473798	-4.72116106872649	-4.54999638804803	-0.000675577569033178	0.00208970321032019
0.24	2.01602972455778	0.666443732228247	566.200358532673	-47.0259670422192	-2.89391548753154	-4.72005211441012	-4.54917317484502	-0.000718832241862444	0.00219502171909303
0.25	2.00375882345091	0.633702409773881	566.215855716485	-47.0763635834767	-2.9158573497496	-4.71704549436468	-4.54715597044385	-0.000756777625247564	0.00228434623998888
0.26	1.98422350568587	0.60320401699618	566.241997437592	-47.1179892047638	-2.93465388328614	-4.71223378006198	-4.54396840372157	-0.00078909809936755	0.00235674105889452
0.27	1.95856186907887	0.575748553957538	566.2760520161	-47.1505854072263	-2.95025724766734	-4.70577485248909	-4.53966933387622	-0.000815735587380229	0.00241214964416128
0.28	1.92817458773739	0.551834840558432	566.314731973478	-47.1742712678709	-2.96273974942289	-4.69788639949036	-4.53435467524607	-0.000836846985988407	0.00245125464474064
0.29	1.8946344208632	0.531658356798924	566.354458886036	-47.1894732670213	-2.97226951117338	-4.68883745206397	-4.52815719686354	-0.000852758654076365	0.00247531805663323
0.3	1.85959110514596	0.515122059115475	566.391623981459	-47.1968496947694	-2.9790859930815	-4.67893738948015	-4.52124413458402	-0.000863921011006401	0.00248601251616272
0.31	1.82467746179674	0.501859954198526	566.422829665601	-47.197214555411	-2.98347675876298	-4.66852297876309	-4.5138126043286	-0.000870865764481009	0.00248525413640686
0.32	1.79142222896033	0.491272632512628	566.445099515051	-47.191465380185	-2.98575656431015	-4.65794411640772	-4.50608296490796	-0.000874167678531749	0.00247504622541127
0.33	1.76117447924738	0.482573362447448	566.456047180504	-47.1805186320513	-2.98624951310904	-4.64754900429555	-4.49829043294741	-0.00087441216490968	0.00245734169394278
0.34	1.73504355406547	0.474842763115219	566.453997877442	-47.1652555048752	-2.9852746881679	-4.63766951479971	-4.4906753862649	-0.000872169384512855	0.00243393008413845
0.35	1.71385731015807	0.467089554867844	566.438059456065	-47.1464799509576	-2.98313537061001	-4.62860748134274	-4.48347289389578	-0.000867975014723739	0.00240635305733028
0.36	1.69814020836174	0.458314477085976	566.408143222684	-47.1248897830631	-2.98011169491414	-4.62062259169004	-4.47690207287151	-0.000862317395537461	0.00237585001175566
0.37	1.68811146398061	0.447574202387725	566.364937543642	-47.1010607534565	-2.97645638927244	-4.61392246567356	-4.47115589027019	-0.000855630422397823	0.00234333340352422
0.38	1.68370220571015	0.434041993921617	566.309839656587	-47.075442668583	-2.97239310788224	-4.6086553725076	-4.46639200458909	-0.000848291308018963	0.00230939145236761
0.39	1.68458943342204	0.417061961920816	566.244852946593	-47.0483658988335	-2.9681167805372	-4.60490589280421	-4.46272517726536	-0.000840622184371673	0.00227431434184766
0.4	1.69024359193436	0.396194074602359	566.172458167935	-47.0200561206289	-2.9637953786459	-4.60269366561754	-4.46022168979176	-0.000832894451104386	0.00223813885653744
0.41	1.6999858419718	0.371247547781655	566.095467703274	-46.9906548016047	-2.95957251777938	-4.60197519100282	-4.45889608235647	-0.000825334787807214	0.00220070568554795
0.42	1.71305064832795	0.342300844199	566.016871985989	-46.9602428141565	-2.95557037517076	-4.60264849358189	-4.4587103947899	-0.000818131823743649	0.00216172337487532
0.43	1.72864913829639	0.309707214520527	565.939686735367	-46.9288646303518	-2.95189248570243	-4.60456030199829	-4.45957594819486	-0.000811442588465224	0.00212083310748577
0.44	1.74602881187322	0.274085459336182	565.866808757547	-46.896550793111	-2.94862608155559	-4.60751527148833	-4.46135756387283	-0.00080539803795247	0.00207766907677229
0.45	1.76452559242984	0.236296337488727	565.800886850896	-46.863336745859	-2.94584374963193	-4.61128667920967	-4.46387998240501	-0.000800107150638221	0.00203191011980827
0.46	1.78360485976007	0.197405747708778	565.744212931713	-46.8292765994029	-2.94360428934126	-4.61562795978428	-4.46693612687884	-0.000795659302108421	0.00198331940039348
0.47	1.80288896019109	0.158636432839224	565.698636971779	-46.7944509794716	-2.94195275529127	-4.62028442502978	-4.47029675664486	-0.000792124842211473	0.00193177017999391
0.48	1.82216968376247	0.121310473848381	565.665507811776	-46.7589686877039	-2.9409197602987	-4.62500452818551	-4.47372098732829	-0.000789553999739405	0.00187725698970147
0.49	1.84140527210564	0.0867852394796786	565.64564046849	-46.7229624797901	-2.94052019077737	-4.62955008789507	-4.47696711368558	-0.000787974414945023	0.00181989272780571
0.5	1.86070260488155	0.0563857309513427	565.639309255983	-46.6865797769853	-2.94075154675413	-4.63370497723896	-4.47980316720462	-0.000787387738311869	0.00175989327740221
0.51	1.88028623999253	0.0313364106660616	565.646264938552	-46.6499695469766	-2.9415921610242	-4.63728190238926	-4.48201667079596	-0.00078776582767519	0.00169755210482622
0.52	1.90045688976488	0.0126956346287086	565.665773252977	-46.6132668906505	-2.94299957527132	-4.64012703611228	-4.48342311661517	-0.000789047121164459	0.00163320791942204
0.53	1.92154264589117	0.00129572687653656	565.696671486949	-46.5765770356814	-2.94490935475255	-4.64212242390146	-4.48387278543964	-0.000791133760472225	0.00156720882471062
0.54	1.94384677483555	-0.00230845321152984	565.737439371235	-46.5399604594759	-2.94723460727167	-4.64318623452998	-4.48325564018421	-0.00079388999111983	0.00149987646618228
0.55	1.96759616076828	0.00212011116342037	565.786280314736	-46.5034207466962	-2.94986643717786	-4.64327107157377	-4.48150415343192	-0.000797142279951687	0.00143147349526204
0.56	1.99289445842199	0.0144734456224365	565.841208956891	-46.4668965439286	-2.95267551242102	-4.64236068780883	-4.47859405973253	-0.000800681473186681	0.00136217725134787
0.57	2.01968373348527	0.034286357467523	565.900141101509	-46.4302586279014	-2.95551485468518	-4.64046554142906	-4.47454314834728	-0.000804267180048117	0.00129206195537655
0.58	2.0477178296329	0.0607402501961678	565.960982303054	-46.3933126823067	-2.95822388280607	-4.63761769473678	-4.46940832239603	-0.000807634416422793	0.00122109095933258
0.59	2.07654994083296	0.0926834487618393	566.021711678387	-46.355807914313	-2.96063365256945	-4.63386557765949	-4.46328123879105	-0.000810502388815378	0.00114911976246736
0.6	2.10553593055125	0.128667791562126	566.080457897678	-46.3174511699244	-2.96257314689647	-4.62926911816904	-4.45628290464517	-0.000812585148954428	0.00107590964538325
0.61	2.13385388236762	0.167000495172143	566.135564756796	-46.2779257618807	-2.9638763851657	-4.62389568037216	-4.4485576368988	-0.000813603710935908	0.0010011509458514
0.62	2.16053925393745	0.205809543947887	566.185644242128	-46.2369138369091	-2.96439004493041	-4.61781715266794	-4.44026679180445	-0.000813299102421355	0.000924494260267861
0.63	2.18453390759463	0.243120137906221	566.229615560572	-46.194120808529	-2.96398122921171	-4.61110839986758	-4.43158264087487	-0.000811445725510866	0.000845587250768082
0.64	2.20474627680298	0.27693909119761	566.266729213097	-46.149300188783	-2.96254497280203	-4.60384714421488	-4.42268271319516	-0.000807864337601125	0.00076411430982988
0.65	2.22011906599936	0.305343552192666	566.296575826322	-46.1022770809931	-2.96001106536686	-4.59611518275503	-4.41374484571713	-0.000802433933389659	0.000679836109506587
0.66	2.22970023321418	0.326570052695212	566.319080103944	-46.0529686509152	-2.95634977981654	-4.58800069591599	-4.40494309001509	-0.000795101820644862	0.000592626055028841
0.67	2.23271262035552	0.339099718272637	566.334480894112	-46.0014000711752	-2.95157613184671	-4.5796012684497	-4.39644452403105	-0.000785891236957864	0.000502500870788791
0.68	2.22861751048917	0.341735503668367	566.34329896105	-45.9477147202874	-2.94575235917923	-4.57102714231557	-4.38840691953276	-0.00077490595225347	0.00040964295346306
0.69	2.21716762177781	0.333667563643873	566.346294568251	-45.8921777914275	-2.93898839342736	-4.56240416295871	-4.38097712962851	-0.000762331438907801	0.000314412700532077
0.7	2.19844558993664	0.314523323907723	566.344417395398	-45.8351728996346	-2.93144019853571	-4.55387587371807	-4.37428999454687	-0.00074843236095517	0.000217349718961229
0.71	2.1728848188098	0.284399459458514	566.338751593995	-45.7771917372536	-2.92330596099838	-4.54560426133206	-4.3684675254022	-0.000733546325937923	0.000119162586073515
0.72	2.14127064372427	0.243873787356247	566.330458915471	-45.718817282589	-2.91482023136903	-4.53776875701652	-4.36361811980971	-0.000718074044916011	2.07076161464897e-05
0.73	2.10472098674493	0.193995996706985	566.320722807172	-45.6607014833701	-2.90624622661224	-4.53056324522737	-4.35983559163045	-0.000702466244238874	-7.70421742925798e-05
0.74	2.06464700353383	0.136257122799467	566.310696163584	-45.6035386856654	-2.89786660169694	-4.52419101373763	-4.35719785750703	-0.000687207853254914	-0.000173036063930571
0.75	2.02269553544348	0.0725386736460774	566.301455052537	-45.5480363369264	-2.88997308053715	-4.51885777771421	-4.35576520879351	-0.000672800143042594	-0.000266190240207978
0.76	1.98067639268678	0.00504328424811451	566.293960231767	-45.4948846427408	-2.88285539631369	-4.51476310821248	-4.35557819895221	-0.000659741602916125	-0.000355435343887101
0.77	1.94047851530314	-0.063790341726226	566.289027664968	-45.4447268927874	-2.87679002629955	-4.51209077251177	-4.35665528088336	-0.000648508407593095	-0.000439764110108237
0.78	1.90397981158232	-0.131384684341545	566.287308583012	-45.3981320932168	-2.87202921514582	-4.51099863215226	-4.35899042234843	-0.000639535345753553	-0.000518276315653612
0.79	1.87295590172165	-0.195128737349774	566.28927896635	-45.3555713593568	-2.86879076335088	-4.51160883010453	-4.36255099782041	-0.000633198050915214	-0.000590218470967241
0.8	1.84899306570535	-0.252486888381791	566.295237701812	-45.3173992507224	-2.86724901599537	-4.51399902201394	-4.36727629149375	-0.000629797301723443	-0.000655016086845622
0.81	1.83341040443752	-0.301106615433751	566.305312141264	-45.2838408920427	-2.8675274237564	-4.51819536477662	-4.3730769425799	-0.000629546046956805	-0.000712296866890338
0.82	1.82719559610181	-0.338920270666502	566.319469403303	-45.2549853455206	-2.86969296781938	-4.52416787197446	-4.37983561905469	-0.000632559668667156	-0.000761903787258808
0.83	1.8309577159505	-0.364236437280751	566.337531542795	-45.2307853086362	-2.87375264760874	-4.5318285888884	-4.38740912341604	-0.000638849834083692	-0.000803897679872795
0.84	1.8448994596011	-0.375816759358406	566.359192681475	-45.2110628358657	-2.87965213094734	-4.54103284362314	-4.39563202197093	-0.000648322113174298	-0.000838549587864737
0.85	1.86880985544757	-0.372934739916314	566.384036343501	-45.1955204466125	-2.88727656637417	-4.55158361224607	-4.40432175929356	-0.000660777364333655	-0.000866323768710903
0.86	1.90207726695584	-0.355413754091796	566.411551552755	-45.1837567061269	-2.89645346292268	-4.56323881320033	-4.41328508523084	-0.000675916725602037	-0.000887852742481807
0.87	1.94372126599928	-0.323642401784173	566.441146687651	-45.1752851664263	-2.90695745925807	-4.57572113776296	-4.42232549679755	-0.000693349902398385	-0.000903906188871831
0.88	1.9924408909625	-0.27856629202785	566.47216060586	-45.1695554391315	-2.91851673635885	-4.58872984526273	-4.43125129371922	-0.000712606322885431	-0.000915355765507692
0.89	2.04667595911561	-0.221656371085813	566.503871089542	-45.1659751440783	-2.93082077924621	-4.601953817224	-4.43988377378928	-0.000733148644690772	-0.000923138040275953
0.9	2.10467753114363	-0.154854936255739	566.53550116382	-45.1639315326117	-2.94352916528394	-4.61508508252111	-4.44806505868413	-0.000754388045111461	-0.000928217701550008
0.91	2.16458335108277	-0.0805014744153754	566.566224254127	-45.1628117130832	-2.95628104909742	-4.62783200041492	-4.45566504475392	-0.000775700711451835	-0.00093155304195279
0.92	2.22449410575174	-0.00124138440821753	566.59516942863	-45.1620205941662	-2.96870502512627	-4.639931319857	-4.46258701537785	-0.000796444965904465	-0.000934065422461577
0.93	2.28254663840254	0.0800785578300549	566.621428091781	-45.1609958918787	-2.98042907451379	-4.6511584174115	-4.46877152757823	-0.000815978504495383	-0.000936614040370723
0.94	2.3369807660051	0.160523493708676	566.644063442912	-45.1592197996467	-2.9910903385155	-4.66133514483736	-4.47419828937422	-0.000833675293756382	-0.00093997687813048
0.95	2.38619702835025	0.237187596242668	566.662123796615	-45.156227178145	-3.00034450035177	-4.67033488048558	-4.47888586807207	-0.000848941742175608	-0.000944838234286538
0.96	2.42880347269166	0.307309847179791	566.674660503519	-45.1516103650405	-3.00787459602971	-4.67808456421236	-4.48288920487719	-0.000861231836117803	-0.000951782766685949
0.97	2.4636503823352	0.368383345410285	566.680750748957	-45.1450209186048	-3.01339910756536	-4.68456369071463	-4.48629504924937	-0.000870060992960679	-0.000961295543535565
0.98	2.48985262988647	0.41825328831405	566.679524990937	-45.136168781297	-3.01667921615944	-4.68980042829631	-4.48921555888317	-0.000875018431252447	-0.000973767227151701
0.99	2.50680002536705	0.455199280222273	566.670198279824	-45.1248194716483	-3.0175251070122	-4.6938652070327	-4.49178043012723	-0.000875777885728964	-0.000989503229601466
1	2.51415660006398	0.477998351314497	566.652104230902	-45.1107899810933	-3.01580122241282	-4.69686227141211	-4.4941280218107	-0.000872106504839016	-0.00100873549294042
1.01	2.51185019842722	0.485965980329128	566.62473004116	-45.0939440668726	-3.01143035816109	-4.69891980896643	-4.49639600655049	-0.000863871764501513	-0.00103163546563156
1.02	2.50005403731359	0.478973458935268	566.587750685046	-45.0741875965268	-3.00439649432564	-4.70017934163815	-4.49871212271583	-0.000851046221578686	-0.0010583268694847
1.03	2.47916204200017	0.457441060404324	566.541060308322	-45.0514645205317	-2.99474624959517	-4.70078509679512	-4.50118560406192	-0.00083370992310015	-0.00108889696959072
1.04	2.44975979871404	0.422307622332574	566.484798866682	-45.025753936146	-2.98258885377506	-4.70087405883896	-4.5038998313969	-0.000812050291870482	-0.00112340525903178
1.05	2.41259289638124	0.374978264351786	566.419372214828	-44.997068567559	-2.96809454925469	-4.70056734200362	-4.50690668258795	-0.000786359333570107	-0.00116188873238131
1.06	2.36853428965494	0.317252981725455	566.345464119616	-44.9654548352627	-2.95149136202134	-4.69996342456407	-4.51022295718596	-0.000757028059897085	-0.00120436322669031
1.07	2.31855212276553	0.251239734665619	566.264039018093	-44.9309945310994	-2.93306022668991	-4.69913365089976	-4.51382912564057	-0.00072453809814213	-0.00125082063475621
1.08	2.26367922684543	0.179256348769902	566.176334736352	-44.8938079636202	-2.91312850676166	-4.69812024915394	-4.51767050811241	-0.000689450557356495	-0.00130122212277035
1.09	2.2049852546725	0.103726020801434	566.083844798625	-44.8540582990326	-2.89206201780899	-4.69693693844847	-4.52166083335979	-0.000652392338851389	-0.00135548779448069
1.1	2.14355215450844	0.0270714630144857	565.988290364332	-44.8119567026884	-2.87025573295559	-4.69557202150254	-4.52568797407133	-0.00061404020522205	-0.00141348352069925
1.11	2.08045341451496	-0.048387293379816	565.891582217835	-44.7677677901571	-2.84812342139804	-4.69399368719847	-4.52962151155583	-0.000575103046796098	-0.00147500588293248
1.12	2.01673723622648	-0.120526678798956	565.795773593722	-44.721814829715	-2.82608653597222	-4.69215709409091	-4.53332165963746	-0.000536302896338736	-0.00153976635263685
1.13	1.95341352629331	-0.187500695123339	565.703004948788	-44.6744841027323	-2.80456271931584	-4.69001268018239	-4.53664898349501	-0.000498355331830711	-0.00160737593568615
1.14	1.89144433950778	-0.247805814836608	565.615442094904	-44.6262278270012	-2.78395433519674	-4.68751505506667	-4.53947429071464	-0.000461949964916938	-0.00167733155087932
1.15	1.83173717554353	-0.300327020170411	565.535209390398	-44.5775650813518	-2.76463744843689	-4.68463178413132	-4.54168805326041	-0.000427731733691237	-0.00174900538081187
1.16	1.77514034221353	-0.344363351926102	565.464319955728	-44.5290802374048	-2.74695167145578	-4.68135137451022	-4.54320874189612	-0.000396283700523361	-0.00182163833558623
