Time [s]	GRFml [N]	GRFap [N]	GRFv [N]	Mml [N.m]	Map [N.m]	Mv [N.m]	Mfree [N.m]	COPml [m]	COPap [m]
0.01	3.38334624677564	-0.991527285217872	554.674938571306	1.93567992033158	24.2955514694093	1.89373086006897	-1.83850226491303	0.000126430049225745	-0.003631682377298
0.02	3.03750788001136	-1.26802538250259	554.407268788401	1.96617013336843	24.2842421033165	1.82263649394235	-1.75632649694451	0.000185273811965647	-0.00363411239680878
0.03	2.73895649244037	-1.53470838782223	554.223755377154	1.99247150527062	24.2742113132791	1.74707600057305	-1.66999110756817	0.000235787437862789	-0.00364064945761916
0.04	2.52951454815704	-1.78625906324736	554.156037516194	2.01293042409068	24.263007394513	1.66250482344024	-1.57506825604631	0.000274575200599925	-0.00365798432590009
0.05	2.43618884130736	-2.02024264865689	554.192977452187	2.02840201251937	24.2467935850653	1.56624016704271	-1.46889662924098	0.000303128443974399	-0.00369200736532488
0.06	2.46472308446995	-2.23700198344549	554.290197330915	2.04205869646905	24.222007235765	1.45811264251541	-1.35125590757286	0.000327437234629246	-0.00374559939534735
0.07	2.59668985102971	-2.43825817567008	554.396540120275	2.05814508721784	24.1878817879108	1.34080893901201	-1.22478370715217	0.00035557026619748	-0.00381618488446483
0.08	2.79205044879371	-2.62466138047049	554.486440666057	2.08007876423128	24.1486879990415	1.21989061257814	-1.09510265598347	0.000394020372807224	-0.00389423790022303
0.09	2.99774265190246	-2.79306207192907	554.583559335129	2.10857191934044	24.1144328771143	1.10345703132443	-0.970587884305626	0.000444135029023629	-0.00396385877720556
0.1	3.16070144894749	-2.9345757994493	554.763616578906	2.14048564221383	24.0992579579491	1.00141064948804	-0.861687709799265	0.000499999032149701	-0.00400583812402494
0.11	3.24171913684177	-3.03443332196425	555.132249483026	2.16891525071282	24.1177030764988	0.924309293198251	-0.779746290768415	0.000548697612325011	-0.00400258332265502
0.12	3.2256939018906	-3.07413512747186	555.783815251108	2.18461139724525	24.1799484362698	0.881863169665784	-0.735374189422167	0.000573111250351532	-0.00394337842308112
0.13	3.12465058945648	-3.0357051637316	556.755408123037	2.17839473571388	24.2876998554348	0.881242258646991	-0.73655169048069	0.000556534782990781	-0.0038281167215265
0.14	2.97227295922208	-2.90709759088992	557.993585023331	2.14386823201577	24.4322886691997	0.925470937058972	-0.786788571636452	0.00048775810905366	-0.00366807121584767
0.15	2.8117087843179	-2.68730066869404	559.347972203226	2.0795930080579	24.5958391508252	1.01225665013971	-0.883749357747714	0.00036502124154103	-0.00348329841395312
0.16	2.68090599554976	-2.38958618863882	560.59708029865	1.99002844085465	24.7552892186464	1.13358569159036	-1.01873718057438	0.000197556676999278	-0.00329748683824449
0.17	2.60068738076689	-2.04173119655736	561.500421112684	1.88491228361763	24.8880459098201	1.27630056204258	-1.17729091967773	4.17597559176919e-06	-0.00313197076197486
0.18	2.56975983046269	-1.68280548620579	561.861474045846	1.77725041873142	24.9774918842773	1.42366545610688	-1.34090978251128	-0.000190699374124415	-0.00300088071184612
0.19	2.56825444506493	-1.3570595224104	561.581696125105	1.68052476436423	25.0166306997839	1.55768308476764	-1.48963967680582	-0.000362352732085069	-0.00290892140697524
0.2	2.56820852765274	-1.10627900957064	560.688234636403	1.60594990907149	25.0088218255849	1.66172382239909	-1.60502371582188	-0.000490843651492545	-0.00285226929131699
0.21	2.54684893153182	-0.96242891842219	559.326460993992	1.56053250427953	24.9655558911969	1.72293772061467	-1.67281469239506	-0.000564437206658219	-0.00282196203605328
0.22	2.49756757591125	-0.942337705708409	557.719958185646	1.54635052713958	24.9021961836366	1.73397664130304	-1.68491026778786	-0.000580664419478238	-0.00280832500763428
0.23	2.4344139981781	-1.04558975392007	556.111185442303	1.56101738476957	24.8332321634031	1.69374110700731	-1.64018356363664	-0.000545155891969018	-0.00280472131791948
0.24	2.3883617474201	-1.25588869223516	554.702095237035	1.59891665421197	24.7686628979953	1.60712026388634	-1.54417083098941	-0.000469100357669783	-0.00280927426855981
0.25	2.39659762061407	-1.54521736322095	553.613454039581	1.65263298843179	24.7126540857283	1.48392622032325	-1.40784549232586	-0.000366459616943593	-0.00282402414810301
0.26	2.48854682712475	-1.87944353646838	552.874734875611	1.71410305870346	24.6647709802434	1.33736036207745	-1.24586807655745	-0.000251853978618377	-0.00285193758656377
0.27	2.67345080473765	-2.22380079127615	552.445588643743	1.77528961852214	24.6231684409574	1.18235603834509	-1.07471484493086	-0.000139472040400879	-0.00289296125948502
0.28	2.93375404183504	-2.54695613919775	552.258809212831	1.82849093957596	24.5884194406873	1.03404154494779	-0.910975628576632	-4.27465116827896e-05	-0.0029406655270699
0.29	3.22661004022119	-2.8230453569825	552.267231471798	1.86658765646285	24.5664099704119	0.906424781747426	-0.769943492222202	2.58390219467497e-05	-0.0029808669698651
0.3	3.49319281785169	-3.03187559237703	552.475777222507	1.88351963179621	24.5690085901943	0.811291546972769	-0.664479502998772	5.54338755744954e-05	-0.00299301271550295
0.31	3.67306741381922	-3.15817013142224	552.94539718739	1.87509716817884	24.6119566384028	0.757280503678169	-0.604083246300692	3.82478993651292e-05	-0.00295423573641623
0.32	3.71937692917992	-3.19100677897816	553.766109857037	1.83998787140498	24.71039671007	0.749145802721357	-0.594139480031115	-2.85488806135437e-05	-0.00284510312206232
0.33	3.61045859485715	-3.12435623540828	555.008101143056	1.78051823904472	24.8733494851721	0.787293666451919	-0.635398189655533	-0.00014114701481327	-0.00265544623185288
0.34	3.35469301310882	-2.9589374805797	556.668742627527	1.70289147920372	25.0989523248917	0.867717621789381	-0.723811518396639	-0.000288440844913196	-0.00238849485805387
0.35	2.987504344109	-2.70475041499392	558.636110916229	1.61657630343027	25.3721853761469	0.982419009125945	-0.850845854925485	-0.000452933607673511	-0.00206192467359373
0.36	2.56178479033072	-2.38300558655166	560.684948106562	1.53290364958869	25.6661213024367	1.12029431991154	-1.0043049107921	-0.000613215708906378	-0.00170528461925851
0.37	2.13487770748362	-2.02607214743578	562.510423753921	1.46319826051486	25.9466466032341	1.26835066862777	-1.16957913691272	-0.000747458849072347	-0.00135434752104863
0.38	1.75605488465498	-1.67461054399015	563.79217659401	1.41694317949053	26.1794773727888	1.41303698062983	-1.33113681364555	-0.000837003198358333	-0.00104387331804007
0.39	1.45795171684034	-1.37205241378413	564.270483416355	1.40045188955271	26.3375249184193	1.54148561283269	-1.47403600177797	-0.000869107558759685	-0.00080076084539582
0.4	1.25388858514125	-1.15762012550362	563.811815017058	1.4163152840957	26.4065351512471	1.64253577066287	-1.58527090735312	-0.000838280700335536	-0.000639411328278383
0.41	1.1409671135084	-1.05969497681368	562.444110419006	1.46359234560112	26.3874799969075	1.70750970904864	-1.65484312505127	-0.000746155175709307	-0.000560384735817987
0.42	1.10699614995093	-1.09128153557038	560.351688761601	1.53845921166639	26.2952177458253	1.73078313431435	-1.67652560223648	-0.000600357414116459	-0.000552368870729347
0.43	1.13827854818214	-1.24861531808569	557.832404972689	1.63493392274683	26.1540893097943	1.71020311648119	-1.648332455622	-0.000413055347097013	-0.000596484415294196
0.44	1.22536078573157	-1.51293573140387	555.231053592713	1.74538971054471	25.9919817746014	1.64736513562282	-1.57271125008949	-0.000199745723785894	-0.000671359266584626
0.45	1.36489441920042	-1.85452590231129	552.86936857085	1.8608012572611	25.8346969275733	1.54769650205483	-1.45644805148294	2.15360033702927e-05	-0.000757390948582515
0.46	1.55733503984331	-2.23765207554241	550.992374929545	1.97091518205449	25.7021502611283	1.42024448884175	-1.31024345088147	0.000230833424589627	-0.000839123212312498
0.47	1.80173170439911	-2.62513773547494	549.743853246286	2.06467206227373	25.6071467706796	1.27706316695336	-1.14790519665869	0.000407227465799465	-0.000905464059994199
0.48	2.08984622351727	-2.9818473471255	549.172920731029	2.13115905158783	25.5565245945919	1.13214491094335	-0.985129262028093	0.000530601852278711	-0.000948270023761189
0.49	2.40203342631972	-3.27702900732202	549.263006251803	2.16115005645198	25.5536517346401	0.99994363919343	-0.837913103846064	0.000584332488433481	-0.000960355912258071
0.5	2.7067282084944	-3.4859516339178	549.967484371551	2.14898398362466	25.6008655412466	0.893661685324171	-0.720751256336093	0.000558508633866195	-0.000934108279642687
0.51	2.96424735982896	-3.59137048755042	551.235321126577	2.09427285862193	25.7005838037401	0.823580383782944	-0.64487166963017	0.000452849044479064	-0.000861565597466585
0.52	3.13425553733434	-3.58506747643591	553.015567925009	2.0028419593322	25.8544427350522	0.79576031182515	-0.616834011985034	0.000278306261435657	-0.000736187536919175
0.53	3.18502411200906	-3.46923355168112	555.239455973678	1.8864432406111	26.0607171767916	0.811387808334511	-0.63778558385711	5.65667709372386e-05	-0.000555782004787397
0.54	3.10186385094701	-3.25707667215261	557.789519610347	1.76112020788912	26.3111255493263	0.866899912322771	-0.703542883101617	-0.000182789405414718	-0.000325458603665174
0.55	2.89209673944887	-2.97198809398239	560.47243098941	1.64452125704968	26.5885792109483	0.954822214961407	-0.805468526839503	-0.000406997992369762	-5.92743079783631e-05
0.56	2.58475283215865	-2.64494837742268	563.012910064235	1.55280166028668	26.8672833274405	1.06507512149537	-0.931913828326998	-0.000585621012109461	0.000220445587339635
0.57	2.2246934951174	-2.3104578729168	565.07941560339	1.49788765538369	27.1158387193288	1.18641378630457	-1.06987484606311	-0.0006955376483605	0.000486362330747725
0.58	1.86265014720191	-2.00184753825005	566.340494991146	1.48574827896655	27.3028879596595	1.30769889816813	-1.20651204057458	-0.000724278307504544	0.000711259261656882
0.59	1.54411090580636	-1.74708169158401	566.538134065608	1.51598726712076	27.4038192663086	1.41882813012665	-1.33030341273436	-0.000671102129766732	0.000873608486596233
0.6	1.30049358138372	-1.56597363791597	565.556233119177	1.58266544660208	27.4065112503607	1.51132526702753	-1.4317784787534	-0.000545887076804363	0.000961876543999707
0.61	1.14531316726065	-1.4691877485866	563.461924559668	1.67594841187311	27.3143063294728	1.57870800170769	-1.50393342205681	-0.000366445872915233	0.000976267486424709
0.62	1.07626396737357	-1.45876009506078	560.505244474942	1.78404839474542	27.1452801837938	1.61678447189757	-1.54249137066248	-0.000155125312383375	0.00092748513706048
0.63	1.08192962954682	-1.52943188216182	557.075793617555	1.89500423557817	26.9280934983935	1.62395990215769	-1.54612774598447	6.45345116402352e-05	0.000833125823902936
0.64	1.1500730447165	-1.67003852362485	553.628527532028	1.99804383488872	26.695802088199	1.60151223699088	-1.51666298701445	0.000270594278309444	0.000713084090278815
0.65	1.27387646989893	-1.86451697488397	550.59975643861	2.08448409154105	26.4795575861901	1.55368738993831	-1.45910134384564	0.000444792736228106	0.000585574763068752
0.66	1.45338652361529	-2.09259129131756	548.335837617315	2.14825008413878	26.3039728857033	1.48743105407203	-1.38133417195071	0.000573933332282284	0.000464981623210736
0.67	1.69146897233777	-2.33060324048508	547.050932435656	2.18610882352564	26.1851568372007	1.41164122700599	-1.29336907799659	0.000650639099760264	0.00036191406025271
0.68	1.98600727268079	-2.55305904390399	546.819358460717	2.19765358524729	26.1313673836462	1.33597422738374	-1.20608467200329	0.000673471804691572	0.000284924938183828
0.69	2.32190946584339	-2.73520410927535	547.596731658557	2.18501909265209	26.1453007594592	1.26940852730688	-1.12969103020846	0.000646373412061862	0.00024267321679422
0.7	2.66693475311519	-2.85642795123386	549.256246071341	2.15231769865075	26.2265617961735	1.21889086675068	-1.07222021516612	0.000577464562805607	0.000245151955969691
0.71	2.9741423581407	-2.90377452025867	551.624400279577	2.10487125589927	26.3729937299157	1.188399662225	-1.03841055381233	0.000477422814773809	0.000303005171966186
0.72	3.19128120931785	-2.87453926339362	554.504294945055	2.04842329733723	26.5802058817695	1.17864758615915	-1.0292558081802	0.000357863588979934	0.000424782505455024
0.73	3.27459940282463	-2.77703265650937	557.68231946519	1.98857353848369	26.8395582460867	1.18744840160074	-1.042296000528	0.000230219798095455	0.000612931700307018
0.74	3.20248170812527	-2.6290776188946	560.922511086658	1.9306216129006	27.1356871327236	1.21057142045107	-1.07250654256148	0.000105465893246448	0.000860047720555368
0.75	2.98390804935603	-2.45451450161705	563.958980954633	1.87983535420578	27.4450613670618	1.24278211724346	-1.11348424788625	-5.33001289038104e-06	0.0011470841673597
0.76	2.6582385795771	-2.27863926940728	566.498404770196	1.84193287662764	27.7368660293467	1.27876599908201	-1.15859177141284	-9.00848864336945e-05	0.00144476009145234
0.77	2.28578382442805	-2.12383620457954	568.241121841962	1.82339222163188	27.9767588231933	1.31374490825264	-1.20181001845509	-0.000135189105544442	0.00171837742410791
0.78	1.93192276988212	-2.00654936445823	568.922078601253	1.83117881500467	28.1329864904477	1.34376082984814	-1.23821083273561	-0.000126193900271687	0.00193504135628869
0.79	1.64991668726271	-1.93621691908173	568.364266886723	1.87165665026664	28.1833711593263	1.36574287989706	-1.26412162242051	-5.01131100643093e-05	0.00207130256990101
0.8	1.46808946919389	-1.91608208305553	566.530555590467	1.94878549481144	28.1211564394474	1.37752787218749	-1.27714118244169	0.000100916177637411	0.00211891021564481
0.81	1.38548106369959	-1.94517210826897	563.557474234656	2.06208324002358	27.957861404452	1.37795840327975	-1.27615375401211	0.00032559621910222	0.00208684452824159
0.82	1.37701959760063	-2.02042721963027	559.757677240396	2.20508945798212	27.7220988952387	1.36706859072947	-1.26139784225212	0.000610510800262087	0.00199894497673408
0.83	1.40586831770242	-2.13805177434636	555.585672281794	2.36506848299548	27.4545000831845	1.34625037198662	-1.23453408768311	0.000929674292830307	0.00188785752177062
0.84	1.43816297328509	-2.29358554803886	551.571446747612	2.52439179041182	27.2000366161945	1.31823547286654	-1.19858498235881	0.0012474066208471	0.00178718159371344
0.85	1.45474920192751	-2.48078227012811	548.235617109897	2.66351481584755	26.9997504984944	1.28676311307248	-1.15762742488198	0.00152432139346126	0.00172418987609174
0.86	1.45592116222611	-2.68992706118751	546.00480388979	2.76489137075212	26.8839620601032	1.25592077551896	-1.11620595761338	0.00172510913041279	0.00171516398861299
0.87	1.45795694062633	-2.90654174796113	545.14562465283	2.81676824675169	26.8684420380737	1.22929514480276	-1.07856065194889	0.00182603827283678	0.0017643856046165
0.88	1.48334548807895	-3.11140341594162	545.730324881283	2.81574491451769	26.9540412066316	1.20918419495523	-1.04786934243945	0.00182000625369705	0.00186653144576687
0.89	1.54884072942023	-3.28242001239195	547.638527120702	2.76731758006997	27.1292292531003	1.19614162210318	-1.02573598403826	0.00171763665014968	0.00201111153485528
0.9	1.65607421824479	-3.3982630332655	550.59061199478	2.68425075410624	27.3742518815796	1.18903115309816	-1.01209304517239	0.00154413187586078	0.00218704330580272
0.91	1.78827489323487	-3.44295316662067	554.201510128453	2.58331130607651	27.6653911578422	1.18559066232817	-1.00554666838542	0.00133292501270588	0.0023856319297571
0.92	1.91421725612886	-3.41009034906517	558.040940955374	2.48140363999396	27.9781354137583	1.1833152828948	-1.00403516929389	0.00111813889744528	0.0026010284781478
0.93	1.99780941650291	-3.3053399931955	561.687749745257	2.39227295368982	28.2887679518175	1.18034657222261	-1.00556185508636	0.000928100756215078	0.00282834394874093
0.94	2.0097462482353	-3.14621462273839	564.770894973071	2.32465590368018	28.5746786458717	1.17605630013921	-1.00874977541832	0.000781603983147972	0.00306058948124449
0.95	1.93707025240589	-2.95900220483002	566.995718641876	2.2821771547898	28.8142771684562	1.17113978031285	-1.01305396043136	0.000687494607304662	0.00328611901986464
0.96	1.78743171137161	-2.77359276043473	568.159012506777	2.26465046272551	28.9875178466689	1.16723041674958	-1.01861583631989	0.000646939082565634	0.00348807733769874
0.97	1.58688434121422	-2.6175982515057	568.158306987011	2.26999184773695	29.0776841217759	1.16622938757636	-1.02588851310602	0.000656875565447357	0.00364656355382187
0.98	1.37238122477136	-2.51131048740653	566.999298324799	2.2958505815687	29.0743738357367	1.16963612449821	-1.03523882281478	0.000712966384424307	0.0037431066218504
0.99	1.18187558144058	-2.46467343754798	564.801434897202	2.34032352112664	28.9768717413929	1.17813299094619	-1.04671272948725	0.000810873451969063	0.00376604734917552
1	1.04547484726906	-2.47674496022842	561.797511418694	2.4016064571719	28.7966224572104	1.19154285421566	-1.06004911582337	0.000945610880042858	0.00371493296165787
1.01	0.98032279520214	-2.53738144423187	558.320929592429	2.47693629899123	28.557550871135	1.20910498441993	-1.07489257665045	0.00110967337322965	0.00360226129970725
1.02	0.990185157284323	-2.63035960620073	554.775498722408	2.56148521689469	28.2935390575335	1.22987944866089	-1.0910510300567	0.00129120357181423	0.00345178178784172
1.03	1.06882103606445	-2.73698200136344	551.587221408487	2.64787287098616	28.0432632690853	1.2530493907401	-1.10861666232132	0.00147344086249035	0.00329373188754101
1.04	1.20490187705542	-2.8393664875041	549.143894257867	2.72668853904426	27.8434890770254	1.27795822835682	-1.12783226722137	0.00163613911404947	0.00315840950314833
1.05	1.38598453395554	-2.92295114110572	547.734094586999	2.7879938243772	27.7224848470851	1.30386204286613	-1.14871243988183	0.0017588139686201	0.0030699792949983
1.06	1.59988520330232	-2.97808029747408	547.49979462321	2.82338501081591	27.695240563701	1.3295315062212	-1.17056424205176	0.00182492849715121	0.00304223429341305
1.07	1.83331019901211	-3.00074692292911	548.415000185403	2.82797741294776	27.7616656284867	1.35293338830694	-1.19163329376536	0.00182573352765947	0.00307729811785656
1.08	2.06908732250861	-2.99261506210561	550.296609812546	2.80169477952082	27.9080672291764	1.37121457724489	-1.20908814374082	0.00176256432153532	0.00316726277917412
1.09	2.28415236098134	-2.96038731905628	552.844951984783	2.74947304562652	28.111273098302	1.38110103160329	-1.21944679799124	0.00164688675894387	0.00329787050036734
1.1	2.45023450057186	-2.91451974511705	555.703100496217	2.68031997745425	28.3440604959245	1.37965446917918	-1.21938439186987	0.00149807464279461	0.00345284270389523
1.11	2.53805326035462	-2.86731391579277	558.519076937961	2.60549147790169	28.5803027257209	1.36517194028772	-1.20670591937237	0.00133953672198461	0.0036174546635741
1.12	2.52427335440395	-2.83056494573584	560.995327159337	2.53625853924697	28.798512394357	1.33793509822069	-1.18118667764482	0.00119420587768915	0.00378040139561309
1.13	2.39911149706164	-2.81316174197729	562.915400939981	2.48180363990167	28.9831458076908	1.30055067851837	-1.14500990949893	0.00108047326198635	0.0039337206137634
1.14	2.17189145390743	-2.8192039895313	564.146533704307	2.44770904205275	29.1238942515461	1.25775595815573	-1.10265505869402	0.00100942862904119	0.00407128538667612
1.15	1.87223261475796	-2.84719336852801	564.625455979349	2.43532152118146	29.2139175490925	1.2157353534787	-1.06025986320469	0.000983859739651316	0.00418690607794353
1.16	1.54579680219712	-2.89061247901681	564.339842414638	2.44205112674367	29.2483018537953	1.18113475555098	-1.02462737263874	0.000998998467340972	0.00427320940188064
1.17	1.24518527048374	-2.9397765538466	563.317335969859	2.46243920866759	29.2238146688966	1.16001630975827	-1.00212164208423	0.00104459742651331	0.00432213720779179
1.18	1.01813068230834	-2.984392628779	561.628299059626	2.4896621334637	29.1403528064202	1.15695931555254	-0.997677993762797	0.00110766605658075	0.00432722529807855
1.19	0.896086171504685	-3.01599178385774	559.399846604933	2.51706087313993	29.0035878710401	1.17441848944284	-1.01407178065	0.00117513647501499	0.0042870114524256
