Time [s]	GRFml [N]	GRFap [N]	GRFv [N]	Mml [N.m]	Map [N.m]	Mv [N.m]	Mfree [N.m]	COPml [m]	COPap [m]
0.01	4.45666866747056	-2.47337491447348	746.91444388589	-27.4994016795423	2.54171230617217	0.016101144613849	0.188630307309453	0.00322425734144061	-0.0146338293359919
0.02	5.16219439334149	-2.35123446957857	745.724610520453	-27.2885599224374	2.64365963218933	0.156711163034868	0.353956125867623	0.00336652211786941	-0.0148694037664994
0.03	5.85406482003808	-2.23134292257593	744.56211099331	-27.0827356488877	2.74477616458949	0.295114867209281	0.516267000051198	0.00350803349360128	-0.0150983672097126
0.04	6.51900679640936	-2.11623678976096	743.44947570683	-26.8861405878148	2.84417264359934	0.429118943438072	0.672950006876682	0.00364745544576705	-0.0153162168136187
0.05	7.14460888595038	-2.0083276400467	742.407662495164	-26.70267101049	2.94106991886126	0.556683108512461	0.821596866181626	0.00378358260495593	-0.015518859715711
0.06	7.71980028347451	-1.90980946553411	741.455203200872	-26.5357470667181	3.03481628024797	0.675991841136772	0.960085735088276	0.00391537322143713	-0.0157027742025509
0.07	8.23526109825742	-1.82257743468436	740.607453314543	-26.3881770124574	3.1248992978307	0.785515756850345	1.08664893676357	0.00404197562915346	-0.0158651390002288
0.08	8.68374405655594	-1.74816163668974	739.875982964898	-26.2620537331905	3.21095194814344	0.884059857562755	1.19992417994002	0.00416274696343259	-0.0160039245225463
0.09	9.06029345836932	-1.68767828192543	739.268140601728	-26.1586889814635	3.29275301539088	0.970796600527357	1.29898772530056	0.00427726318072549	-0.0161179422732951
0.1	9.36235365090709	-1.64179962698901	738.78681203229	-26.0785884452052	3.37022198408535	1.04528254963474	1.38336883369423	0.00438531985336004	-0.016206851048518
0.11	9.5897658830145	-1.61074274581935	738.430387513373	-26.0214683005537	3.44340887337948	1.10745824255749	1.45304565736261	0.00448692373669759	-0.0162711209793953
0.12	9.74465872925513	-1.59427625358866	738.192938906489	-25.9863114412798	3.51247968743537	1.15763177579801	1.50842349102496	0.00458227567686937	-0.0163119586870132
0.13	9.83124291933009	-1.59174326665866	738.064598056159	-25.9714592746258	3.57769835280848	1.19644742319673	1.55029697597165	0.00467174598068715	-0.0163311987995234
0.14	9.85552605450868	-1.60209828339819	738.032117140322	-25.9747329735089	3.63940616612799	1.22484131501374	1.57979844164716	0.00475584384247649	-0.016331168738736
0.15	9.8249661082248	-1.62395530551386	738.079582328045	-25.9935764963237	3.69799986964385	1.24398677647937	1.59833506814397	0.0048351827637512	-0.016314534955539
0.16	9.748084666122	-1.65564437403987	738.189244164353	-26.025212615359	3.75390949970702	1.25523233009193	1.60751794743555	0.00491044407781761	-0.0162841396273521
0.17	9.63406153758	-1.69527373719458	738.342422102442	-26.0668026845594	3.80757711103793	1.26003559050254	1.60908639402838	0.00498234069192749	-0.0162428371807802
0.18	9.49233173716016	-1.74079505645632	738.520436833363	-26.1156009405735	3.85943737087304	1.25989632237093	1.60483098761451	0.00505158299581177	-0.0161933398385902
0.19	9.33220404236351	-1.79006934487606	738.705522719099	-26.1690947442155	3.90990085057092	1.25629179927645	1.59651880389587	0.00511884858672243	-0.0161380807056147
0.2	9.16251759756173	-1.8409316711111	738.881673788742	-26.22512327508	3.95934063149642	1.2506173146283	1.58582409482963	0.00518475706878869	-0.0160791017283265
0.21	8.99134960759618	-1.89125301294096	739.035380353492	-26.2819687038376	4.00808260379227	1.24413428028792	1.57426731759106	0.00524985074474395	-0.0160179722491534
0.22	8.82578332181336	-1.93899797325318	739.156219154855	-26.3384156765324	4.05639958946823	1.23792783739024	1.56316489846545	0.00531458157538844	-0.0159557419267789
0.23	8.67174152185371	-1.98227735868649	739.237267784578	-26.3937769309764	4.10450918349841	1.23287533152471	1.55359148420538	0.00537930437413818	-0.0158929296356327
0.24	8.53388684615204	-2.01939485635951	739.275323503796	-26.4478848996686	4.15257499497401	1.2296264062357	1.54635572187017	0.00544427585814049	-0.0158295477391618
0.25	8.41558672845619	-2.048887227294	739.270917054828	-26.5010511121949	4.20071079826549	1.22859487802921	1.54198986908872	0.00550965890973227	-0.0157651590059446
0.26	8.31893766992534	-2.0695575737975	739.228123050175	-26.553996979246	4.24898698078508	1.22996200225208	1.54075282191858	0.00557553121746183	-0.0156989615504279
0.27	8.2448411274434	-2.08050134458521	739.154179449985	-26.607761024225	4.29743860361868	1.23369024667672	1.54264550431554	0.0056418973601531	-0.0156298956543427
0.28	8.19312155559948	-2.08112483011522	739.058938904457	-26.6635887535926	4.3460743734103	1.23954627664955	1.54743702923932	0.00570870335942203	-0.0155567652516296
0.29	8.16267610728443	-2.07115598505893	738.954183768676	-26.7228120764492	4.39488585338184	1.2471315341012	1.55469964102523	0.00577585274060501	-0.0154783662909723
0.3	8.15164515396294	-2.05064750576152	738.852843879082	-26.7867254778737	4.44385630971142	1.25591856817077	1.56385019196736	0.00584322319311518	-0.0153936141364115
0.31	8.15759306947848	-2.01997219455593	738.768161286667	-26.8564660268992	4.49296868591113	1.26529114761218	1.57419578988938	0.00591068299417661	-0.0153016625990717
0.32	8.17768953942131	-1.97981076192788	738.71284876269	-26.9329037913433	4.54221231079645	1.27458614977993	1.58498126403985	0.00597810644348	-0.0152020080485813
0.33	8.20888290000916	-1.93113234974186	738.698288858566	-27.016548391688	4.59158806419473	1.28313526955785	1.59543621329432	0.00604538764392072	-0.0150945732418628
0.34	8.2480585531913	-1.87516819896801	738.733817598461	-27.1074763244704	4.6411118395218	1.290304713551	1.60481959982223	0.00611245205337487	-0.0149797669236429
0.35	8.29217722263736	-1.81337902695941	738.826131658667	-27.2052824019796	4.69081624708188	1.29553122855522	1.61246011007988	0.00617926532670111	-0.0148585167851078
0.36	8.33838958763022	-1.74741681556612	738.97885044756	-27.3090572732727	4.74075059249434	1.29835304697314	1.61779080324304	0.00624583907066416	-0.0147322749061209
0.37	8.38412554917766	-1.67908183657199	739.192255292091	-27.4173915937009	4.79097923966549	1.29843460420857	1.62037688928101	0.00631223325266902	-0.014602996256204
0.38	8.42715795182755	-1.61027585125143	739.463217526149	-27.5284060714458	4.84157852787702	1.29558418372165	1.61993581341776	0.00637855514090924	-0.0144730921128034
0.39	8.46564193272356	-1.54295251439101	739.785316308208	-27.6398054042804	4.89263245980301	1.2897639647228	1.6163491627843	0.00644495480924458	-0.0143453613178962
0.4	8.49813214567289	-1.47906608964143	740.14913615342	-27.7489530784055	4.94422741402904	1.28109227622812	1.60966624872175	0.00651161741085288	-0.0142229031056817
0.41	8.52358088480898	-1.42051964316219	740.542724122163	-27.8529631692172	4.99644616414022	1.26983819018091	1.60009954898686	0.00657875260187909	-0.0141090157877896
0.42	8.54132060472133	-1.36911392676052	740.952177979174	-27.9488046814423	5.04936150812251	1.25640890587696	1.58801251175439	0.0066465816675779	-0.0140070858903408
0.43	8.55103451722219	-1.32649818980136	741.362329940269	-28.0334135994563	5.10302982708042	1.24133067757873	1.57390051990388	0.00671532305432387	-0.0139204724256851
0.44	8.55271887231931	-1.29412416933168	741.757486235681	-28.1038076819742	5.15748490040183	1.22522430578467	1.55836607998	0.00678517712681587	-0.0138523908852238
0.45	8.54664024908317	-1.27320449677781	742.122180855664	-28.1571991135598	5.21273230386895	1.20877643857483	1.54208952452819	0.00685631103848663	-0.0138058012951138
0.46	8.53329074629165	-1.26467672254874	742.441902544736	-28.1911003968656	5.26874470566337	1.19270810154761	1.52579668805214	0.0069288446162696	-0.0137833043177953
0.47	8.51334343190748	-1.26917409148802	742.703757240109	-28.2034193084966	5.32545835057549	1.17774198315698	1.5102251254353	0.00700283811553044	-0.0137870489369897
0.48	8.48760984184862	-1.28700409704081	742.897033410784	-28.1925393202216	5.38277098338433	1.16457003920353	1.49609047943789	0.00707828259993091	-0.0138186547523378
0.49	8.45700076304015	-1.3181356959444	743.013644715287	-28.1573825775788	5.44054140775564	1.15382294170562	1.48405456642279	0.00715509355231323	-0.0138791513454182
0.5	8.42249103417323	-1.36219587581616	743.048432528527	-28.0974533013744	5.49859080795364	1.1460427835007	1.47469663666766	0.00723310813845559	-0.0139689365696734
0.51	8.38508867822383	-1.41847603541465	742.999319606193	-28.0128603058338	5.55670587955543	1.14166026551928	1.46848908206599	0.00731208634012876	-0.0140877549688627
0.52	8.3458083585495	-1.48594836486614	742.867314862789	-27.9043181817627	5.61464372603213	1.1409773482305	1.46577861889446	0.00739171596205303	-0.0142346968490663
0.53	8.30564892761891	-1.56329210727242	742.656377375422	-27.7731275450082	5.6721383855032	1.14415605596355	1.46677367988978	0.007471621312611	-0.014408217828589
0.54	8.2655747058957	-1.64892925338916	742.373154803033	-27.6211355701844	5.72890876186775	1.15121379958991	1.47153842456627	0.00755137517154744	-0.0146061779841071
0.55	8.22650007225352	-1.74106887962936	742.026617050746	-27.4506787870247	5.7846676527309	1.16202524831542	1.47999343792986	0.00763051349743486	-0.0148258990213997
0.56	8.18927694649291	-1.83775900057458	741.6276099617	-27.2645107822181	5.83913149856664	1.17633045451543	1.49192285458683	0.00770855219859597	-0.0150642372510486
0.57	8.15468477815446	-1.93694448567389	741.188355974921	-27.065717995178	5.89203042804551	1.19374863517478	1.50698733613791	0.00778500519640085	-0.0153176695725243
0.58	8.12342270501054	-2.03652930137819	740.721929076873	-26.8576271971844	5.94311814683307	1.21379675586971	1.52474206125988	0.00785940295093905	-0.0155823891935482
0.59	8.09610359473699	-2.13444109959441	740.241730150602	-26.6437084802519	5.99218121340925	1.23591186138807	1.54465867370042	0.00793131059688179	-0.015854407462906
0.6	8.07324972523003	-2.22869599479652	739.760986246404	-26.4274776424696	6.03904726598685	1.25947596006311	1.56614998358127	0.00800034485253682	-0.0161296579969411
0.61	8.05528988965006	-2.31746126719874	739.292293690034	-26.2124017366448	6.08359180833118	1.28384220133176	1.58859613777571	0.00806618891802352	-0.016404099249269
0.62	8.04255773363873	-2.39911370726806	738.847220674425	-26.0018112547586	6.12574322677056	1.30836108808229	1.61137096712238	0.00812860466879577	-0.0166738118183036
0.63	8.03529115019529	-2.47229138350218	738.435980418076	-25.7988219679684	6.16548579240791	1.33240553294241	1.63386727888189	0.00818744157661323	-0.0169350871071468
0.64	8.03363258010677	-2.53593677312801	738.067181458002	-25.6062688563239	6.20286049715627	1.35539369293391	1.65551998506094	0.00824264194753373	-0.017184504434271
0.65	8.03763009974756	-2.58932944261214	737.747657462764	-25.4266538779871	6.23796367485414	1.37680868900405	1.67582613044629	0.00829424224896691	-0.0174189943195262
0.66	8.04723922791684	-2.63210679627096	737.482375313071	-25.2621085849478	6.27094346422653	1.39621452282973	1.69436109518224	0.0083423704960046	-0.0176358864060988
0.67	8.06232544923577	-2.66427181804892	737.274417231481	-25.1143718348797	6.30199427363706	1.41326772887136	1.71079048068038	0.00838723986966027	-0.0178329412833847
0.68	8.08266752841	-2.68618720194686	737.12503049267	-24.9847821211802	6.33134950334948	1.4277245307963	1.724877429355	0.00842913893360623	-0.0180083662993219
0.69	8.10796176740763	-2.69855578626142	737.033736679926	-24.8742833866511	6.35927286461452	1.43944349494884	1.73648536368233	0.00846841898881635	-0.0181608162406795
0.7	8.13782742272093	-2.70238775891024	736.998491481188	-24.783442635899	6.38604870205079	1.44838387819571	1.74557634573809	0.00850547924587771	-0.0182893804638475
0.71	8.17181353730268	-2.6989556662953	737.015885509863	-24.7124772439701	6.41197177292505	1.45460004434182	1.75220544460387	0.00854075059380706	-0.0183935586300142
0.72	8.20940743760697	-2.68973881431086	737.081376448086	-24.661289590318	6.43733696138289	1.458232466272	1.75651164882586	0.00857467879648057	-0.0184732276006662
0.73	8.25004509040453	-2.67635917239301	737.189542807753	-24.6295065333875	6.46242940583452	1.4594959367294	1.75870597062633	0.00860770795140727	-0.0185286022595231
0.74	8.29312340281483	-2.66051135271164	737.334349680518	-24.6165212767727	6.48751549316692	1.4586656785164	1.75905745700663	0.00864026500225036	-0.0185601930390505
0.75	8.33801438600024	-2.64388960812331	737.509416938144	-24.6215353486598	6.51283512510826	1.45606207648017	1.75787785206993	0.00867274601102601	-0.0185687627539464
0.76	8.38408089983618	-2.62811504607945	737.708280435607	-24.6435987002734	6.53859559202715	1.45203475223772	1.75550564870066	0.00870550477541715	-0.0185552850059482
0.77	8.43069347140042	-2.61466636576491	737.924636898278	-24.6816462993766	6.56496730095125	1.44694667266299	1.75229023138026	0.00873884422973115	-0.0185209059612876
0.78	8.47724745850987	-2.60481737221262	738.152563420861	-24.7345300219455	6.59208150183489	1.44115892969123	1.74857675123384	0.00877301090390146	-0.0184669107589949
0.79	8.52317963785675	-2.59958429210574	738.386702977626	-24.8010450989606	6.62003004405486	1.43501675696941	1.74469229519942	0.00880819254264768	-0.0183946952326271
0.8	8.56798316259638	-2.59968551017078	738.622408157934	-24.8799508275455	6.64886707930627	1.42883726285076	1.74093381878743	0.00884451881488976	-0.0183057430656705
0.81	8.61121978046901	-2.60551577349781	738.855836602767	-24.9699856813159	6.67861251347635	1.42289926310531	1.73755821076201	0.00888206487929877	-0.0182016079920226
0.82	8.65252824869056	-2.61713619767291	739.083993398075	-25.0698773329794	6.70925690493524	1.41743549373666	1.73477475190496	0.00892085742209202	-0.0180839002295294
0.83	8.69162803552005	-2.63428058932372	739.304717998272	-25.178348416932	6.74076741635081	1.41262737716542	1.73274012181125	0.00896088265372673	-0.017954276018762
0.84	8.72831766001345	-2.65637772081099	739.516616063203	-25.2941190997138	6.77309435780537	1.40860240619016	1.73155599998216	0.00900209564734339	-0.0178144289433794
0.85	8.76246737931576	-2.68258830769257	739.718939779632	-25.4159076851073	6.80617781636255	1.40543410199062	1.73126920276907	0.00904443032858993	-0.0176660816356542
0.86	8.79400636425334	-2.71185460477119	739.911423623358	-25.5424305557469	6.83995385601032	1.40314439765719	1.73187419851918	0.00908780938834899	-0.0175109765162947
0.87	8.82290497657591	-2.74295980744701	740.09408586511	-25.6724027449162	6.87435979527283	1.40170820035291	1.73331775234519	0.00913215339080922	-0.0173508643706753
0.88	8.84915323521504	-2.77459387185699	740.267009161695	-25.8045403438741	6.90933812881389	1.40105979666601	1.73550537224017	0.00917738839212792	-0.0171874898085509
0.89	8.87273699060012	-2.80542199096228	740.430116020611	-25.9375657868103	6.94483875255101	1.40110069070203	1.73830916278744	0.00922345147083818	-0.0170225729727417
0.9	8.89361367160399	-2.83415181331034	740.582956513714	-26.07021682459	6.98081927479031	1.40170840676164	1.7415766442889	0.0092702936990268	-0.0168577872334616
0.91	8.91168968956	-2.85959558134383	740.724526117529	-26.2012597091147	7.01724334142681	1.40274575158597	1.74514006611245	0.00931788024906296	-0.0166947330068037
0.92	8.92680164693535	-2.88072369601878	740.853130814211	-26.329506774227	7.0540770615228	1.40407001808115	1.74882573510132	0.00936618752684177	-0.0165349082451188
0.93	8.93870338562706	-2.89670676746898	740.966314524234	-26.453838231325	7.091283778884	1.40554162519095	1.75246289376716	0.00941519743827505	-0.016379676539615
0.94	8.94706061702747	-2.90694395570368	741.060860584825	-26.573227615993	7.12881758300116	1.40703172797424	1.75589171850269	0.00946488911729291	-0.0162302341272504
0.95	8.95145441439168	-2.91107629554829	741.132874468033	-26.6867699466636	7.16661607657054	1.40842839730045	1.75897006401078	0.00951522865503359	-0.016087577381429
0.96	8.95139424465511	-2.90898468001536	741.177949483297	-26.7937113103253	7.20459300588466	1.40964105762229	1.76157865444839	0.00956615755459615	-0.0159524725677958
0.97	8.94634051261976	-2.90077318229406	741.191411157955	-26.8934782972811	7.24263140639469	1.4106029800957	1.76362451148352	0.00961758077799092	-0.0158254297449095
0.98	8.93573583709269	-2.88673936137141	741.16862973545	-26.9857054898609	7.28057791379623	1.41127175139335	1.76504251085764	0.00966935533861169	-0.0157066826724429
0.99	8.91904353447045	-2.86733405376203	741.105384222298	-27.0702590892793	7.3182388400729	1.41162776905456	1.76579506772114	0.00972128041460366	-0.0155961764511215
1	8.8957911104618	-2.84311384339159	740.99825611426	-27.1472547566966	7.35537851697566	1.41167094427905	1.76587006187227	0.00977308991200592	-0.0154935643606738
1.01	8.86561601173764	-2.81468987295341	740.845026783456	-27.2170678593808	7.39172027293229	1.41141591432756	1.76527722135657	0.00982444829321689	-0.0153982149940383
1.02	8.82831051466929	-2.78267687673339	740.645049900361	-27.2803345540725	7.42695024277463	1.41088617079737	1.76404328043131	0.00987495031325222	-0.0153092303246076
1.03	8.78386246414373	-2.74764625788034	740.399569499103	-27.3379425028717	7.46072402434089	1.41010758930755	1.76220630913507	0.00992412508502723	-0.0152254748111864
1.04	8.73248864285172	-2.71008670244901	740.111955556228	-27.3910104897646	7.49267600439455	1.40910189414005	1.75980967019305	0.00997144464025056	-0.0151456150702949
1.05	8.67465785491017	-2.6703752380573	739.787832290981	-27.4408567679944	7.52243099100427	1.40788060356258	1.75689608894777	0.0100163368808423	-0.015068169058488
1.06	8.61110133462462	-2.62876084531168	739.43507971026	-27.4889565922359	7.54961762257699	1.40643997563291	1.75350231897295	0.0100582025436302	-0.0149915631413463
1.07	8.54280881268513	-2.58536177036576	739.063695967063	-27.5368900411855	7.57388288601226	1.40475741058485	1.74965484757683	0.010096435543947	-0.014914194913858
1.08	8.47100944446747	-2.54017663495583	738.685516493126	-27.5862818773435	7.59490697722716	1.40278966746926	1.74536701175928	0.0101304458354135	-0.0148344992108261
1.09	8.39713777254689	-2.49310837182189	738.313795103178	-27.6387357806609	7.61241768385616	1.40047312522705	1.74063778965248	0.0101596837353133	-0.0147510144343986
1.1	8.32278589331572	-2.44399900673926	737.962661761542	-27.695765790681	7.6262034671273	1.39772616977275	1.73545240152368	0.0101836645272512	-0.0146624461526116
1.11	8.24964395618405	-2.39267243801312	737.646480813458	-27.7587281601872	7.63612446979322	1.3944536287883	1.72978470743259	0.0102019920731526	-0.0145677249050123
1.12	8.17943197349217	-2.33898169540454	737.379141568516	-27.8287570303652	7.64212077836564	1.39055301584959	1.72360123725575	0.0102143801515229	-0.0144660552977967
1.13	8.11382659510301	-2.28285674380573	737.173319574635	-27.906707359791	7.64421741603397	1.38592219688046	1.71686654590274	0.0102206702930044	-0.01435695378088
1.14	8.05438694887233	-2.2243487650276	737.039751214223	-27.993108364415	7.64252572915523	1.38046796617524	1.70954946501748	0.0102208450102971	-0.0142402729625272
1.15	8.00248382699722	-2.16366701563767	736.986565988807	-28.0881303523525	7.63724104325571	1.37411492668175	1.70162973371195	0.0102150355169721	-0.0141162109136725
1.16	7.95923638787638	-2.10120481037976	737.018719792344	-28.1915672774957	7.62863668941344	1.36681401823965	1.69310444357388	0.0102035232937478	-0.0139853046152905
1.17	7.92546014463995	-2.03755188932903	737.137568546203	-28.3028366137675	7.61705472221113	1.35855003354241	1.68399373211322	0.0101867351808912	-0.0138484074726162
1.18	7.90162934870934	-1.97349134444087	737.340614915028	-28.4209973024365	7.60289384922451	1.34934750674665	1.6743452042697	0.0101652320345478	-0.0137066516191319
1.19	7.88785599499552	-1.90998034480051	737.621451769562	-28.5447855927455	7.58659525344179	1.33927445199735	1.66423664937058	0.0101396913596458	-0.0135613965179474
1.2	7.88388663834616	-1.84811503687463	737.969915115026	-28.6726676323165	7.568627101038	1.32844356284667	1.65377674283382	0.0101108846942046	-0.0134141660953712
