Time [s]	GRFml [N]	GRFap [N]	GRFv [N]	Mml [N.m]	Map [N.m]	Mv [N.m]	Mfree [N.m]	COPml [m]	COPap [m]
0.01	0.939453869135036	1.99004419216163	727.435572849656	-60.9479226295206	3.60695637776389	-0.937129298600439	-0.86828451412326	0.0166451962385576	-0.00758054799148022
0.02	1.6903347436944	1.67957583694038	727.84092699951	-61.1578867294146	3.40515205956365	-0.804326042559802	-0.670147362133053	0.0163593662258566	-0.00734237747243772
0.03	2.42752756416919	1.37480445775793	728.236533186939	-61.3623412101443	3.20633766930985	-0.674000330159965	-0.475497401666942	0.0160774002588901	-0.00711042503847673
0.04	3.13784006174049	1.08114049552895	728.615435494467	-61.5565165546083	3.01331443003679	-0.54852270440536	-0.287879733746773	0.0158031822812162	-0.00689044683070968
0.05	3.80897098428276	0.803631606143926	728.971454967076	-61.7359986902381	2.82863173023748	-0.430097722156406	-0.110611579638446	0.0155402638193274	-0.00668781348921778
0.06	4.42997146524875	0.546772001790441	729.299454893871	-61.8969226823047	2.65449849102248	-0.320679647408425	0.0533469741224289	0.0152917386603524	-0.00650727261861939
0.07	4.99163968036613	0.314337283701714	729.595546928403	-62.0361354457575	2.49271132643427	-0.221900937323785	0.201504884617779	0.0150601397908414	-0.00635274618148687
0.08	5.48682980721454	0.109252594234222	729.857225075138	-62.151318736047	2.34460285452147	-0.13501700952884	0.331928718129288	0.0148473636407502	-0.00622717363550336
0.09	5.91066150093976	-0.0664999785548614	730.083419073245	-62.2410666030969	2.21101236663383	-0.0608697347659506	0.443303347385538	0.0146546251232767	-0.00613240816317995
0.1	6.26062199526731	-0.2119310057276	730.274463869816	-62.3049146572115	2.09227978885259	0.000129059305060242	0.534962045428262	0.0144824451874093	-0.00606916958166627
0.11	6.53655912771842	-0.327048943650151	730.431987355055	-62.3433216496433	1.98826255736001	0.0479939746265623	0.606885199222845	0.0143306707269623	-0.0060370537749492
0.12	6.74056966185861	-0.41282194599226	730.558723964072	-62.3576067895127	1.89837376564492	0.0831433558470238	0.659668827255025	0.0141985248462472	-0.00603459503530743
0.13	6.87679285332483	-0.471099433876542	730.658266760665	-62.3498487176285	1.82163880709948	0.106359576682229	0.69446588825345	0.014084683793507	-0.00605937475786361
0.14	6.95112394846396	-0.504498529899397	730.734774855545	-62.322753998867	1.75676680152903	0.118735174582176	0.712904874217742	0.0139873754503142	-0.00610816766274824
0.15	6.97086595611376	-0.516262017098311	730.792656167501	-62.2795042922359	1.70223241178805	0.121608314783455	0.716991288304008	0.0139044931978713	-0.006177115218613
0.16	6.94434042281107	-0.510095590385841	730.836247371144	-62.2235919779875	1.65636326124594	0.116491426890865	0.708998260092741	0.0138337183312219	-0.00626191523744071
0.17	6.88047899124409	-0.489992790262444	730.869513234333	-62.15865397964	1.6174280675068	0.104996971978654	0.691352737235378	0.013772643990023	-0.00635801667066693
0.18	6.78841724516933	-0.460056146775998	730.895786375989	-62.0883128740206	1.58372080583275	0.0887641792195419	0.666523445412081	0.0137188938175139	-0.00646080937504598
0.19	6.67711084045136	-0.424322747635237	730.917565819167	-62.0160332274933	1.55363668142165	0.0693902654451022	0.636916192846279	0.0136702292142461	-0.00656579990807191
0.2	6.55499136300911	-0.38660173616424	730.936388728919	-61.9449995490854	1.52573638151067	0.0483691563235429	0.604781197553031	0.0136246400589878	-0.00666876610637675
0.21	6.42967596789336	-0.35033021921233	730.952784660351	-61.8780204431791	1.4987959423477	0.0270401080228295	0.572136030639905	0.0135804150426897	-0.00676588513545401
0.22	6.3077409040537	-0.318452809646245	730.966315833091	-61.8174616117469	1.47184054038632	0.00654793010501042	0.540706591698222	0.0135361892039486	-0.00685383171836813
0.23	6.19456479802102	-0.293328632767803	730.975700788385	-61.7652084295208	1.44416153595585	-0.0121842197831705	0.511887347747763	0.013490967760265	-0.00692984521383998
0.24	6.09424333528814	-0.276668176736263	730.979012702857	-61.7226570128743	1.4153170962791	-0.0284692181532773	0.486720946222277	0.0134441267940003	-0.00699176600396803
0.25	6.00957299812196	-0.269500939916419	730.973938060978	-61.6907311236264	1.38511764319891	-0.0418579544034816	0.465896309620855	0.0133953926801709	-0.00703804318237085
0.26	5.9420980138473	-0.272173485827357	730.958076731449	-61.6699209687243	1.35359815808987	-0.0521299170512721	0.449763472954333	0.0133448032563329	-0.00706771674952297
0.27	5.8922118107559	-0.284376306918168	730.929261098771	-61.6603390271364	1.32097999239856	-0.0592738871375793	0.438362758552426	0.013292654575749	-0.00708037839800836
0.28	5.85930218583981	-0.30519685478321	730.885870034208	-61.661787482208	1.28762525065752	-0.0634606084380798	0.431465407283218	0.0132394376213157	-0.00707611550668678
0.29	5.84192811599776	-0.333195236269239	730.827113309967	-61.6738316626826	1.25398702146971	-0.0650095469627296	0.428622501716341	0.0131857695818627	-0.00705544318034364
0.3	5.83801569022152	-0.366498410767709	730.753263608999	-61.6958740778509	1.22055873275115	-0.0643519664696783	0.429218917947177	0.0131323242199732	-0.00701922910622732
0.31	5.84506094944149	-0.402908254105261	730.66581648027	-61.727224132109	1.1878257152865	-0.0619925372347503	0.432529114664009	0.0130797655259863	-0.00696861569650031
0.32	5.86032839387003	-0.440018573654346	730.567563237344	-61.7671593666107	1.15622169924465	-0.0584715725667719	0.437771790940764	0.0130286883047104	-0.0069049434964997
0.33	5.88103542267926	-0.475336059332243	730.462567592854	-61.8149750347881	1.12609247600108	-0.0543297667267006	0.444160793868974	0.0129795686358488	-0.00682967921455875
0.34	5.90451485549122	-0.50640022642978	730.356043374267	-61.8700199018718	1.09766837218361	-0.0500770079083319	0.450950105513372	0.0129327263447122	-0.00674435102034886
0.35	5.92834979016308	-0.530897638567824	730.254137530963	-61.9317172916059	1.0710465464599	-0.0461664823160524	0.457471255259708	0.0128883007724227	-0.00665049301246094
0.36	5.95047722239925	-0.546766081781402	730.163629346603	-61.9995715135615	1.04618347383564	-0.0429748931392251	0.463162056725	0.0128462402944055	-0.00654960001510481
0.37	5.96925895075973	-0.552284881639109	730.091562849218	-62.0731608249846	1.02289736560795	-0.0407892146483486	0.467586126694195	0.0128063052444493	-0.00644309316598833
0.38	5.98352019978783	-0.546148199629624	730.044834440424	-62.1521189542498	1.00087971885969	-0.0398000090962447	0.470443177679342	0.0127680831923477	-0.00633229613422402
0.39	5.99255802677948	-0.527518894029785	730.02976139124	-62.2361078928292	0.979714724005028	-0.0401009729756387	0.471570559793504	0.012731014921429	-0.00621842128314301
0.4	5.99612287744374	-0.496061360379578	730.051658817211	-62.3247851173855	0.958904901310767	-0.0416940668892367	0.470936940555246	0.0126944289764431	-0.00610256468491356
0.41	5.99437759600754	-0.451952648444498	730.114452904123	-62.4177686167462	0.937901098537516	-0.0444993335279271	0.468629337474521	0.0126575823148347	-0.00598570860985558
0.42	5.98783877739154	-0.395872052140679	730.220356483514	-62.5146030697137	0.916134865196817	-0.0483683304359723	0.464834948358043	0.012619704402813	-0.00586872995217283
0.43	5.97730559698405	-0.328970248710049	730.369629652434	-62.6147302640973	0.89305122069991	-0.0531000031690005	0.459819354802642	0.0125800420544347	-0.00575241300554927
0.44	5.96378120831162	-0.252819884308296	730.560443207417	-62.7174663942804	0.868139944094935	-0.0584578002474927	0.453902707566606	0.0125379024144337	-0.00563746504925353
0.45	5.94839151230159	-0.16935022707441	730.788856531475	-62.8219882649943	0.840963717478189	-0.0641868796215699	0.447435445648133	0.0124926917250311	-0.0055245333253913
0.46	5.93230563031248	-0.0807691016587508	731.048914627813	-62.9273297121054	0.811181735260831	-0.0700303688053305	0.440774965299457	0.0124439478779032	-0.00541422215569266
0.47	5.9166618126507	0.0105242461985737	731.33286168098	-63.0323887811345	0.778567726720432	-0.0757438056727142	0.434264455365077	0.0123913652122775	-0.00530710913743404
0.48	5.90250183634105	0.102031448496546	731.631461316307	-63.1359454356547	0.743021708043429	-0.081107089927259	0.428214867908146	0.0123348105495066	-0.00520375955207968
0.49	5.8907162345999	0.191248497461366	731.93440708638	-63.236688852172	0.704575160733057	-0.0859335008267232	0.422890715877292	0.0122743300189734	-0.00510473830209572
0.5	5.88200199104391	0.275756540892747	732.230801066948	-63.3332527404022	0.663389705096883	-0.0900755688937207	0.418500100500992	0.0122101467924166	-0.00501061885325563
0.51	5.87683365020945	0.353306397994749	732.509674157275	-63.4242566432275	0.619749681485715	-0.0934278128680308	0.415189087284578	0.0121426503663977	-0.0049219888008547
0.52	5.87544815997475	0.421893629914617	732.760519025396	-63.5083508425643	0.574049351326465	-0.0959265545836196	0.413040286322602	0.0120723784816879	-0.00483945180389259
0.53	5.87784318144404	0.479821546072992	732.973805783342	-63.5842623368208	0.526775670997552	-0.0975471928344065	0.412075263063687	0.0119999931162367	-0.00476362575082627
0.54	5.88378808322504	0.525750162330971	733.14145146842	-63.6508393609668	0.478487763945751	-0.0982994447380781	0.41226021959008	0.011926252216427	-0.00469513714464799
0.55	5.89284638242784	0.55872981600719	733.257217168999	-63.7070920786423	0.429794313817894	-0.098221145049024	0.413514250455188	0.0118519789312835	-0.00463461183290842
0.56	5.90440800589054	0.578218851723423	733.317010974975	-63.7522273651843	0.381330121835404	-0.0973712290497151	0.415719394272587	0.0117780300888266	-0.00458266236478289
0.57	5.91772942447015	0.584085488669545	733.319080559484	-63.7856759925047	0.333733017834348	-0.095822514856081	0.418731672402176	0.0117052655156733	-0.00453987243119731
0.58	5.93197946451675	0.576594634530916	733.264085733272	-63.8071109894076	0.287622193562719	-0.0936548506087398	0.422392326157893	0.0116345195715253	-0.00450677902749431
0.59	5.94628842918593	0.556380997837753	733.155048326458	-63.8164564515019	0.243578850443384	-0.0909491075487943	0.426538528496725	0.0115665759765053	-0.00448385315707134
0.6	5.95979807433094	0.52441034658854	732.997183791051	-63.8138865824081	0.202129837081316	-0.087782389323003	0.431012947855869	0.0115021466814513	-0.00447148005045245
0.61	5.97170998560946	0.481931148671708	732.797625537329	-63.7998152351523	0.163734711814655	-0.0842246998531369	0.435671672154588	0.0114418551991089	-0.00446993998723053
0.62	5.98133000004272	0.430419095662339	732.565058813119	-63.7748766669909	0.128776421244687	-0.0803371759381568	0.440390150706656	0.0113862245044644	-0.00447939085948876
0.63	5.98810650871648	0.371517148260484	732.309285567968	-63.7398986052847	0.097555555245485	-0.0761718555519668	0.445066971330939	0.0113356693466854	-0.00449985359028242
0.64	5.99166076571406	0.306973747420241	732.040744962309	-63.6958690346412	0.0702879388690079	-0.0717728271829456	0.44962544978673	0.0112904926078872	-0.00453120141193054
0.65	5.99180770480886	0.238581715384212	731.770015834572	-63.6438983494465	0.0471051649118692	-0.0671784973142229	0.454013159648508	0.0112508852023901	-0.00457315381688217
0.66	5.98856621748822	0.168120137787481	731.507327484687	-63.585178668308	0.0280575662907552	-0.0624246288646644	0.458199664396782	0.0112169289343008	-0.00462527572803371
0.67	5.98215835561614	0.0973011909240196	731.262103635862	-63.5209421782964	0.0131190781684154	-0.0575477482119915	0.462172822365617	0.0111886017151055	-0.00468698211264904
0.68	5.97299746669637	0.0277234821065324	731.042561561983	-63.4524203700875	0.00219344395026155	-0.0525884956523426	0.465934113151295	0.0111657845759749	-0.00475754790767208
0.69	5.96166582284648	-0.0391669653380893	730.855384362674	-63.380805944726	-0.00487873020950502	-0.047594505174138	0.469493476812628	0.0111482699784996	-0.00483612276127346
0.7	5.94888283783	-0.10210739710177	730.705479542119	-63.3072190244458	-0.00831248201883739	-0.0426224434427511	0.472864162493727	0.0111357710185748	-0.00492174975438908
0.71	5.93546545136935	-0.160040424361845	730.595831748858	-63.2326790902726	-0.00837086326328773	-0.0377389118878846	0.476058051249348	0.0111279312177672	-0.00501338697426265
0.72	5.92228266993429	-0.212127654796623	730.52745212127	-63.1580838051787	-0.00535736241858586	-0.033020014575823	0.479081851755342	0.0111243346930347	-0.00510993059408303
0.73	5.91020656535299	-0.257755298251293	730.499421501664	-63.0841955713164	0.000391537600854974	-0.0285495110038729	0.481934472726317	0.0111245165797372	-0.00521023798857466
0.74	5.90006222900283	-0.296532427062454	730.509020136009	-63.0116363222674	0.0085136702171198	-0.0244155983879095	0.484605759996577	0.0111279736475343	-0.00531314939882617
0.75	5.8925792480722	-0.328282729509885	730.551932612188	-62.9408906765708	0.0186284262127145	-0.0207064927556779	0.487076658810502	0.0111341750894779	-0.00541750675779322
0.76	5.88834720622465	-0.353030675318839	730.622513879124	-62.8723171888513	0.030344011823459	-0.017505092284918	0.489320733295896	0.0111425734791125	-0.00552216850010039
0.77	5.8877775159517	-0.370983024910579	730.714100321858	-62.8061670432777	0.0432648024322901	-0.014883100494385	0.491306855739659	0.0111526158785891	-0.0056260194969063
0.78	5.89107357350183	-0.382506574869861	730.819349050919	-62.74260915624	0.0569988322574488	-0.0128950531959247	0.493002777592245	0.0111637550447475	-0.00572797566088705
0.79	5.89821080650323	-0.388102959922992	730.930588728718	-62.681760307974	0.071165399247441	-0.0115727258229301	0.494379219761359	0.011175460624066	-0.00582698323158293
0.8	5.90892768307347	-0.388381246812	731.040166269089	-62.6237186242247	0.0854026893217821	-0.0109203938847988	0.495414076970225	0.0111872301577408	-0.00592201324383647
0.81	5.92272819863332	-0.384028976899899	731.14077543072	-62.5685984967214	0.0993752455467742	-0.0109113788993278	0.496096322232003	0.0111985996432846	-0.00601205216294078
0.82	5.93889578551818	-0.375782257999252	731.225755478732	-62.516564881695	0.112781036403518	-0.0114862382464245	0.496429222469554	0.0112091533287143	-0.00609609009826854
0.83	5.95651803422347	-0.364395482644679	731.289350505253	-62.467864862646	0.125357822737421	-0.0125528556256229	0.496432531991446	0.0112185323600862	-0.00617310834285453
0.84	5.9745211049498	-0.350611264509697	731.326922489072	-62.4228544166492	0.136888493293839	-0.0139885668955197	0.496143411706539	0.0112264418728375	-0.00624206819528232
0.85	5.99171227036525	-0.33513123486371	731.335113576432	-62.3820184869648	0.147205039499269	-0.0156443230357728	0.495615921756707	0.011232656120472	-0.00630190307686496
0.86	6.00682868461013	-0.31858841830174	731.311955260432	-62.3459827367939	0.156190873904642	-0.0173507572923941	0.49491904580368	0.0112370212760415	-0.00635151584781353
0.87	6.0185902309925	-0.301521997213836	731.25692405001	-62.3155157314306	0.1637812627296	-0.0189258964046981	0.494133318320995	0.0112394556241662	-0.00638978295052832
0.88	6.02575416500538	-0.284355359177284	731.170944818986	-62.291520754273	0.169961737172294	-0.0201841442756012	0.493346234010404	0.0112399469810154	-0.00641556657962843
0.89	6.02716923658558	-0.267378380068461	731.056344315629	-62.2750169858699	0.174764463481353	-0.0209460770344096	0.492646713812105	0.0112385473291482	-0.00642773552287879
0.9	6.02182703683516	-0.250734907774425	730.916758326536	-62.2671103392594	0.178262678687645	-0.0210485257102428	0.49211897906582	0.0112353648217576	-0.00642519467152655
0.91	6.00890845731284	-0.234416359063774	730.756996776069	-62.2689548204606	0.180563426251119	-0.0203543892308229	0.491836239810267	0.0112305534820844	-0.00640692250747317
0.92	5.98782336093161	-0.218262212339986	730.582871662826	-62.2817058390267	0.18179894205236	-0.0187616168979585	0.491854632087299	0.011224301082498	-0.00637201518771759
0.93	5.95824182973764	-0.201967965076107	730.400993245573	-62.3064673983444	0.182117135115703	-0.0162108251047504	0.49220784097028	0.0112168158181739	-0.00631973521437432
0.94	5.9201156657881	-0.185100827872673	730.218540341904	-62.3442355184321	0.1816716698698	-0.0126910660413009	0.492902820672645	0.011208312478602	-0.0062495621496528
0.95	5.87368916895135	-0.167123056687549	730.043011029463	-62.3958405581511	0.18061218101893	-0.008243344012133	0.493916971474629	0.0111989988560854	-0.00616124245186821
0.96	5.81949859380275	-0.147422398312101	729.88196046005	-62.4618912870236	0.179075135088603	-0.00296157486510196	0.495197057384179	0.0111890631085586	-0.00605483530401583
0.97	5.7583600918893	-0.125348666278271	729.742732910985	-62.5427235942335	0.17717579526775	0.00300919734719929	0.49666005156604	0.0111786627147799	-0.00593075130202693
0.98	5.69134636980878	-0.100255005505631	729.632195586639	-62.6383566071429	0.175001653236912	0.00947737871798204	0.498195982925797	0.0111679155295697	-0.00578978107322231
0.99	5.61975272980323	-0.0715419783880415	729.556482010555	-62.7484587260878	0.172607571954948	0.016212106888704	0.499672732322077	0.0111568932771878	-0.00563311129996215
1	5.54505359636041	-0.0387022484241664	729.520753066379	-62.8723256776829	0.170012748580099	0.0229529941958841	0.500942597391387	0.0111456176286989	-0.00546232620820195
1.01	5.46885105405195	-0.00136338456804452	729.528983797068	-63.0088721651318	0.1671994703484	0.029421943378658	0.501850318647343	0.0111340588136429	-0.00527939331204662
1.02	5.39281730925678	0.0406738089656287	729.583783896989	-63.1566380779914	0.164113512176783	0.0353365080942341	0.502242144833687	0.0111221365376765	-0.00508663303951615
1.03	5.31863331990824	0.0874039924276637	729.686259374697	-63.3138095476556	0.160665925574435	0.0404241500671141	0.501975421163991	0.0111097228345935	-0.00488667275038443
1.04	5.24792609093966	0.138595360730126	729.835922079413	-63.4782544339449	0.15673590388932	0.0444366517655927	0.500928118298528	0.0110966463878697	-0.00468238653916814
1.05	5.18220728849739	0.193779033619581	730.030652641504	-63.6475711390875	0.152174384674431	0.0471638871176412	0.499007689645745	0.0110826978223626	-0.00447682304011936
1.06	5.12281586701891	0.252251156015993	730.266720867737	-63.8191490035118	0.146808066877533	0.0484461407528534	0.49615865468886	0.0110676354926966	-0.0042731241649442
1.07	5.07086731935099	0.313088394954739	730.538865772138	-63.9902379758234	0.140443574484785	0.0481842040880138	0.492368358565471	0.0110511913754342	-0.00407443826322751
1.08	5.02721194732627	0.375176708643103	730.840435256848	-64.1580247952694	0.132871580523151	0.04634656649923	0.487670451800109	0.0110330767948514	-0.00388383156494046
1.09	4.9924042118499	0.437252394729933	731.163583056328	-64.3197126014448	0.123870803869409	0.0429731601152887	0.482145764173716	0.0110129878592546	-0.00370420192016706
1.1	4.96668476780649	0.497953558460185	731.499518020403	-64.472600709012	0.1132118921645	0.038175301411022	0.47592040524177	0.010990610635625	-0.00353819878228101
1.11	4.94997623676459	0.555879342293969	731.838798256461	-64.6141612637195	0.100661293202329	0.032131691618472	0.469161100377049	0.010965626223964	-0.00338815308948873
1.12	4.94189314222965	0.60965359304366	732.171660213861	-64.7421096315221	0.0859852819734712	0.0250805773173437	0.462067953056842	0.0109377159904128	-0.00325602020126962
1.13	4.94176575595085	0.657989171993167	732.488370617701	-64.8544656590636	0.0689543417136136	0.0173084162103021	0.454864998392043	0.0109065672660148	-0.00314333836836204
1.14	4.94867691172028	0.699748888327189	732.779587387951	-64.9496033677938	0.0493480896047416	0.00913562362741827	0.447789066965561	0.010871879808139	-0.00305120439583798
1.15	4.96151017065491	0.733999090555686	733.036714448456	-65.0262871852643	0.0269608906672971	0.000900175595548225	0.44107760067597	0.0108333732533901	-0.00298026724542275
1.16	4.97900710634086	0.760052297465622	733.252234756322	-65.0836934493564	0.00160822101373981	-0.00706000105334881	0.434956144469809	0.0107907956706326	-0.00293073936852657
