Time [s]	GRFml [N]	GRFap [N]	GRFv [N]	Mml [N.m]	Map [N.m]	Mv [N.m]	Mfree [N.m]	COPml [m]	COPap [m]
0.01	-1.65719220996254	0.535737389663796	738.131744615009	14.2885240047488	42.043641205723	0.620276314215657	-0.682868621051893	0.000611138832376734	3.02858319509713e-05
0.02	-1.63335297229998	0.697246837144707	737.980992343393	14.310486193834	41.9337993990399	0.639538986357409	-0.71079189358327	0.000648043689434163	-0.000110652181172677
0.03	-1.61606852642597	0.850447261138172	737.847948473768	14.3243613713334	41.8380350501205	0.656058476457904	-0.735621636769969	0.000673415515360709	-0.000233748807862644
0.04	-1.61190251749447	0.987979976918006	737.749739275857	14.3240395198646	41.7686131680366	0.667590834023169	-0.754820318679833	0.000678437451073099	-0.000323606957278288
0.05	-1.62618522192835	1.10485414405807	737.695555766852	14.3058953939453	41.7333192194132	0.67293841275234	-0.767008642264733	0.000657896035505479	-0.000370343718348376
0.06	-1.66216678948183	1.19905632684183	737.68409932898	14.2691973215344	41.7341290018848	0.672149628154403	-0.772183191214751	0.00061080844426975	-0.000371201287540979
0.07	-1.72016020173277	1.27155219589075	737.70325294876	14.2158981817283	41.7669561085218	0.666420552232257	-0.771600887977892	0.00054014732164287	-0.000330851350495875
0.08	-1.79692644381285	1.32573209346484	737.732056678749	14.149915660752	41.8225510792311	0.65774768082132	-0.767387774027486	0.00045180636863229	-0.000260304176319115
0.09	-1.88560085755013	1.36648073518349	737.744777263153	14.0761392331706	41.8883857153103	0.648440937508696	-0.761997543997907	0.000353136385275232	-0.00017464085572394
0.1	-1.97638698008917	1.39911726998065	737.71656361867	13.9994424721536	41.9511407159649	0.640626350776923	-0.757667782377789	0.000251446694963353	-9.005568188869e-05
0.11	-2.05805957597354	1.42845294971748	737.629793437781	13.9239241204856	41.9992833268137	0.635850028840112	-0.756000240320898	0.000152802241467409	-2.08409739755333e-05
0.12	-2.12006878435053	1.45816369242527	737.479811997866	13.8524853107974	42.0252059005473	0.634852879375388	-0.757741413565473	6.12982213279434e-05	2.30673764590184e-05
0.13	-2.15479957853753	1.49058647796208	737.278540707332	13.786728726467	42.0264966987495	0.63753655316532	-0.762781044714303	-2.11676317093401e-05	3.75224721431699e-05
0.14	-2.15940264417146	1.52693189492977	737.054595990395	13.7270847352122	42.0061046848455	0.643098896243675	-0.770334835363297	-9.47213727153784e-05	2.43636944041725e-05
0.15	-2.13664296478454	1.56777903245864	736.849196512009	13.6730486709408	41.9713968719967	0.650288062838777	-0.779242225816097	-0.000161080315686846	-9.56232533949608e-06
0.16	-2.09443029793083	1.61361885813005	736.708157337863	13.6234423615855	41.9323398504307	0.657708939589077	-0.788293415440065	-0.000222991003195117	-5.4261683362089e-05
0.17	-2.04405349626997	1.66518287398887	736.671422409103	13.576663425513	41.899219503963	0.664112413738894	-0.796502091646561	-0.000283626322950314	-9.8882044656301e-05
0.18	-1.99753041214013	1.72336593833631	736.762530690374	13.53092744424	41.8804081038653	0.66860696916743	-0.803260888743669	-0.000345995376554109	-0.000133923995836616
0.19	-1.96477474797492	1.78871788523414	736.980808209305	13.4845221345774	41.8806745044368	0.670753275503243	-0.808352588726283	-0.000412408312791435	-0.00015291941333534
0.2	-1.9513650729471	1.86068270162663	737.298698234537	13.4360780219985	41.9004086402617	0.670533713501773	-0.811834274292052	-0.000484047326732462	-0.000153262585203373
0.21	-1.95754302604256	1.93692078413256	737.66546833005	13.3848302403448	41.9359164618223	0.668223474313767	-0.813851910319402	-0.000560706371409703	-0.000136081947715139
0.22	-1.97871524060491	2.0130808861848	738.016823997722	13.3308194786934	41.9806809287107	0.664217448063673	-0.814465203051203	-0.000640756961918676	-0.000105261714749116
0.23	-2.00729919290576	2.08326316398225	738.288214465079	13.2749711151443	42.0272430676485	0.658877126995754	-0.813557101727909	-0.000721368005939915	-6.59145780972925e-05
0.24	-2.03537102419232	2.14117027269723	738.4284315071	13.2190056949805	42.0692029025587	0.652449045138236	-0.810868514212515	-0.000798960292812123	-2.27222725850407e-05
0.25	-2.05735257326325	2.18167149919744	738.409938487142	13.1651681336575	42.1028233752508	0.645074588778199	-0.806147708840048	-0.000869826020189257	2.14315520803421e-05
0.26	-2.07196933521136	2.2023126667208	738.233341193296	13.1158086958051	42.12785134745	0.636872472541845	-0.799354649009392	-0.000930805203424812	6.62159231477055e-05
0.27	-2.08291374861934	2.20426984020944	737.925213442083	13.0728942423779	42.1474090307425	0.628045404614328	-0.790832945200699	-0.000979892746059141	0.000113860375804298
0.28	-2.09800317282679	2.19238655209604	737.530483006458	13.03756071303	42.1670778709275	0.618953516905302	-0.781368139204948	-0.00101665469772882	0.000168491527587133
0.29	-2.12704149912245	2.17420758109177	737.10206177616	13.0098255936741	42.1935054006026	0.610112076161475	-0.772089410785438	-0.00104235870850244	0.000235040681699772
0.3	-2.17897291968649	2.15823601544009	736.690877148988	12.9885543987008	42.2329491126138	0.602102890998841	-0.764228408636928	-0.00105977013206371	0.000318039530118774
0.31	-2.25914995885043	2.15188774226505	736.338833400774	12.9717177032983	42.2901155402327	0.595424415804072	-0.758802523838896	-0.00107262880044456	0.000420592551585164
0.32	-2.36754195201636	2.1597134177403	736.07581397856	12.9568953807597	42.3674960772205	0.590331287809474	-0.756320787988113	-0.00108489489251828	0.000543711787043655
0.33	-2.49845590772951	2.18237108119227	735.920210411897	12.9419039042489	42.4652148320011	0.586721498190779	-0.756608153567635	-0.00109992041377538	0.000686073780467755
0.34	-2.64188244434137	2.21659909212365	735.881260293797	12.9253689664993	42.5812595057633	0.584117569917285	-0.7588103507639	-0.00111974347218347	0.000844157210931229
0.35	-2.78605319678196	2.25614712519203	735.961138216904	12.9070642424376	42.7119074095256	0.581761987135239	-0.761589353688565	-0.00114469391456917	0.00101266692031288
0.36	-2.92038820321974	2.2933727871196	736.155353651979	12.8878978686226	42.852187660625	0.578814340244578	-0.763465349889202	-0.00117343066709474	0.00118514170033529
0.37	-3.03788383513413	2.32107209040683	736.451253674149	12.8695382586972	42.9963038654459	0.574605867456565	-0.763219331073473	-0.00120341361418008	0.00135465827385911
0.38	-3.13620596194047	2.33409923962751	736.825721073534	12.8537958168882	43.1380289375971	0.568883439861544	-0.760250029240751	-0.00123167796365342	0.0015145601145925
0.39	-3.21723374264778	2.33041707830745	737.243904344901	12.8419721977072	43.2711315549248	0.561966719234671	-0.754784063663486	-0.0012556716801092	0.00165914510943449
0.4	-3.28535854968751	2.3113627182912	737.660680626694	12.8344152118312	43.3898830637401	0.554755362713923	-0.747869286836161	-0.0012738796548365	0.00178424161268942
0.41	-3.34525978562937	2.28108395318307	738.025604860173	12.8304577521881	43.4896349309347	0.54855939033379	-0.74113454458131	-0.0012860162841235	0.00188759764931162
0.42	-3.39999866129326	2.24528584433064	738.290756281094	12.8287861220875	43.5673821178613	0.544778569423337	-0.736364262963187	-0.00129271369334427	0.00196901376305525
0.43	-3.45006499285988	2.20960350775364	738.419710793823	12.8281198345702	43.6221746572753	0.544510490136679	-0.734996494952705	-0.00129482220204946	0.00203017359635116
0.44	-3.49358651591226	2.17804451525298	738.395286265517	12.8279520780375	43.6552360623125	0.548201867789175	-0.73768776915146	-0.00129260265297826	0.00207416995856707
0.45	-3.52745040928116	2.15196410840872	738.223897412034	12.82905367783	43.669701344699	0.555456735923149	-0.744080437426064	-0.00128515637324866	0.00210478473800518
0.46	-3.54877481991576	2.12990633631381	737.935201990384	12.8335100925639	43.6699860102222	0.565073495267287	-0.752853864003425	-0.00127036949545323	0.00212564852200253
0.47	-3.55610990464546	2.10837671287236	737.576919672281	12.8442229878516	43.6609094923064	0.575311527084743	-0.762053486847482	-0.00124546045095975	0.00213946145396288
0.48	-3.54993810708749	2.08328953809295	737.205909531579	12.8640074163519	43.6467828036588	0.584312294096751	-0.769601069508486	-0.00120798130663169	0.00214747527065734
0.49	-3.53237987402493	2.05158198807497	736.877503310268	12.8945774226507	43.6306959114083	0.590548262605537	-0.77382942930518	-0.0011569285138453	0.00214939497862332
0.5	-3.50634500492714	2.01241905491983	736.635506679193	12.9357744625433	43.614188619871	0.59316525277811	-0.773878990226004	-0.00109354541601514	0.00214375190187066
0.51	-3.47456901537371	1.96756634591291	736.505103931284	12.9853285232678	43.5973703045207	0.592122085865685	-0.769843671284187	-0.00102148008008018	0.00212865141151375
0.52	-3.43897231628383	1.92082190577031	736.490157944545	13.0392715324145	43.5794072467022	0.588100218812968	-0.762639959808532	-0.000946171540835761	0.00210265968871037
0.53	-3.40059689478438	1.87674285615045	736.575252467296	13.0929055962748	43.5591757910494	0.582229937208979	-0.753663003816521	-0.000873600747326231	0.00206552464104343
0.54	-3.36009919784121	1.83913856548051	736.731578754417	13.1420413367107	43.5358333820633	0.575733355660965	-0.744355643899914	-0.000808764455939359	0.00201846708293413
0.55	-3.31852675461434	1.80984580985422	736.924793210664	13.1841299708519	43.509108237189	0.569601510789874	-0.735831441974226	-0.000754331669800212	0.00196392621528696
0.56	-3.27797932861195	1.78815750558523	737.12258215839	13.2189474011536	43.4792334391617	0.564400181883303	-0.728659944755489	-0.000709889059553936	0.0019048464540829
0.57	-3.2417984700645	1.77102427843852	737.299995362152	13.2486338135348	43.4466010066401	0.560247159112872	-0.722857323876093	-0.000671997297013838	0.00184376947129217
0.58	-3.21411964320551	1.75389530130992	737.441532515815	13.2770938081092	43.411323101666	0.556942260767488	-0.71805354366348	-0.00063503324921288	0.00178207024805693
0.59	-3.19887974590775	1.73189786265584	737.540152765437	13.3089496008505	43.3729147909122	0.554182322772004	-0.713753534202848	-0.000592568997839105	0.00171961417265715
0.6	-3.1985969694214	1.70100928429195	737.594399292771	13.3483540030419	43.3302475930369	0.551772542681107	-0.709590462583437	-0.000538906960631302	0.00165493848595133
0.61	-3.21334367620727	1.65893439967693	737.605324547045	13.3979820080628	43.2817988278258	0.549757352132318	-0.705486064317689	-0.000470381662706409	0.00158585152338259
0.62	-3.24028049963114	1.60552178786418	737.574700168978	13.4584379726206	43.2260967260247	0.548430740644402	-0.701675331635788	-0.000386139697142962	0.00151019010942544
0.63	-3.2739368604374	1.54268449725764	737.505198804163	13.5281772506352	43.1621898249599	0.548232340277705	-0.698603210132482	-0.000288273588893939	0.00142644467391817
0.64	-3.30718243201004	1.47390298689546	737.402182686294	13.6038975598736	43.0899770074601	0.549575295345982	-0.69674255271065	-0.000181353451757627	0.00133405967272637
0.65	-3.33262372279805	1.40346435451238	737.275880000217	13.681250594731	43.0103093860614	0.552673084550225	-0.696404266457087	-7.15237098000143e-05	0.0012333894068931
0.66	-3.34404833921744	1.33562872090999	737.142453699796	13.7556806847528	42.9248763980457	0.557429939806086	-0.697608215124989	3.46113050541108e-05	0.00112544977134243
0.67	-3.33755332262532	1.27391036214903	737.022898338511	13.8232105646254	42.8359679185626	0.563435052902841	-0.700059086680242	0.000131092445915248	0.00101167898484827
0.68	-3.31211483939949	1.22061855690577	736.939648551458	13.8810424593548	42.7462283859536	0.570062239077883	-0.703232599400951	0.000213520581972659	0.000893875222967799
0.69	-3.26953400080632	1.17672713483008	736.911820217261	13.9279004903283	42.6584823229878	0.57663704220005	-0.706536452533144	0.000279652750382109	0.000774344114444714
0.7	-3.21386583603621	1.14204820051306	736.950664423681	13.9640916307012	42.5756363113306	0.582607453323783	-0.709482244866338	0.000329605948333089	0.000656134067553216
0.71	-3.15055219309826	1.11559971206146	737.056803161049	13.9913029719239	42.5005905121984	0.587653949225487	-0.711801261574346	0.000365652525956328	0.000543140587192625
0.72	-3.08550497754563	1.09600663053806	737.220146819452	14.0121862143191	42.4360616523604	0.591701080538439	-0.713461343863266	0.000391654866387925	0.000439872970741884
0.73	-3.02432596371326	1.08178209967322	737.422372286441	14.0298094335745	42.384248128849	0.594835626012502	-0.714584489328215	0.000412253206677371	0.000350798813929909
0.74	-2.97173749198364	1.07140197409979	737.640923087544	14.0470796315977	42.3463473614801	0.597176313456913	-0.715307015655044	0.000431975320120959	0.000279364019422634
0.75	-2.93118929980894	1.06319248710657	737.853077987285	14.0662500648533	42.3220320704666	0.598758988208028	-0.715647427435726	0.000454460825404457	0.000226950707291895
0.76	-2.90455359716874	1.05515482119124	738.038875634107	14.0886147095542	42.3090624195887	0.599490495895603	-0.715441604830189	0.000481970319625824	0.000192111597297817
0.77	-2.89184935222912	1.04490271211728	738.182415189666	14.1144536925886	42.303220919774	0.599190086668113	-0.714373860934772	0.000515278323626633	0.000170374304504173
0.78	-2.89103103729142	1.02985737136382	738.271877996627	14.1432330292782	42.2986961095161	0.597695623111025	-0.7120904584242	0.000553945894804175	0.000154760149571276
0.79	-2.89798192790391	1.00773219284179	738.29911365034	14.1739949207056	42.2889251388862	0.594982860182001	-0.708348265259338	0.000596864868842695	0.000136964399057193
0.8	-2.90689797249346	0.977192379148949	738.25958962395	14.2058215714253	42.2677685326224	0.59124245246426	-0.703139641262962	0.000642893950620671	0.000108961726914714
0.81	-2.91118475629544	0.938458117239763	738.153011955748	14.2382329860172	42.2307721614163	0.586881420936722	-0.696748609804126	0.000691388025272577	6.46784827803004e-05
0.82	-2.90481555906047	0.893591723935586	737.984318013894	14.2713952137387	42.1762066768768	0.582451663796521	-0.689724246230907	0.000742458581252547	1.33330323737191e-06
0.83	-2.88387210555235	0.846290975655392	737.764383643755	14.3060679153862	42.1055878567797	0.578539870358277	-0.682789494906516	0.000796883479052046	-7.99056362911776e-05
0.84	-2.84781429671448	0.8011779694638	737.50985755332	14.3432986177343	42.0234819017191	0.575665952595799	-0.676722887791615	0.00085569013285991	-0.00017416660976749
0.85	-2.80000296443127	0.762763308077773	737.241948071271	14.3839570550857	41.936575406355	0.574225972563131	-0.672250373069761	0.000919544314328169	-0.000274036879506667
0.86	-2.74717750907111	0.734403375233159	736.984461327803	14.428269611893	41.8522008361132	0.574487843162053	-0.669968500509285	0.000988157044760518	-0.000371406036912048
0.87	-2.69792579214051	0.717593657581855	736.761633281085	14.4755313144035	41.7766912759822	0.576619388002391	-0.67029974596564	0.00105994057525838	-0.000459526287811651
0.88	-2.66055249975878	0.711833918470351	736.596177430553	14.5241225485596	41.7140232598458	0.580714245705817	-0.6734677243139	0.00113207892490508	-0.000534702317366242
0.89	-2.64099850334977	0.71509499882651	736.507580360056	14.5718482850237	41.6651463734105	0.586788729292151	-0.67948039762807	0.00120103810106809	-0.000597075077940434
0.9	-2.64147149886748	0.724690483525342	736.51028572685	14.6164893952067	41.6281946618504	0.594746772715465	-0.688120083488869	0.00126337451804426	-0.000650208602546443
0.91	-2.66019905931761	0.738202835077482	736.611308860285	14.6563656846403	41.5994874001295	0.6043357803433	-0.698950526546999	0.00131657809645569	-0.000699568546929374
0.92	-2.69230359472461	0.754100087539435	736.807176423535	14.6907032354293	41.5749572046392	0.615128005476241	-0.711353880002647	0.00135966649276831	-0.000750370753977547
0.93	-2.73139398921965	0.771814718485802	737.080799717577	14.719680951626	41.5514971074592	0.626552758426054	-0.724600868587155	0.00139334021800619	-0.000805529503221714
0.94	-2.77124049991857	0.791286540429861	737.399634500061	14.7441652738157	41.5277586153217	0.637979336444757	-0.737940966899249	0.00141967244873098	-0.000864437849659838
0.95	-2.80694030667407	0.812203324849697	737.716812013936	14.7652654614756	41.5041503332666	0.648823173223603	-0.750686609741198	0.00144146835452763	-0.00092304588266845
0.96	-2.83526346109288	0.833313425904445	737.97650653656	14.7838997459091	41.4820984199672	0.658633313732597	-0.762265207954871	0.00146152050997106	-0.000975252493040035
0.97	-2.85425895086085	0.852175466044387	738.123601918201	14.8005343191313	41.4629131237115	0.667125819336908	-0.772226812938595	0.00148198173982661	-0.00101515462191359
0.98	-2.86252053231445	0.865547302667873	738.116086917849	14.8151633264209	41.4467494447204	0.674152288957256	-0.780217021127995	0.00150399329587958	-0.00103938011548299
0.99	-2.85862261396663	0.870353991769875	737.937175575899	14.8274875421616	41.4321019579691	0.679623852389625	-0.785942966384101	0.00152759418248194	-0.00104868485998583
1	-2.84109932831334	0.864910092622023	737.603551687114	14.8371738676697	41.4160574597037	0.683434280412844	-0.789165423343145	0.00155185002631542	-0.00104823922518382
1.01	-2.80903125042545	0.849915427736054	737.166727187136	14.8440676418966	41.3952295105646	0.685430075893233	-0.789738827792966	0.00157510919212378	-0.00104647591431489
1.02	-2.76297483921376	0.828773758188089	736.706180180391	14.8482815032124	41.3670271236084	0.685457113820846	-0.787697513059955	0.00159531793775036	-0.00105286451290182
1.03	-2.7057708507819	0.807007328103433	736.315180612431	14.8501645210591	41.3307627861202	0.683478445778141	-0.783359967548945	0.00161037354300575	-0.00107534737033876
1.04	-2.64278088053191	0.790877602025982	736.082294310443	14.8502183399432	41.2881353177022	0.679719848088297	-0.777404160624158	0.00161852283618735	-0.00111829029071303
1.05	-2.58130591793123	0.785636163627655	736.07281863377	14.8490408033632	41.2428240513901	0.674775262595531	-0.770864469713648	0.00161879754501559	-0.00118162764776547
1.06	-2.52923775011177	0.793984850442541	736.314475994807	14.8473392710155	41.1992382813748	0.669606636620029	-0.765018033332256	0.00161142409421278	-0.0012614725479263
1.07	-2.49326094814364	0.815253269165966	736.790603853773	14.8459923764002	41.1607765667207	0.665405072786977	-0.761162427364425	0.00159808965842523	-0.0013519597583147
1.08	-2.47707214860889	0.845537273408598	737.442219764722	14.8460901730175	41.1281546221804	0.663332861415563	-0.760327638118877	0.00158193201703549	-0.00144767033244059
1.09	-2.48008803600932	0.87869897387314	738.178290918418	14.848878853753	41.0983809859264	0.664218531242222	-0.762998905393906	0.00156717304456544	-0.0015458017566829
1.1	-2.49699916879723	0.907849656261541	738.891854046149	14.8555818055094	41.0647823279487	0.668306498579919	-0.768938541234867	0.00155842467892964	-0.0016473582461517
1.11	-2.51833970045834	0.926826712166674	739.478653306373	14.8671397537126	41.0181617481432	0.675153850094554	-0.777175711379285	0.00155981966587115	-0.00175699250440187
1.12	-2.53202362254063	0.931260048003056	739.854752024794	14.8839698536817	40.9488207520109	0.683719501867438	-0.786185915026629	0.00157420198570135	-0.00188159280664829
1.13	-2.52557672874407	0.919044750315422	739.969989824231	14.9058532169088	40.8489063849768	0.692622730090331	-0.794221272540058	0.0016026119411463	-0.00202810759806393
1.14	-2.48860457467388	0.890285356264254	739.815009654336	14.9320128425408	40.7144451483955	0.700486770175283	-0.799701310871237	0.00164421093465295	-0.00220130246707079
1.15	-2.41493151041761	0.846942078242959	739.420734866457	14.961359100624	40.5465209517332	0.706255210289393	-0.801553039799721	0.00169664228882804	-0.00240210476514152
1.16	-2.30388127416296	0.792428394423458	738.850548485401	14.9927976938854	40.3513067141905	0.709386481007899	-0.799408647173754	0.00175667430599635	-0.00262695424026999
1.17	-2.1603717810935	0.731296345796345	738.186881266468	15.0254561426814	40.1389821286284	0.709886114371261	-0.793621583412484	0.00182087956344168	-0.00286824972143623
