Time [s]	GRFml [N]	GRFap [N]	GRFv [N]	Mml [N.m]	Map [N.m]	Mv [N.m]	Mfree [N.m]	COPml [m]	COPap [m]
0.01	-0.487991111840554	0.840905540432322	752.685693923504	10.7639395070687	19.3789917756765	0.730128968191278	-0.758769153659295	-0.000830033289686893	3.70838835908605e-05
0.02	-0.691446182671324	1.03673259195861	752.897993885329	10.7760338119667	19.3753185308036	0.745795727206248	-0.782386956883082	-0.000816147595114836	2.45746526569834e-05
0.03	-0.876863919884667	1.22057834920712	753.074042702672	10.7787544171605	19.3657807169633	0.76065296820808	-0.804602093926686	-0.000814185030750481	5.47064743799952e-06
0.04	-1.0292052558986	1.38255293034218	753.181589763259	10.765184479954	19.3448305321308	0.773950190848376	-0.824171828955902	-0.000832834403108773	-2.65282857156435e-05
0.05	-1.13996431482952	1.51621400648502	753.204876297517	10.733091950847	19.3091254576999	0.785003601518361	-0.840113507559132	-0.000874801166927286	-7.53435042591399e-05
0.06	-1.20827636401904	1.6193673841012	753.149206533347	10.6853601833196	19.2582527560915	0.793291609880932	-0.851838788780639	-0.000936317861738312	-0.000141708905759819
0.07	-1.24016649436767	1.69390677195558	753.040581381753	10.6289142487607	19.1949832460562	0.798563087334836	-0.859246351866088	-0.00100858367242895	-0.000222822648530963
0.08	-1.24640208185329	1.74472490718968	752.920330072033	10.5726467960426	19.1250160344891	0.800903781477325	-0.862726442780181	-0.0010804538010214	-0.000312507965053166
0.09	-1.23973529112865	1.77803420982418	752.835841564454	10.5250894614077	19.0562370334936	0.800720189735415	-0.863057473202331	-0.00114139518974588	-0.000401888658231153
0.1	-1.2323120517484	1.79963102010449	752.829440117405	10.4925200776145	18.9975863206625	0.798636811534589	-0.861216513737318	-0.00118381780874255	-0.000480519876498775
0.11	-1.2337619058976	1.81362921616245	752.92791606699	10.4779302840075	18.9577038342929	0.795341331810562	-0.858160062909529	-0.00120425741069896	-0.000537831992337368
0.12	-1.2501420646199	1.82198630341932	753.135091384699	10.4809457680692	18.9435752193698	0.791434307663122	-0.854643124769842	-0.00120333147609919	-0.000564673100268864
0.13	-1.28364962350425	1.82484266196501	753.429119060827	10.498518215172	18.9594062727686	0.78733653015923	-0.851129407753486	-0.00118474612791752	-0.000554706035873098
0.14	-1.33291179299866	1.82141747011793	753.765184610208	10.5260596664808	19.0059090732753	0.783281587246718	-0.847810866061706	-0.00115381294696704	-0.000505442813412416
0.15	-1.39368770855512	1.81105174979153	754.083163203755	10.5586675349493	19.0801010190433	0.779385641125091	-0.844715422347695	-0.00111594367633294	-0.000418770446895311
0.16	-1.45987966914289	1.79399908810393	754.31881923147	10.5921535380159	19.17562739618	0.775756606804966	-0.841852894366378	-0.001075483620679	-0.00030090801089494
0.17	-1.5247741398988	1.77171301553721	754.416453284521	10.6236962156987	19.2835429090377	0.772592634103617	-0.839340969381511	-0.0010350860208399	-0.000161808719902901
0.18	-1.58238486664861	1.74659663123377	754.34055939654	10.652051226033	19.393437104724	0.770228404023203	-0.837466660664724	-0.000995666569426956	-1.40734988413049e-05
0.19	-1.62868562031554	1.72137956101832	754.084089693805	10.6773582182294	19.4947573417298	0.769111423749038	-0.836666443740242	-0.000956835620779084	0.000128516215873564
0.2	-1.66246501540168	1.69840016917056	753.671394604981	10.7006666776117	19.5781606647622	0.769717711428005	-0.837437748357341	-0.000917602402169981	0.000252692456664372
0.21	-1.685565822957	1.67906625217403	753.154858521143	10.7233540350238	19.6367101816573	0.772435551930679	-0.840214139514983	-0.000877097173913932	0.000347411549505627
0.22	-1.70239851804159	1.66366111004746	752.605607360832	10.7466156067857	19.6667332219111	0.777451355427115	-0.845240893965582	-0.000835077498258396	0.00040532426408979
0.23	-1.71880881270428	1.65150699713559	752.100149556606	10.7711628331849	19.6681954960429	0.784664769676275	-0.852479397144369	-0.000792073298069962	0.000423743165128831
0.24	-1.74056945618853	1.6413611405663	751.705982276068	10.7971843245076	19.6445269905289	0.793648397098655	-0.861556089872719	-0.000749158519584792	0.000404912379185052
0.25	-1.77189461737453	1.63185280409451	751.469603540993	10.8245304070369	19.6019487600936	0.803658193842105	-0.871762558759904	-0.000707469921651049	0.000355523370673738
0.26	-1.81439641504971	1.62179021183779	751.409779267692	10.8530106185261	19.5484596443427	0.813696342920814	-0.882110077270942	-0.000667675780257948	0.000285590220477583
0.27	-1.866800682756	1.61025193257225	751.517429579513	10.8826709141629	19.4927047420738	0.822625641626769	-0.891440145686492	-0.000629597655451786	0.000206936222333587
0.28	-1.92552648508478	1.59648277400096	751.761568201556	10.9139474737527	19.4429346324124	0.82932777110053	-0.898585787971563	-0.000592110788731226	0.0001315951128118
0.29	-1.98595861883322	1.57969312288641	752.098990442902	10.9476576739475	19.4061803946391	0.83288537410667	-0.902564073271548	-0.000553331511816468	7.03778609142947e-05
0.3	-2.04398503779603	1.55888645023531	752.484459498888	10.9848541342658	19.3876547442925	0.832754079205575	-0.9027634101881	-0.000510996708451117	3.17327262747136e-05
0.31	-2.09723129881463	1.53281258447218	752.878324078559	11.0266071520968	19.390303368794	0.828883657989338	-0.899079304696551	-0.000462892952234673	2.09009336170074e-05
0.32	-2.14548444204064	1.50008476652871	753.249744023675	11.0737837287372	19.4144213886337	0.821753677788034	-0.891957619551394	-0.00040721308320002	3.93117704023394e-05
0.33	-2.19007765872951	1.45943373866709	753.575536446145	11.1268664657175	19.4573272348562	0.812308263819554	-0.882325954006549	-0.000342784657011652	8.41995097159431e-05
0.34	-2.23242638892517	1.41002471087774	753.836380300594	11.1858231794903	19.5132094967098	0.801800292905332	-0.871424424287221	-0.000269187933570669	0.000148530986177509
0.35	-2.27230284851045	1.351745370789	754.013064973805	11.250017907626	19.5733564079834	0.79157807251343	-0.860575296587408	-0.000186823042068518	0.000221429288063901
0.36	-2.30662540268428	1.2853869663143	754.085273556814	11.318155352665	19.6269702510591	0.782859956292624	-0.850946477559989	-9.69787020648205e-05	0.000289280483425636
0.37	-2.32940846993687	1.2126783242414	754.034143896006	11.3882692262534	19.6626309902857	0.776542129037256	-0.843362568938402	-1.90694671453606e-06	0.00033757291826475
0.38	-2.33309354015397	1.13617934017533	753.848066800724	11.457786014452	19.6702411845876	0.77307451716114	-0.838201582181545	9.51513709025464e-05	0.000353271633855901
0.39	-2.31092773768291	1.05907726900945	753.529598911529	11.5237033781207	19.6430491474968	0.772424107206072	-0.835392192300529	0.000190082460245766	0.000327269979372768
0.4	-2.2596050433396	0.984940758712389	753.100643264245	11.5829071956389	19.5792167082182	0.774127747847659	-0.834502622677592	0.00027823943637173	0.000256307655039589
0.41	-2.18122633707231	0.917468971893366	752.603479811782	11.632614124331	19.4824445841862	0.77741996086574	-0.834892905389277	0.00035502936089038	0.000143787444293775
0.42	-2.08382892269724	0.860237566979393	752.096622471364	11.6708779996959	19.3613942732732	0.781407206869689	-0.83589039843016	0.000416679746810034	-8.27585113660767e-07
0.43	-1.98019721238047	0.81641253424693	751.646252917713	11.6970542722158	19.2279778396392	0.785251300809241	-0.836946152385544	0.000461026221607708	-0.000163974252691046
0.44	-1.88520934987912	0.788400092473798	751.315414599738	11.7120937437205	19.0949092933321	0.788324521859089	-0.837738002639291	0.000488108050873293	-0.000330863920995461
0.45	-1.81240620286365	0.777436171316691	751.153708145759	11.7185490153389	18.973112463677	0.79030845540961	-0.838203416424773	0.000500366486273496	-0.000488577646215238
0.46	-1.77066553814473	0.783180936823425	751.189787003978	11.720230986613	18.8695994932355	0.791224443157797	-0.838505640109058	0.000502322799870281	-0.000628644047822313
0.47	-1.76180411083434	0.803441429530744	751.427823369466	11.7215421236711	18.7862794838991	0.791399049313724	-0.838952807743166	0.000499753486047028	-0.000748526380247472
0.48	-1.77967557992487	0.834161975973607	751.847868439574	11.7266149341977	18.7198936307791	0.791377237187082	-0.839895457412501	0.000498537797705922	-0.000851750708852184
0.49	-1.81097771494685	0.869774899073474	752.409193979725	11.7384623111389	18.6629911172459	0.791798014102205	-0.841623238020963	0.00050347025284081	-0.000946752340600765
0.5	-1.83761312905144	0.903900371103516	753.055500981785	11.7583662285854	18.6056383583116	0.793246899907074	-0.844272682025614	0.000517358089991093	-0.00104480508789012
0.51	-1.84012387631381	0.930263211465377	753.721170298044	11.7856761284447	18.5374390759552	0.796103198291987	-0.847753172045505	0.00054064269183729	-0.00115756131612182
0.52	-1.8014875143869	0.943611390111453	754.338134282438	11.8180709486319	18.4494418595828	0.80040987034281	-0.851701972725044	0.000571619755942887	-0.00129474729762619
0.53	-1.71046491674634	0.940419109011041	754.843122807341	11.8521985481808	18.3356020449949	0.805804253608107	-0.855487753578401	0.000607144854203323	-0.00146244737432227
0.54	-1.56376614970146	0.919241476830083	755.184872229073	11.8844941484845	18.1936055074733	0.811547929196013	-0.858285237712556	0.000643568234661163	-0.00166222134438904
0.55	-1.36655834382955	0.880717663184473	755.330534568541	11.9119367044335	18.0250103974867	0.816674516147682	-0.85923149262112	0.000677596192541152	-0.00189109361442907
0.56	-1.13123307850426	0.827329324235846	755.270260984239	11.9325435212382	17.8347855216086	0.820235521203298	-0.857645034833096	0.000706838952755695	-0.00214228275475753
0.57	-0.874778457725831	0.763057389589572	755.018968801853	11.9455108529464	17.6304036363048	0.821579858202652	-0.853252577275197	0.000729947717603596	-0.00240643572548926
0.58	-0.615434178381963	0.693033460511941	754.614675192748	11.9510380618958	17.4206832258517	0.820573773295291	-0.846343972675082	0.000746407442218322	-0.00267309504503832
0.59	-0.369442862390725	0.623191602556663	754.113383921243	11.9499736419755	17.2145733593538	0.817673446186837	-0.837781642484566	0.000756171212482171	-0.00293214303355821
0.6	-0.148615466844575	0.559854913518485	753.581178224187	11.9434548563219	17.0200567479929	0.813807051423785	-0.828832020893852	0.000759350378356172	-0.00317501179394852
0.61	0.0408456305477524	0.509185612378071	753.084754969263	11.9326709706581	16.8433168085491	0.810091994309355	-0.820850681088638	0.000756105208560731	-0.00339550252435467
0.62	0.198169456217408	0.476491947366518	752.682017659825	11.9187894272147	16.6882783504082	0.807478073587741	-0.814913408591828	0.000746751717575433	-0.0035901161645745
0.63	0.326702422782336	0.465483707400797	752.414426893517	11.9029928169019	16.5565834493799	0.806439831903691	-0.811514857263049	0.000731977423605534	-0.00375786320221666
0.64	0.431889881389836	0.477647058467006	752.302504810116	11.8865274931473	16.447996702474	0.806826448294112	-0.810439562735031	0.000713003659712719	-0.00389960112644405
0.65	0.519086002753525	0.511925844886033	752.34519991973	11.8706811956392	16.3611472138774	0.807921050573133	-0.810852181880971	0.000691569564279293	-0.00401704312011003
0.66	0.59172028945856	0.564836147363589	752.522877280644	11.856670327561	16.2944236315233	0.808686525334805	-0.811577688510151	0.000669717443399498	-0.00411167426912296
0.67	0.650250741183724	0.631022657509468	752.802788987116	11.8454851957452	16.2467737578749	0.808111290620081	-0.811477679553049	0.000649468523109209	-0.00418386951563049
0.68	0.692148289696499	0.704133471358136	753.145338284072	11.8377705571633	16.2181559953916	0.805539090843179	-0.809799832892405	0.000632528135371291	-0.0042324955721354
0.69	0.712903563721346	0.777796197395836	753.509511210168	11.8337914895084	16.209466591253	0.800879766630479	-0.806392802430422	0.000620121879611912	-0.00425517778931761
0.7	0.707775095171677	0.846460302520688	753.856504722043	11.8334703020829	16.2219160264439	0.794644989514458	-0.801730220261281	0.000612965253758646	-0.00424923437990443
0.71	0.673785894679547	0.905933686341258	754.151549211171	11.8364247107091	16.2560097410619	0.787814740844592	-0.796754352871387	0.000611275184862814	-0.00421307002648558
0.72	0.611399758616254	0.953556421652661	754.364763797551	11.8419344172086	16.3104421524257	0.781594342061145	-0.792607837766933	0.000614709718689821	-0.00414764550310631
0.73	0.525403967654336	0.988073527985788	754.472199485591	11.8488239903477	16.3812800592319	0.777150238183751	-0.790351289277874	0.000622195220052246	-0.00405756408830132
0.74	0.42475835629024	1.0093481392477	754.457870520295	11.8553421802183	16.4617592629165	0.775407540392676	-0.79075705504453	0.0006317292114143	-0.0039513766611714
0.75	0.321454628861404	1.01807378005003	754.31673110626	11.8591819289006	16.5428546815847	0.776957512848054	-0.794230000474243	0.000640349100155313	-0.00384089900186829
0.76	0.228665995312395	1.01560118337039	754.057654157381	11.8577703556815	16.6145583338352	0.782073256135817	-0.80085115818889	0.00064445629832055	-0.00373960480968955
0.77	0.158593788515289	1.00391200308518	753.704979412379	11.8488542424696	16.6675851260619	0.790787161524176	-0.810491346022995	0.000640559033879606	-0.00366042342181971
0.78	0.120429908024233	0.985681584222862	753.297393145763	11.8312550596693	16.6950953240331	0.802963136438395	-0.822919140909186	0.000626293657133736	-0.00361344652533557
0.79	0.118788633343186	0.964311004293206	752.883721058802	11.805540539571	16.694017508426	0.818309362010282	-0.837840290175524	0.000601399640881906	-0.00360407654465017
0.8	0.152862683477455	0.943801215549814	752.516293755526	11.7743243436829	16.6656731473559	0.836317741051112	-0.854847817098692	0.000568253864699941	-0.00363202543310431
0.81	0.216450992522528	0.928395620550808	752.243387594684	11.7419904336081	16.6155960171031	0.856164789023074	-0.873313891819883	0.000531663879796196	-0.00369134465775406
0.82	0.298890791715584	0.922014071119806	752.102476610932	11.7138206924821	16.5526356787205	0.876641037266839	-0.892290978687769	0.00049785473570374	-0.00377141720693724
0.83	0.386796707394151	0.927604821195486	752.115581405974	11.6947164831259	16.4875708541354	0.896175128866776	-0.910493176457378	0.000472873487184833	-0.00385865107874517
0.84	0.466366102046501	0.946608569955467	752.287134701489	11.6878655133087	16.4315068310261	0.912984481197349	-0.926397906592019	0.000460866439656926	-0.00393852641520376
0.85	0.525872110421813	0.978725733562501	752.603964391571	11.6937517951892	16.3943050543	0.92533303836148	-0.938458602542206	0.000462763716570613	-0.00399765981617073
0.86	0.55786880080778	1.02209326321485	753.036635367089	11.7098196507861	16.3832362642478	0.931832003311877	-0.945373910112106	0.000475799739960037	-0.00402561392345924
0.87	0.560616944020899	1.07383420007368	753.541621988892	11.7309131854956	16.4020041833223	0.931700344719638	-0.946336918363663	0.000494043792702681	-0.00401624481467588
0.88	0.53833445506803	1.13079794699963	754.064373700305	11.7503859983854	16.4502697978558	0.924913925455924	-0.941195462194128	0.00050980291492686	-0.00396841785497148
0.89	0.500088200111206	1.1902291510369	754.543822430647	11.7615862639338	16.5237944441091	0.912207207549657	-0.930484776426157	0.000515497408889232	-0.00388595082269377
0.9	0.457445199246898	1.25013170335235	754.918836654749	11.75932653049	16.6152708129029	0.894933860564614	-0.915332211262699	0.000505481399621588	-0.00377670561383869
0.91	0.421330417598516	1.309223896974	755.136435184219	11.7409690333804	16.7157956670916	0.874826974960402	-0.897265760117115	0.000477321350503823	-0.00365088205202951
0.92	0.398812228411921	1.36655184225793	755.160525968642	11.7068821684842	16.8167689015161	0.853717294025369	-0.877975123139137	0.0004322307718303	-0.00351876157157816
0.93	0.390666282374359	1.4209613685333	754.979096128093	11.6602078137917	16.9118372380774	0.83326828497373	-0.859075025403475	0.000374620183863805	-0.00338834587085662
0.94	0.390481323470852	1.47066844188266	754.607677590058	11.6060628717778	16.998413211003	0.814774654669005	-0.841910271269194	0.000310968135010192	-0.00326345019742397
0.95	0.385739138742084	1.5131107381188	754.087733144943	11.5504264479418	17.0783475975164	0.79905201722223	-0.827426950306282	0.000248374172234112	-0.00314277250971212
0.96	0.360772753195601	1.54515027410813	753.480068683377	11.4990038237207	17.1575228289851	0.78642448301187	-0.816119180015132	0.000193179654660147	-0.00302025072673928
0.97	0.300917126099774	1.56358486468534	752.854868945159	11.456310028242	17.2444166891211	0.776797236101593	-0.808048114617955	0.000149948978377168	-0.00288668857731494
0.98	0.196712813390618	1.56585164316926	752.280855383639	11.4251100500979	17.3479722132493	0.76978568276136	-0.802920243582323	0.000120944961676916	-0.00273227488739303
0.99	0.0468977769188862	1.55077359468208	751.816050586377	11.4062362667816	17.4753082570997	0.764864481078401	-0.800205193802192	0.000106076475368422	-0.00254935614838414
1	-0.140776666740681	1.51919236897225	751.501801606236	11.3987186947	17.6298507647684	0.761500605189753	-0.799269234262726	0.000103198514223246	-0.00233473757972991
1.01	-0.351205561987974	1.4743304596555	751.360484820364	11.4001304003252	17.810342360219	0.759243930338083	-0.799499436762705	0.000108624016324499	-0.00209091588459126
1.02	-0.565559358491597	1.42173554602667	751.396197436463	11.4070612589466	18.0109369548532	0.757763307587327	-0.800395241950284	0.000117743226377476	-0.00182594957960303
1.03	-0.765727605356689	1.3687029483471	751.59711533506	11.4156614529796	18.2222869307519	0.756831266728249	-0.801609915024972	0.000125697385554457	-0.00155205392962166
1.04	-0.938183701480354	1.32317440638661	751.938204106791	11.4222136159247	18.4332776867455	0.756272841744264	-0.802935194746923	0.000128078570613366	-0.0012833451893613
1.05	-1.07613948283912	1.29227099865255	752.383517689726	11.423686403308	18.6329350643157	0.755901826458711	-0.804238067075527	0.000121610377924908	-0.00103334776899133
1.06	-1.17951250279722	1.28078721111839	752.888146701743	11.418200471192	18.8120582882121	0.755470201986403	-0.805375344213636	0.000104719693102329	-0.000812866815541713
1.07	-1.2530127380988	1.29006976600316	753.400632169837	11.4053220820897	18.9642908875108	0.754652446010181	-0.806122408879042	7.78734218853661e-05	-0.000628638354886579
1.08	-1.30326928771622	1.31765503181811	753.866977344077	11.3861105114806	19.0865630744654	0.753075079332497	-0.806149705207291	4.35607082593936e-05	-0.000482883260548794
1.09	-1.33614745231063	1.35782841881797	754.237021384944	11.3628893759124	19.1790308573093	0.750384726638402	-0.805062164833476	5.86498872068297e-06	-0.000373621857407747
1.1	-1.35520128143308	1.40296757533499	754.47288920703	11.3387764892818	19.2447291060522	0.746330875855315	-0.802489294684369	-3.03244479648024e-05	-0.000295446778835085
1.11	-1.36167986672832	1.44526564418895	754.55784398808	11.3170674188763	19.2891277834856	0.740830670028348	-0.798190225045839	-6.03036817005131e-05	-0.000240440766840377
1.12	-1.35587394233017	1.47832060716002	754.502753270913	11.3006013113421	19.3196700156155	0.733988443738021	-0.79213090579444	-8.05229216545023e-05	-0.000199034369344042
1.13	-1.33908354934072	1.49816700381816	754.347173408218	11.2912333933753	19.3452507754712	0.726061282437768	-0.784503528604961	-8.93078186823271e-05	-0.000160750716497959
1.14	-1.31527452514331	1.50356369286979	754.153107292957	11.2895029405289	19.3755353693699	0.717385144365027	-0.775683957155601	-8.71759408750394e-05	-0.000114900550563457
1.15	-1.29162877463842	1.49561719882019	753.991625584988	11.294535730567	19.4200484873669	0.708293084842447	-0.766148492553267	-7.66998902510529e-05	-5.13240305728413e-05
1.16	-1.27761984639221	1.47699892865961	753.925068862458	11.3041745139366	19.4870670235497	0.699060919701231	-0.756385958395914	-6.19799952250588e-05	3.8770323921411e-05
1.17	-1.28280650697669	1.45105352469875	753.989502936191	11.3153008482983	19.5824678773751	0.689906034981993	-0.746840960211526	-4.78690380252278e-05	0.000161905160240228
