Time [s]	GRFml [N]	GRFap [N]	GRFv [N]	Mml [N.m]	Map [N.m]	Mv [N.m]	Mfree [N.m]	COPml [m]	COPap [m]
0.01	9.55627950980833	1.16691211535939	552.546337875267	-41.8070283518512	-10.6417412669516	-0.260478349620066	0.482826289134832	-0.00473577923794494	-0.0130146601178686
0.02	9.31262488332379	1.72030066727868	551.120290712185	-42.2748711961435	-10.8518152117363	-0.196490238360041	0.55028536562159	-0.00517412904825904	-0.0118920788029741
0.03	9.07351841031875	2.26575743992648	549.723141974634	-42.7371632826355	-11.0588900890488	-0.133861059142151	0.616293784700863	-0.00560662880086954	-0.0107922962930476
0.04	8.84347050500744	2.79525298078973	548.381948005687	-43.1877434408195	-11.2600494706382	-0.0738027415253991	0.679685889640531	-0.00602691881512289	-0.00973087497744229
0.05	8.62663972533734	3.30139913083001	547.121915476503	-43.6209436966911	-11.4526386072213	-0.0174145248969831	0.739416336733619	-0.0064291501773526	-0.00872167448359625
0.06	8.42666822324457	3.77770107594131	545.965398034003	-44.0317654610531	-11.6343558771558	0.034363558471155	0.794600569673218	-0.0068081950934937	-0.00777645579194759
0.07	8.2465482362118	4.21876404846777	544.931035842891	-44.4160220210138	-11.8033260683242	0.0807873023946158	0.844545607535829	-0.00715982104972538	-0.00690460554607343
0.08	8.08852636851622	4.62044529225921	544.033080127094	-44.7704415823882	-11.9581520850974	0.121333029988113	0.888769797797385	-0.0074808201724115	-0.00611298113757015
0.09	7.95404949972384	4.97994518905204	543.280932690052	-45.0927274396983	-12.0979429805988	0.155709290884865	0.927010934948052	-0.00776908787699839	-0.00540586934936146
0.1	7.84375314160629	5.29583504558063	542.678917044647	-45.381574334875	-12.2223176346434	0.183855426897337	0.959222880889374	-0.00802364795279122	-0.00478504591089046
0.11	7.7574902010698	5.56802270568969	542.226284211508	-45.6366425296019	-12.331384826679	0.205927800620609	0.985561507549818	-0.00824462442485008	-0.00424992038962667
0.12	7.69439561468275	5.79766062554657	541.91744336536	-45.8584933875716	-12.4257017890534	0.222275286486974	1.00636138165714	-0.00843316363428266	-0.00379775008401681
0.13	7.65298036568953	5.98700410095665	541.742396097497	-46.048492190018	-12.5062144776859	0.233406258510784	1.02210509574913	-0.00859131276394279	-0.00342390733605727
0.14	7.6312470814606	6.13922977293398	541.687343709169	-46.2086853720526	-12.5741836915248	0.239949736172392	1.03338749173467	-0.00872186331843109	-0.0031221861642374
0.15	7.62681877880039	6.25822622470252	541.735430039362	-46.3416602916232	-12.6311017591647	0.24261355160215	1.04087720438464	-0.00882816970181676	-0.00288513562511726
0.16	7.6370723562059	6.34836934581541	541.86757803404	-46.4503959961146	-12.6786047669806	0.242142378555134	1.04527796361745	-0.00891395393666026	-0.00270440837286272
0.17	7.65926905274512	6.4142951663701	542.06337655831	-46.5381132477979	-12.7183852307131	0.239278235252674	1.04729194102888	-0.00898310770784551	-0.00257111333543075
0.18	7.69067518794635	6.46068210569957	542.301974646417	-46.6081313633043	-12.7521097383836	0.234725672388696	1.04758712576794	-0.00903950232840622	-0.00247616138888386
0.19	7.72866792395679	6.49205313681995	542.562943156591	-46.6637383019444	-12.7813454636435	0.229123328859918	1.04677029696104	-0.00908681599923551	-0.00241059271624867
0.2	7.77082239642799	6.51260638251361	542.827068244797	-46.7080790141946	-12.8074986268866	0.223022932181512	1.04536666193486	-0.00912838600027473	-0.00236587459275055
0.21	7.81497819364987	6.52608030095956	543.077046750547	-46.7440654587753	-12.8317670372168	0.216876191344945	1.04380669319961	-0.00916709136680724	-0.0023341590088715
0.22	7.85928469072948	6.53565707139394	543.298060058003	-46.7743100400206	-12.8551078549321	0.211029428050146	1.04242016466005	-0.00920526934486346	-0.00230849105120408
0.23	7.90222606082359	6.54390523588726	543.478209849014	-46.8010826244268	-12.8782207418493	0.205725262593033	1.0414368980417	-0.00924466665844809	-0.00228296134622052
0.24	7.94262781650108	6.552760260995	543.608806049765	-46.8262898682072	-12.9015456779534	0.201110248634217	1.04099331766106	-0.00928642451850356	-0.00225279898501837
0.25	7.97964744599505	6.56353959742107	543.684503905065	-46.85147440646	-12.9252739681865	0.197247060449755	1.04114360132787	-0.00933109449371837	-0.00221440489226225
0.26	8.01275210162018	6.5769871487899	543.703293279015	-46.8778305739541	-12.9493703790277	0.194129688167465	1.04187402401207	-0.00937868094612321	-0.00216532920112163
0.27	8.04168640174302	6.59334088576303	543.666348826666	-46.9062327757737	-12.9736039516203	0.191700089230498	1.04311902546645	-0.00942870476885011	-0.00210419945674067
0.28	8.06643327721577	6.61241669208992	543.577754509741	-46.937272405605	-12.9975848417825	0.189864864410449	1.04477758942444	-0.00948028266570335	-0.00203060905381422
0.29	8.08717049599198	6.63370139799417	543.444119980934	-46.9712992995577	-13.020804528193	0.188510750732168	1.04672868661197	-0.00953221615776105	-0.0019449769782333
0.3	8.10422510831365	6.65644830068713	543.274109601092	-47.008464073942	-13.0426768871295	0.187518021052543	1.04884478445515	-0.00958308483149911	-0.00184839055302854
0.31	8.11802763798999	6.67976921886861	543.077907260452	-47.048758271509	-13.0625779248339	0.186771216068906	1.05100273449258	-0.00963133897017604	-0.00174244250015668
0.32	8.12906746026455	6.70271818276708	542.866641732224	-47.0920499678682	-13.0798823503017	0.18616697386587	1.05309168192669	-0.00967538753474163	-0.00162907235440876
0.33	8.1378504945843	6.7243631153288	542.651797978755	-47.1381132992692	-13.0939956227166	0.18561903204778	1.05501796773236	-0.00971367837876787	-0.00151042032575806
0.34	8.14486012302261	6.74384320133237	542.444639643289	-47.1866511964415	-13.1043805799373	0.185060730947642	1.05670728211938	-0.00974476849903054	-0.00138869937682315
0.35	8.15052212437907	6.76041096203874	542.255666887158	-47.2373113835409	-13.1105782116335	0.184445524121099	1.05810455417869	-0.00976738296297338	-0.00126608885138201
0.36	8.15517437468595	6.77345925859214	542.094131781139	-47.2896963721748	-13.1122225525081	0.183746094367884	1.0591722091699	-0.00978046186481316	-0.00114465072278357
0.37	8.15904207788478	6.78253446160726	541.967630663392	-47.3433687055083	-13.1090500143037	0.182952679617767	1.05988748416704	-0.00978319521925487	-0.00102626763798304
0.38	8.16221931822093	6.78733779400228	541.88178930143	-47.3978530579636	-13.1009037347298	0.182071142064046	1.06023946624515	-0.00977504610698877	-0.00091260054927822
0.39	8.1646577282852	6.78771735091976	541.840052448844	-47.4526369582098	-13.0877336901691	0.181121182517121	1.06022641559102	-0.00975576266071148	-0.000805062904198947
0.4	8.16616300667843	6.78365352099306	541.843584619524	-47.5071718780436	-13.0695933980075	0.180134932223366	1.05985377682817	-0.00972537965780592	-0.000704808078255847
0.41	8.16639986838709	6.77524049616125	541.891283804191	-47.5608762323428	-13.0466340316208	0.179155971418325	1.0591330886169	-0.00968421060267132	-0.00061272689549445
0.42	8.16490575279246	6.76266630008457	541.979904651152	-47.6131414927238	-13.0190966999091	0.178238652842955	1.05808179984991	-0.00963283126982809	-0.000529452556762636
0.43	8.16111324717355	6.74619333880197	542.104282571442	-47.6633421668422	-12.9873035211299	0.177447471924331	1.05672381572937	-0.00957205575965855	-0.000455370938131652
0.44	8.1543807215251	6.7261409404151	542.257645560187	-47.7108498803023	-12.9516479670905	0.17685614090764	1.05509045077028	-0.00950290620039928	-0.000390634893064526
0.45	8.14403014210198	6.70287076465811	542.431996492551	-47.7550512662584	-12.9125847883506	0.176546002763097	1.05322137500987	-0.00942657730921847	-0.000335181779873156
0.46	8.12939047714974	6.67677538719757	542.618545468676	-47.7953688663599	-12.8706196726428	0.176603465232704	1.05116511407747	-0.009344397090019	-0.000288753867300526
0.47	8.10984457800701	6.64826984971917	542.808169620938	-47.8312838195086	-12.8262986534719	0.177116241017573	1.04897870511989	-0.00925778498100293	-0.000250921513613153
0.48	8.08487696494862	6.61778555752098	542.991876779561	-47.8623587989434	-12.7801971865378	0.178168334622097	1.04672621290638	-0.00916820875820265	-0.000221109073249612
0.49	8.05411962076268	6.58576563108134	543.161249579417	-47.8882594808195	-12.7329087567252	0.179833901646532	1.04447596080307	-0.00907714144570615	-0.000198623392187541
0.5	8.01739274000376	6.55266069244129	543.308847976993	-47.9087728044371	-12.685032871734	0.182170300305482	1.04229651131865	-0.00898601938137019	-0.00018268455686328
0.51	7.97473743017959	6.51892409224502	543.428550661879	-47.9238204184457	-12.6371623390145	0.185210834022813	1.04025161881411	-0.00889620244913834	-0.000172458314311535
0.52	7.92643762932236	6.48500574603956	543.515819358935	-47.9334659884648	-12.589869804985	0.188957825420883	1.03839455000544	-0.00880893733273406	-0.000167089331519737
0.53	7.87302899117643	6.45134402386627	543.567874337091	-47.9379154470114	-12.5436936500171	0.193376746544937	1.03676230485779	-0.00872532449028405	-0.000165734248524674
0.54	7.81529317484969	6.41835549058977	543.583774333905	-47.9375097632151	-12.4991234667479	0.198392143863438	1.03537035402754	-0.00864628941367962	-0.000167593329624113
0.55	7.754236823009	6.38642268479645	543.564399303781	-47.9327103563547	-12.4565854883216	0.203886032619871	1.03420852758761	-0.00857255863320111	-0.000171939446334007
0.56	7.69105546939065	6.3558805078746	543.512339615665	-47.9240778280004	-12.416428461988	0.209699294550542	1.03323863885772	-0.00850464086199243	-0.000178143141493795
0.57	7.62708361921653	6.32700212980762	543.431700273806	-47.9122451959741	-12.3789105677096	0.21563640487557	1.03239430977384	-0.00844281364197069	-0.000185692626594333
0.58	7.56373322528056	6.29998556708952	543.327833137862	-47.8978872362262	-12.3441880488297	0.221473555090287	1.03158329054361	-0.00838711583963547	-0.000194207749430811
0.59	7.50242366703989	6.27494222218542	543.207013730716	-47.8816878399984	-12.3123062435354	0.226969949425498	1.03069235251022	-0.00833734632764286	-0.000203447227959327
0.6	7.44450706329263	6.25188867523077	543.076081843419	-47.8643074477077	-12.2831936769991	0.231881760530399	1.02959459953226	-0.00829306915389849	-0.000213308766192161
0.61	7.39119325360988	6.23074288191362	542.942066632971	-47.8463526151643	-12.256659794416	0.235977960759486	1.02815881210852	-0.00825362542390343	-0.00022382203227081
0.62	7.34347902612046	6.21132566464037	542.811817182937	-47.8283496034404	-12.2323967886959	0.239057024826584	1.0262602319151	-0.00821815198960131	-0.000235134866273815
0.63	7.30208612327982	6.19336800773595	542.691658553875	-47.8107235764034	-12.209985811188	0.240963349144905	1.02379203182959	-0.00818560684369908	-0.000247493470647051
0.64	7.2674122160017	6.1765242131534	542.587091258171	-47.7937845675062	-12.1889076602117	0.241602168711346	1.02067661302624	-0.00815480086813961	-0.000261217691558888
0.65	7.23949841311796	6.16039048083487	542.502548990865	-47.777720877554	-12.1685578328086	0.240951782470263	1.01687583590615	-0.00812443529594165	-0.00027667279668589
0.66	7.21801599998466	6.14452799210707	542.441225536115	-47.7626000314004	-12.1482656130041	0.239072023244246	1.01239932887167	-0.00809314394285483	-0.00029423936798853
0.67	7.20227402691421	6.1284891406524	542.404977302012	-47.7483768991	-12.1273166674331	0.236108121034101	1.00731012548753	-0.00805953898025106	-0.000314283036341928
0.68	7.19124815899174	6.11184521552007	542.394303204983	-47.7349081183746	-12.1049784374572	0.232289393881038	1.00172704799796	-0.00802225878465344	-0.000337125775878383
0.69	7.18362992799722	6.09421362872867	542.408398937831	-47.7219715759826	-12.0805274648265	0.227922537608775	0.995823470444401	-0.0079800162385586	-0.000363020346944617
0.7	7.17789427438571	6.07528271988833	542.445278318796	-47.7092894414285	-12.0532776721157	0.223379649459813	0.989822341327443	-0.00793164578859873	-0.000392129235787464
0.71	7.1723821126156	6.05483227243477	542.501950715038	-47.6965531112832	-12.0226085437674	0.219081483703113	0.983987605476881	-0.0078761475953327	-0.000424509104915691
0.72	7.16539367144711	6.03274813672972	542.574640698914	-47.6834484175746	-11.987992120603	0.215476772773096	0.978612418595568	-0.00781272722617791	-0.000460101367807636
0.73	7.1552876167425	6.00902975652752	542.659034302036	-47.6696795689418	-11.9490177302719	0.213018730911805	0.974004777698192	-0.00774082953068527	-0.000498729068870954
0.74	7.14058050757043	5.98378990655025	542.75053557395	-47.6549905083698	-11.9054134270687	0.212140068478524	0.970471380267996	-0.0076601655703047	-0.000540099821180154
0.75	7.12004099857507	5.95724652952468	542.844517636706	-47.6391826591778	-11.8570632046666	0.213227969669435	0.968300661320063	-0.00757073172621338	-0.0005838141672211
0.76	7.09277339369776	5.92970716388444	542.936553972631	-47.6221283605817	-11.8040191717666	0.216600516561048	0.967746031414477	-0.00747282035555995	-0.000629378414695833
0.77	7.05828566833578	5.90154702891863	543.022618128087	-47.6037796342454	-11.7465080401863	0.222485977226515	0.969010345076454	-0.00736702159339148	-0.000676220786571605
0.78	7.01653787834363	5.87318233485992	543.099243130998	-47.5841722450379	-11.6849314637998	0.231006220831504	0.972232567747532	-0.00725421609961366	-0.000723709628608668
0.79	6.96796791612117	5.84504076963001	543.163635427344	-47.563425299082	-11.6198599806313	0.242165289608558	0.977477484632419	-0.00713555873292575	-0.00077117244370864
0.8	6.91349279278258	5.8175313495139	543.21374174173	-47.5417368432306	-11.5520205439814	0.255843862721624	0.984729115273566	-0.00701245331012362	-0.000817914663292993
0.81	6.8544849471517	5.79101588776341	543.248270664021	-47.5193760830381	-11.4822778750745	0.271800010000449	0.993888275763449	-0.00688651879680425	-0.000863237301998082
0.82	6.79272442802341	5.76578422649437	543.266673692587	-47.4966729194379	-11.4116101211	0.289676276067295	1.00477448140406	-0.00675954749064604	-0.000906452942899247
0.83	6.73032908693073	5.74203510079091	543.269092713265	-47.4740055229082	-11.3410795487723	0.30901277969812	1.01713212323023	-0.00663345601154544	-0.000946899827738726
0.84	6.66966608109319	5.71986408068383	543.256282321019	-47.451786628777	-11.2717992333241	0.329265680603246	1.03064059938432	-0.00651023020484518	-0.000983954137440401
0.85	6.61324895671119	5.69925949941104	543.229515938948	-47.4304491633008	-11.2048969039626	0.349830075185296	1.04492785316531	-0.00639186538410982	-0.00101704080025486
0.86	6.56362531120839	5.68010666699444	543.190484381242	-47.410431714126	-11.1414772670496	0.370066149951822	1.05958657781952	-0.00628030366668526	-0.00104564332174546
0.87	6.52326048525425	5.66220003428326	543.141194445343	-47.3921642576528	-11.0825842364012	0.389327257789384	1.07419220483264	-0.00617737045827316	-0.00106931316718245
0.88	6.49442289447995	5.64526236369994	543.083873472375	-47.3760544647627	-11.0291645470471	0.406988495399018	1.08832170495143	-0.00608471238711369	-0.00108767913310497
0.89	6.47907647710019	5.62896942640398	543.020883799571	-47.3624748369918	-10.982034208558	0.422474352345945	1.10157220277928	-0.00600373913980992	-0.00110045692972985
0.9	6.47878532387743	5.61297832316582	542.954648885698	-47.3517508844416	-10.9418491645504	0.435284071344687	1.11357843605884	-0.0059355716806131	-0.00110745888745253
0.91	6.49463490220306	5.59695725074471	542.887590863743	-47.3441505461558	-10.9090813684374	0.445013499340864	1.12402817564745	-0.00588099922513225	-0.00110860334334068
0.92	6.52717342963091	5.58061442848772	542.822077586593	-47.3398750696914	-10.8840012685191	0.451372409739636	1.13267485464564	-0.00584044708133126	-0.00110392291270552
0.93	6.5763759459411	5.56372396970054	542.760376060048	-47.3390516010208	-10.8666674287114	0.454196524835482	1.13934682563776	-0.00581395707199071	-0.00109357056502189
0.94	6.6416325341436	5.54614672375934	542.704608621974	-47.3417277772991	-10.8569237085016	0.453453748978847	1.14395286221444	-0.00580118173256087	-0.00107782225505211
0.95	6.72176100906824	5.52784450894492	542.656708373192	-47.3478686503694	-10.8544041032296	0.449244420838595	1.14648373239097	-0.00580139286563944	-0.00105707484674292
0.96	6.81504328504443	5.50888667114209	542.61837116399	-47.3573562851337	-10.8585450206998	0.441795690546314	1.1470098843137	-0.00581350436432386	-0.00103183822608546
0.97	6.91928360448458	5.48944849827604	542.591002785052	-47.3699923626192	-10.8686044593356	0.431450408508137	1.14567548619336	-0.00583610853133288	-0.00100272082275961
0.98	7.0318859020827	5.46980164629098	542.575661734118	-47.385504064074	-10.8836872720782	0.418651162886996	1.14268924127802	-0.00586752445979754	-0.000970408219902019
0.99	7.14994683013173	5.45029733862224	542.572999814597	-47.4035534147924	-10.9027754620558	0.403920310366398	1.13831254532032	-0.00590585644412833	-0.000935635080561673
1	7.27036040340319	5.43134363840874	542.58320463002	-47.4237501239875	-10.9247622706917	0.387837001168985	1.13284566139833	-0.00594905989108154	-0.000899151202746931
1.01	7.38992985012819	5.41337851850129	542.605949530387	-47.445667773923	-10.9484886929362	0.371012299380096	1.12661265116273	-0.00599501183281437	-0.000861683075832481
1.02	7.50548208139537	5.39684073632759	542.640357531105	-47.4688629963526	-10.9727809908402	0.354063542085753	1.11994582193718	-0.00604158292962809	-0.000823892799200407
1.03	7.61398020833569	5.38214063975139	542.684985999866	-47.4928970401747	-10.9964877756711	0.337589067848097	1.11317042814178	-0.00608670780639199	-0.00078633660029627
1.04	7.71262973144684	5.36963298175952	542.7378383964	-47.5173588979593	-11.0185152873477	0.322144381792673	1.10659030859708	-0.00612845069946797	-0.000749425427796671
1.05	7.79897438107992	5.35959361630992	542.796408039053	-47.5418889403712	-11.0378596129922	0.308220718540518	1.10047505585924	-0.00616506369474761	-0.000713390182400589
1.06	7.87097808113619	5.35220160827459	542.857756828333	-47.5662018277077	-11.0536347468454	0.296226824271299	1.09504920847458	-0.00619503529379605	-0.000678254078204196
1.07	7.92709011628582	5.34752785076163	542.918629228404	-47.5901073477647	-11.0650955933082	0.286474614758331	1.09048384071534	-0.0062171276230598	-0.000643814403031351
1.08	7.96629128236299	5.34553078354112	542.975598807789	-47.6135277877708	-11.0716552440626	0.279169186389777	1.08689080492215	-0.00623040125881495	-0.000609635571508366
1.09	7.9881195650196	5.34605928977061	543.025241534209	-47.6365104995636	-11.0728961090284	0.274403470196732	1.08431976535286	-0.00623422732898326	-0.000575054848426654
1.1	7.99267469728974	5.34886235614395	543.064327093921	-47.6592344696039	-11.0685747388566	0.272157631707824	1.0827580536281	-0.00622828722096687	-0.000539201475234855
1.11	7.98060176533821	5.35360465021067	543.09001704994	-47.6820099591211	-11.0586204331108	0.272303137667559	1.08213327646721	-0.00621256082470524	-0.000501029180454193
1.12	7.95305483509865	5.35988682607508	543.100056923254	-47.7052706262558	-11.0431279727706	0.274611238739157	1.08231851652578	-0.00618730473378839	-0.000459361227626964
1.13	7.91164233176796	5.36726913417739	543.092948480133	-47.7295579643972	-11.022345038155	0.278765458831374	1.0831398856241	-0.00615302218944355	-0.000412946297429259
1.14	7.85835659037676	5.3752967899463	543.068088765925	-47.7554983639724	-10.9966550646528	0.28437753968248	1.08438611493496	-0.00611042677256222	-0.000360522671909572
1.15	7.79549058154755	5.38352554719238	543.025863783082	-47.7837735973683	-10.9665564408389	0.291006166613521	1.08581979768054	-0.00606040193241165	-0.000300887455865637
1.16	7.72554527783288	5.39154601385412	542.967687117093	-47.8150860030922	-10.9326390605	0.29817770070116	1.08718983664616	-0.00600395840396665	-0.000232967003476373
1.17	7.65113144323029	5.39900542215754	542.895977126316	-47.8501200691086	-10.8955592976861	0.305408066821358	1.08824459301041	-0.00594219143300621	-0.000155884382163782
