Time [s]	GRFml [N]	GRFap [N]	GRFv [N]	Mml [N.m]	Map [N.m]	Mv [N.m]	Mfree [N.m]	COPml [m]	COPap [m]
0.01	0.273047005110746	-3.10126494710378	576.567928402408	7.08484200855587	-1.62832384690545	1.57863090294346	-1.58420476712292	0.00278067278774274	0.0208485104309676
0.02	1.25432223366587	-2.4702642113303	573.367899072154	7.04917176083718	-1.99898759536783	1.56201892100632	-1.55432191556657	0.00278728198070488	0.0201755809159842
0.03	2.21239269471667	-1.94096481531181	570.187482123161	7.02942246591685	-2.36673178851164	1.55629378418025	-1.535906197367	0.00282222542293009	0.0195059882193402
0.04	3.10612003610058	-1.5876293563619	567.064525112362	7.03713579385529	-2.72353405097946	1.56863549543857	-1.53684566165427	0.0029055770847749	0.0188526461712739
0.05	3.87166677991789	-1.44288683930241	564.099970410482	7.07714647021854	-3.05595761249963	1.60048598183709	-1.55945590788494	0.00304386852520244	0.0182394843664556
0.06	4.4307625380692	-1.49510023530259	561.459054146188	7.14724513731492	-3.34712944114652	1.64744905935068	-1.6002823545314	0.00322940297110974	0.0176981240595905
0.07	4.71177374474162	-1.69870179225092	559.344470964443	7.23986228107041	-3.58141122202707	1.70115998363219	-1.6517488897147	0.00344385280212278	0.0172592689982415
0.08	4.67531131605492	-1.99250227423647	557.950235397855	7.34488030996271	-3.74979459474229	1.75228443010368	-1.70489370986504	0.00366436305775231	0.0169424091899609
0.09	4.3339425201721	-2.31856876704201	557.410436347705	7.4523881756801	-3.85372134572189	1.79346108695647	-1.75210919631429	0.00386972282077247	0.0167481317957696
0.1	3.75786368624641	-2.63499344675441	557.757783494834	7.55442849445245	-3.90572044620721	1.82115246117819	-1.78893217316529	0.0040445517679597	0.0166561468030105
0.11	3.06376802643697	-2.9191904714277	558.903462998789	7.64538418546867	-3.9265708702028	1.83589900115678	-1.81441139515972	0.00418057589720033	0.0166297657842206
0.12	2.39021348324902	-3.16266893753353	560.64374637808	7.72130739895748	-3.94003941113474	1.84113100769881	-1.83018139197936	0.0042753698628315	0.0166251049667555
0.13	1.86721163460842	-3.36165748402053	562.691753281493	7.77891668747962	-3.96706261230863	1.84121089367797	-1.83884625098206	0.0043298675902318	0.0166017124077844
0.14	1.58908953195477	-3.50913320887148	564.726534210147	7.81501978222914	-4.02126600848325	1.83957228182543	-1.84245281678661	0.00434616067586557	0.0165311655800583
0.15	1.59780456544848	-3.59241534770965	566.447734212217	7.82678338042108	-4.10701679861986	1.83765613309742	-1.84167552207422	0.00432661730199624	0.0164013466547794
0.16	1.87987643136605	-3.59732772045356	567.623430034686	7.81274931651583	-4.2201460918856	1.83492543014249	-1.83594525491323	0.0042744573637008	0.0162159590365694
0.17	2.37563200958138	-3.51653952602672	568.121319091712	7.77404035073708	-4.35051952947518	1.82976347147371	-1.82431524743124	0.00419505504713447	0.015990574486256
0.18	2.99616371201332	-3.35761117401497	567.918372808849	7.71502194046875	-4.48515001434554	1.82072355107534	-1.80655344953413	0.00409680760112763	0.0157474252500787
0.19	3.6422437958571	-3.14638605169263	567.089796215645	7.64287301472879	-4.61066481610342	1.8075216213295	-1.78389718017737	0.00399059691357584	0.0155110241878156
0.2	4.22043364167958	-2.92352888067842	565.782966810003	7.56598778224655	-4.71452609745813	1.79135277070434	-1.75910340779504	0.00388757828182518	0.0153057251325657
0.21	4.65395817187934	-2.73513448941159	564.184672543212	7.49167016203231	-4.78514287992228	1.77446024094813	-1.73577181432789	0.0037959161299167	0.0151550702737888
0.22	4.88836555907363	-2.62093477292277	562.489935271965	7.42394396048694	-4.8115591545219	1.75922611472073	-1.71724630697573	0.00371772153599725	0.0150818168462317
0.23	4.89352531737499	-2.60453815813578	560.878375767082	7.3623139876506	-4.78353314183298	1.74723594089615	-1.70556902182287	0.00364751783784101	0.0151072938120862
0.24	4.6637209925277	-2.68901636911433	559.500498836704	7.30196290552219	-4.69251732608273	1.73872879712945	-1.70090578174544	0.00357301948900834	0.015249255116585
0.25	4.21677663802514	-2.85865143042874	558.472749496492	7.23530893703732	-4.53348385677722	1.73262215691875	-1.70162713787312	0.00347809660767395	0.0155183682586777
0.26	3.59207876191365	-3.08503720458391	557.877807852775	7.1543286891261	-4.306994885459	1.72702130793079	-1.70493849369031	0.00334692874547482	0.0159144168562149
0.27	2.8467572454834	-3.3342406775137	557.765930639325	7.05279368384944	-4.02064657710779	1.71992442218453	-1.7077453712408	0.0031679168272386	0.0164237555063284
0.28	2.04949994986078	-3.57199237130912	558.154185662689	6.9276794853796	-3.68913903847063	1.70980083169406	-1.70740139765266	0.00293610361924868	0.0170193209541347
0.29	1.27231015810481	-3.76562262702319	559.02263611836	6.77941583226396	-3.33268504435456	1.69584606825658	-1.70211345722121	0.00265354469086598	0.0176636757133496
0.3	0.581456802979315	-3.88369953869618	560.309088152808	6.61115763589576	-2.97406829623117	1.67791974274581	-1.69098822303982	0.00232793980738799	0.0183144934720065
0.31	0.0293919444864438	-3.89585371404995	561.906004687471	6.4276368254113	-2.63514643640699	1.65633915381902	-1.67388290973329	0.00197048014340773	0.0189310353267174
0.32	-0.350742468077918	-3.77527775771393	563.663830976776	6.23424091383951	-2.33377134862421	1.6317486196692	-1.65128272965644	0.00159401130151382	0.0194798563814372
0.33	-0.547137255182814	-3.50482710901828	565.403853164613	6.03673336803971	-2.0819101945584	1.60519506343388	-1.62434723843237	0.00121222026305945	0.0199383272820923
0.34	-0.567971940196465	-3.08528502302987	566.940962460151	5.84160641743172	-1.88528871733714	1.57836923647972	-1.59510001440738	0.00083984053648134	0.0202953860532084
0.35	-0.437628063654418	-2.54238674769688	568.113099964683	5.65664806834906	-1.74434330898792	1.55381620270872	-1.56657827314025	0.000493192849729707	0.020549894901165
0.36	-0.191746773133471	-1.92869225320191	568.81095758043	5.49111202451639	-1.65587677316276	1.53486891153359	-1.54270409433998	0.000190075771844267	0.020707678727099
0.37	0.127746748352694	-1.31777026386875	569.000015326887	5.35500358639591	-1.61470506082397	1.52515341528644	-1.52772862260788	-5.17462480837949e-05	0.0207785182929718
0.38	0.477056861159932	-0.790951022356963	568.728038052046	5.25739278935268	-1.61476675373688	1.52771811236803	-1.52530180222849	-0.000217528670445222	0.0207740483039307
0.39	0.814344745521153	-0.419962942157908	568.114676291814	5.20416501640319	-1.64952568336657	1.54405573702232	-1.5374371110344	-0.000299252115336324	0.0207068796101569
0.4	1.10323293292932	-0.250735834341998	567.324787990816	5.19598966355788	-1.71184962223991	1.57340240056576	-1.56375932369874	-0.000298712272762791	0.0205906443481229
0.41	1.31609679470123	-0.293599292455421	566.531867495549	5.22734492517031	-1.79374237515193	1.61264054618781	-1.60136939535288	-0.000228625337346022	0.0204403208158309
0.42	1.43677909019399	-0.5229636696945	565.880896266218	5.28712919091871	-1.88628846720441	1.65691278412741	-1.64544230191248	-0.00011096012685663	0.0202722252668634
0.43	1.46193420959858	-0.886196609359133	565.460028008425	5.36082764199506	-1.97999546290867	1.70076541809681	-1.6903832932162	2.73060327306007e-05	0.0201033593361125
0.44	1.40022271604053	-1.3182007593009	565.287805498891	5.43361702036351	-2.06550929802215	1.73941763665006	-1.73113855820833	0.000159824452305335	0.0199501616807044
0.45	1.26919758719762	-1.75647790390047	565.318032686807	5.49343185064495	-2.13454147783187	1.76970091388066	-1.76419564044515	0.000266160813043093	0.0198269407917531
0.46	1.09072016652241	-2.15188595288455	565.459487377102	5.53303782912432	-2.18082198908516	1.79035879462498	-1.78794664206304	0.00033510121385727	0.0197442982728675
0.47	0.88657274640791	-2.47257620314245	565.603857013739	5.55055411794607	-2.20093907737093	1.80167373733466	-1.80236156799444	0.000365105938941235	0.019707760942828
0.48	0.676036862917003	-2.70167112994806	565.653659092577	5.5484652487603	-2.19497193522735	1.80466999550096	-1.80820757822486	0.000362116759925701	0.0197167604402022
0.49	0.476354204398696	-2.83174341615878	565.542795910705	5.53170863735977	-2.16681457803489	1.80030431060064	-1.80622581254742	0.000335867375092502	0.0197641200171774
0.5	0.305474498482989	-2.8600275032997	565.245362850587	5.50568809966403	-2.12404067736074	1.78902994357315	-1.79666602402678	0.000296261996086566	0.0198363071329282
0.51	0.185043736271433	-2.78723954191126	564.772364483118	5.47495129927892	-2.07713593541528	1.77091998151099	-1.77938902704238	0.000251121407936039	0.0199147666649415
0.52	0.141001048351065	-2.62048154288182	564.159799633809	5.44285584251524	-2.03800004781099	1.74625562257424	-1.7544650735399	0.000205804587641301	0.0199785283302203
0.53	0.199894501074641	-2.3781480235373	563.453958888983	5.4120425480819	-2.01781931964257	1.71625257197589	-1.72295021977334	0.000164283753432026	0.0200079345044097
0.54	0.380929299787331	-2.0932886458111	562.699994529909	5.38517353063717	-2.02467992330663	1.68352065711728	-1.68742440907555	0.000130614461741674	0.019988853474242
0.55	0.686050706138062	-1.81224083885587	561.937837106045	5.36533323210166	-2.06151344404477	1.65196497682518	-1.65196999752435	0.000109675788993679	0.0199163367719969
0.56	1.09197603432177	-1.58739311534163	561.206066755797	5.3557364784233	-2.12501462896851	1.6260891551758	-1.62151449525475	0.000106552630365964	0.0197965759168202
0.57	1.54816404744134	-1.46571322714178	560.550681169478	5.35879720846864	-2.20597849095519	1.60993389296707	-1.60074229425553	0.000124719007945195	0.0196463408625949
0.58	1.98301366983147	-1.47684657373827	560.033246052491	5.37497383286507	-2.29110628117014	1.60604787242576	-1.59296582124727	0.000163860245483649	0.0194897826697124
0.59	2.31767652011732	-1.62510769868833	559.732682174032	5.40194953161683	-2.3658642914686	1.61486788906544	-1.59935331288363	0.000218420446998713	0.0193533170568487
0.6	2.48390289647219	-1.88829495307686	559.737131722741	5.43457530778728	-2.41762952734348	1.63469796113148	-1.6187443883431	0.000277684791630706	0.0192599459051901
0.61	2.44057371446123	-2.22361237503601	560.126204717209	5.46568231768069	-2.43826997507525	1.66222224119323	-1.64803608974063	0.000327564703732297	0.0192245504366003
0.62	2.18378978731185	-2.57831388277958	560.947980992253	5.48752142267442	-2.42552652055794	1.6932906813039	-1.68291517883656	0.000353565300229008	0.0192513178383274
0.63	1.74754602334974	-2.9011828337379	562.197834113722	5.49336946121326	-2.38300173207901	1.72366691611254	-1.71863909899044	0.000343986374087835	0.0193336881496277
0.64	1.19523961124159	-3.15120833860966	563.806349473163	5.47883124447172	-2.31903816765012	1.74953053760239	-1.75064365727106	0.000292396394997008	0.0194563462694667
0.65	0.605246022838431	-3.30155575430227	565.641189916107	5.44253691207837	-2.24509169280286	1.76770949184941	-1.77491925805001	0.000198775149839348	0.0195981842534538
0.66	0.0553883662460635	-3.3392208312385	567.523597945121	5.38618233809256	-2.17424870812513	1.77577750964398	-1.78825085173444	6.92411550367034e-05	0.0197350541863551
0.67	-0.38920029327328	-3.26248563408083	569.255831491707	5.31406482730555	-2.12029602615937	1.77220289434815	-1.78847655891318	-8.5279732792265e-05	0.0198415414780249
0.68	-0.682272232730287	-3.07869160591178	570.652732282114	5.23234840714026	-2.09734438528631	1.75665671258317	-1.7748587161992	-0.000250895994826861	0.0198917143973603
0.69	-0.796808584642874	-2.8038382565205	571.569762733159	5.14824667113206	-2.11961783825997	1.73042679314065	-1.74851685409274	-0.000412635112660098	0.0198595164970471
0.7	-0.72179181485817	-2.46372977285372	571.921297096949	5.06919575758507	-2.20083219350099	1.69672798783314	-1.71272682397198	-0.00055614965953088	0.0197198350576621
0.71	-0.458572719242618	-2.09482305550433	571.686032306941	5.00199208175932	-2.35269742874525	1.6606372131675	-1.67282946307141	-0.000669262166516305	0.0194511083070771
0.72	-0.0193379518492144	-1.74245524733645	570.900015604532	4.95185510631925	-2.58246892586832	1.62846025428255	-1.63556436236618	-0.000743456682970711	0.019039655119206
0.73	0.5715901033092	-1.45507097174909	569.640910273885	4.92145752835333	-2.88999600443463	1.606538462878	-1.60783713098005	-0.000775324064899219	0.0184849735483563
0.74	1.27490116940195	-1.2750287230092	568.008981799451	4.91009778530811	-3.26515693199238	1.59975013313361	-1.59517031217135	-0.000767746663408952	0.0178044454040281
0.75	2.03448505929188	-1.22858862066909	566.110532014725	4.91329130015507	-3.68672214833769	1.6101463929114	-1.60027450110815	-0.000730411216881	0.0170355763574842
0.76	2.77926461054618	-1.31871407282902	564.0481674863	4.92305152962313	-4.12344585425365	1.63619258736757	-1.62221391376919	-0.000679209997756391	0.016234295534235
0.77	3.42997966332077	-1.52372841258943	561.919720126757	4.92898944831069	-4.537598317121	1.67292937965365	-1.65649171314948	-0.00063429660958858	0.0154688620070019
0.78	3.91019866086774	-1.80279677793052	559.824487916894	4.92011576543802	-4.89041137244705	1.71306994296712	-1.69608697250305	-0.000616955776469474	0.0148102410046102
0.79	4.15898182319737	-2.10653561861676	557.872585771912	4.88697284972258	-5.14828394573618	1.74872451426291	-1.7331482760695	-0.000645879652376724	0.0143209483118562
0.8	4.14176025155763	-2.38899881826314	556.191491937632	4.8235581958193	-5.28831183647161	1.77322389638383	-1.76082174430777	-0.000733736636324922	0.0140449052535298
0.81	3.85647831097099	-2.61680504035916	554.924038905777	4.72850483992522	-5.30186386626632	1.78248978447319	-1.77465765735432	-0.00088493686986213	0.0140006151019411
0.82	3.33360997177997	-2.7724909993398	554.214349037877	4.60517223404378	-5.19545627314389	1.77557873108443	-1.77321098791587	-0.00109520692872223	0.0141790733748033
0.83	2.63058204688948	-2.85170806855719	554.182128109002	4.46062087221061	-4.98888329136382	1.75433038315917	-1.7577525026826	-0.00135306647492917	0.0145465950831254
0.84	1.82259840149109	-2.85648883545342	554.890262981426	4.30379041700203	-4.71120941699326	1.72235549914119	-1.73131523878201	-0.0016427238341219	0.0150515914753419
0.85	0.992325396590714	-2.78834196396871	556.314416898867	4.14345185272642	-4.3956365670027	1.68379071263536	-1.69749920066968	-0.00194748023182545	0.0156335789049266
0.86	0.220350010711562	-2.64473555445293	558.324912346268	3.98656329175421	-4.07435543315127	1.64226523161591	-1.65948134817418	-0.00225261712444746	0.0162324867816737
0.87	-0.422777607503569	-2.42072939313776	560.689745609565	3.83749622657276	-3.77431450616016	1.60038170979846	-1.6195371119763	-0.00254699176013407	0.0167965902655453
0.88	-0.883070444967911	-2.11495062218651	563.103015939123	3.69826891141526	-3.51450217023008	1.55978017430108	-1.57914348478995	-0.00282309343893405	0.0172879433067587
0.89	-1.12864035989057	-1.73693542042041	565.236283085925	3.56955192347407	-3.30495976104131	1.52162610524893	-1.53949985548293	-0.00307590713257988	0.0176848204735932
0.9	-1.15417650589332	-1.31204980027175	566.803178158098	3.45194709880516	-3.14741792681676	1.48722438371502	-1.50215766612936	-0.00330134388100745	0.0179812359235396
0.91	-0.983369938224725	-0.881109005084381	567.622234087169	3.3469924760215	-3.0372169833739	1.45845069929969	-1.46943831710411	-0.00349505436273323	0.0181840234482284
0.92	-0.667607395268062	-0.494024542529218	567.661384271782	3.25752498917949	-2.96603392141087	1.43779925519158	-1.44443065006076	-0.00365213287854405	0.0183082330515701
0.93	-0.279443563194222	-0.199331137146349	567.050889083973	3.18734569185698	-2.92487344685346	1.4280153327566	-1.43053898612905	-0.00376771205542836	0.0183717600972527
0.94	0.0993727090687442	-0.0331660938335956	566.059024457289	3.14042338364191	-2.90677001586722	1.43144140875744	-1.43072438533361	-0.0038380103850244	0.018390196408074
0.95	0.39356057080649	-0.0114569155536768	565.034616713785	3.12000490231761	-2.9086923946258	1.44929824093162	-1.44668291587324	-0.00386124748271466	0.018372867339145
0.96	0.550033218250808	-0.127698535791252	564.329481583989	3.12793026473563	-2.93225998983724	1.48112665310252	-1.47821048544788	-0.00383803883524092	0.0183208508675006
0.97	0.549244300309587	-0.356447923006485	564.219254702229	3.16424887169448	-2.98309098292522	1.52455000245094	-1.52293150002584	-0.00377127720722104	0.0182274203750224
0.98	0.408513108505604	-0.660565785224245	564.841388416865	3.22703927528463	-3.06890161810206	1.57542191061651	-1.57646096249537	-0.00366584377049639	0.0180808176871007
0.99	0.176001132469003	-0.999187511601462	566.164325264545	3.31227467771416	-3.19681281308416	1.62833625625204	-1.63296872085288	-0.0035285504854623	0.01786864138136
1	-0.0829635886224593	-1.33376346281799	567.993689167459	3.41368523576042	-3.37059629485687	1.67741426978578	-1.68604306549821	-0.00336844799671265	0.0175826094521392
1.01	-0.302959206432518	-1.63096647642059	570.012294797797	3.52277103753	-3.58869207827846	1.71724420200793	-1.72970937544847	-0.00319719475703439	0.0172222384250851
1.02	-0.433632340608497	-1.8630425504223	571.843380388938	3.62927120053317	-3.84367213732327	1.7438219033726	-1.75943756889468	-0.00302885025292832	0.0167962211655795
1.03	-0.448544860264008	-2.00741058934048	573.122441376405	3.72236260941625	-4.1234181487251	1.75532154696587	-1.77296245772198	-0.00287847585391154	0.0163209742670267
1.04	-0.345806226173088	-2.04743829556407	573.562908683395	3.79260703999989	-4.41373717885582	1.75252342321988	-1.77074766191637	-0.00275937475950416	0.015816763763578
1.05	-0.141685623469008	-1.97531967718162	573.004058734803	3.83427612529336	-4.70164689916333	1.73875756265392	-1.75595941742167	-0.00267951654208887	0.0153026710878141
1.06	0.139180378034977	-1.79637719028791	571.434594652563	3.84734378850651	-4.97831230728693	1.71930164806036	-1.73389325726753	-0.0026383350076048	0.0147920928986948
1.07	0.472583258015858	-1.53272112929851	568.990727421692	3.83833820912475	-5.24071750802673	1.70029646263452	-1.71091308001246	-0.00262530585065057	0.0142902890912628
1.08	0.839238718002055	-1.22375337666114	565.932036296006	3.81949171367592	-5.49158132762191	1.68738577379488	-1.69309712309493	-0.00262131184747594	0.0137947548967522
1.09	1.22408689677117	-0.921814817531806	562.601226138634	3.80616499208442	-5.73761729916795	1.68440391722168	-1.68489839857511	-0.00260287492689515	0.0132981761891162
1.1	1.61207004502794	-0.683075468880573	559.375093285263	3.81315428106243	-5.98677523628399	1.69247171527706	-1.68817020691842	-0.00254822692122592	0.0127928246466244
1.11	1.98362131354508	-0.555796448298643	556.613964832336	3.85095437227887	-6.24539027950499	1.70978455373293	-1.70184450874961	-0.00244337406321338	0.0122747989973861
1.12	2.31299502064059	-0.569438120124598	554.616107859423	3.92313686529221	-6.5161194430798	1.73218884906797	-1.72238010634125	-0.00228616170254448	0.0117466638783554
1.13	2.57096623415983	-0.728100983687231	553.582473096674	4.02565459756336	-6.79721241297496	1.75439705827283	-1.74486306219498	-0.00208696937950825	0.0112176806827888
1.14	2.73119321587722	-1.01040003470755	553.595731189316	4.14822682562411	-7.08319137311862	1.77147560485478	-1.76442584604262	-0.00186583386541395	0.01070168506794
1.15	2.77777283578836	-1.37564754175623	554.615786028197	4.2772537530797	-7.36658289605855	1.78014405110848	-1.77754241320048	-0.00164704433063001	0.010213413896479
1.16	2.71100478875594	-1.77407627735698	556.491742896633	4.39922926296067	-7.64008895865937	1.77949405254012	-1.78280523849774	-0.00145308389497811	0.00976447789471896
1.17	2.54922402611435	-2.15763922197891	558.987832388039	4.50354280122794	-7.89855341898135	1.77095005470717	-1.78098337540649	-0.00129989302157307	0.00936013943640712
1.18	2.3262288861097	-2.48810207769631	561.818502357462	4.58389275862857	-8.14023852386731	1.75756500110989	-1.77442150036571	-0.00119479607118977	0.00899767642061733
1.19	2.08548691199203	-2.74053966965121	564.68641676007	4.63812179213471	-8.36718408154145	1.74296443885685	-1.76606397227052	-0.00113734662430853	0.00866658080221855
