Time [s]	GRFml [N]	GRFap [N]	GRFv [N]	Mml [N.m]	Map [N.m]	Mv [N.m]	Mfree [N.m]	COPml [m]	COPap [m]
0.01	0.150846792818759	0.406394000162288	573.175289560153	3.64239246849433	-7.31101441095919	1.65941854269291	-1.65339560607909	0.00196305767628069	0.00482474107077668
0.02	0.379949595648136	-0.0265678944659072	570.515871249483	3.60717687069278	-7.22176699292197	1.72376115968924	-1.72158606597441	0.00193295947893402	0.00492166432543495
0.03	0.571382056388479	-0.427523681274448	567.970273672022	3.59073829291619	-7.15260203799139	1.77586804291438	-1.77738488226972	0.00193469918569322	0.00498550277103277
0.04	0.700030921821702	-0.780300761279227	565.662139845856	3.60991769057656	-7.12142506332035	1.80603981503509	-1.81108580506937	0.0019966285658185	0.00498732036338118
0.05	0.760683548246852	-1.08442490208727	563.713529119941	3.67337552237738	-7.14177071462473	1.80920284639707	-1.81770648259729	0.00213266413560365	0.00490594382589793
0.06	0.769060674466213	-1.35515000246719	562.230507425542	3.77987297331915	-7.22106263175415	1.78579822963457	-1.79786258153712	0.00233940143968592	0.00473071807123776
0.07	0.755739536872861	-1.61702698029561	561.281649196164	3.91873681624642	-7.35932966142832	1.74135708359136	-1.75727636028171	0.00259716466034943	0.0044632683401179
0.08	0.755219576647662	-1.89246107729414	560.876591895693	4.07200862160277	-7.54865392377654	1.68490985023738	-1.70507884093532	0.00287403335638947	0.00411794622247585
0.09	0.794120728187524	-2.18902700742378	560.953165243488	4.21753360422825	-7.77366007136478	1.62670272576516	-1.65141316651508	0.00313144048394831	0.0037206174251555
0.1	0.882772446940229	-2.49055634469026	561.379690226497	4.3323370885754	-8.01326969089154	1.57588393927373	-1.60505067506644	0.00333012043241754	0.00330556361151024
0.11	1.01314067368957	-2.75637591146693	561.974674309752	4.39589454925517	-8.24370826394755	1.5388009553414	-1.57170527951582	0.00343568782740999	0.0029105911233403
0.12	1.16363071811321	-2.93046727331821	562.540780255331	4.39310773785476	-8.44239688598646	1.51831419284894	-1.55347022328183	0.00342354900171637	0.00257093956639393
0.13	1.30869457679079	-2.95854258681604	562.905275950762	4.31682294101685	-8.59199546432533	1.51416322975331	-1.54939117769763	0.00328293809069868	0.00231311022250014
0.14	1.42935280394157	-2.80756685886825	562.956651633577	4.16958797278075	-8.68364298114137	1.5240553667878	-1.55678457841079	0.00301964825968093	0.00215005255238759
0.15	1.52042702042632	-2.48064787140017	562.667601474784	3.96418964979857	-8.71849858516387	1.54492715722067	-1.57267145919129	0.00265674720870057	0.00207904424597044
0.16	1.59161686122892	-2.02136197094813	562.09808262115	3.72252342473311	-8.70706688032972	1.57384560656938	-1.59472492423599	0.00223254463607647	0.00208300646101817
0.17	1.66204095309048	-1.50524237353673	561.377670780223	3.47262278231774	-8.66640030869542	1.6082581483185	-1.6214132111744	0.00179550917857363	0.00213505145238546
0.18	1.75051373125027	-1.0209374137037	560.672200047062	3.24417158198536	-8.6159064875441	1.64565907093426	-1.65143447241922	0.00139665118691956	0.00220508430587024
0.19	1.86557537266211	-0.647468113066327	560.143863635906	3.06335437472252	-8.57291203424082	1.68304719823538	-1.68289312639919	0.00108079055897137	0.00226664463456699
0.2	1.99941482890016	-0.435387844783059	559.915282765827	2.9482316439006	-8.54918199388139	1.71665652110772	-1.71279167539524	0.0008787092427055	0.00230213358662618
0.21	2.12827837060724	-0.39787257389791	560.046258847063	2.90578553979482	-8.5492474146682	1.74229272430545	-1.73724310052644	0.00080213836052212	0.00230514780331764
0.22	2.21938182235379	-0.513647873091231	560.527783637074	2.9313452052038	-8.57078879601167	1.75627485377793	-1.7524271602148	0.000842800196358295	0.00227961154490358
0.23	2.24179482997527	-0.739026095584877	561.292827712215	3.01041637537754	-8.60668704666128	1.75662851288534	-1.7559068078834	0.000975559812204319	0.00223639496715516
0.24	2.17724778046678	-1.02319935401174	562.238997136106	3.12226151821535	-8.6479062278139	1.74398436042695	-1.74769209508508	0.00116457528799574	0.00218878111035037
0.25	2.02688449193244	-1.32057107704871	563.255504926226	3.24415354561742	-8.68624245589652	1.72170639648757	-1.73050633063299	0.00137060310853609	0.00214830031181129
0.26	1.81156044704855	-1.59626164022209	564.246582512054	3.35519524735251	-8.71616297525657	1.69508375268528	-1.70904688038953	0.00155755850626071	0.00212210073939312
0.27	1.56570893061865	-1.82471596161104	565.145334627036	3.43893040834258	-8.73536364713202	1.66982710343419	-1.68848432806512	0.00169700515607318	0.00211235203576515
0.28	1.32711590859851	-1.98471703730194	565.915459634888	3.48450179358434	-8.74413432882594	1.65042806552018	-1.67279780891461	0.00177016128058061	0.00211744865184127
0.29	1.12628709762235	-2.05551464179142	566.542211883174	3.48660905208866	-8.74398933900172	1.63901904966147	-1.66363518644394	0.00176786478756019	0.00213423079274649
0.3	0.97899176782122	-2.01765926104901	567.017352656113	3.4448032343111	-8.73619484343616	1.6351716848757	-1.66016919171419	0.00168942017882623	0.00216022056939369
0.31	0.884139140435583	-1.85914541544916	567.32464033066	3.36265613566662	-8.72077786656734	1.6366787546821	-1.65998932874862	0.00154123890013391	0.00219500344051926
0.32	0.827021078160144	-1.58414004431369	567.432070164909	3.24712202111582	-8.6963729910239	1.64094889617066	-1.66061537782426	0.0013357919275202	0.00224028359468209
0.33	0.786031319781088	-1.21956623948034	567.294630426025	3.10811039424829	-8.66094262089698	1.6463877490322	-1.66094430193733	0.00109087455714141	0.00229864836587917
0.34	0.740012462795197	-0.815162298387613	566.867527898952	2.95806495100361	-8.61310339850871	1.65315753178357	-1.66197271688406	0.000828808115177382	0.00237151843075073
0.35	0.673693945537374	-0.435255533168986	566.125919282592	2.81128971490798	-8.55359668190354	1.66299280039728	-1.66646170785859	0.000575132050357974	0.00245700790819486
0.36	0.579989303196845	-0.144199555695808	565.084559662092	2.68287822392377	-8.48640256652413	1.67817719340848	-1.67768659056631	0.000356563979340918	0.00254842257009763
0.37	0.459506477362767	0.00952005298278255	563.810430901605	2.5873029575701	-8.41910922292899	1.7001624332015	-1.69782684169782	0.000198371700825484	0.00263391889207437
0.38	0.318703510128073	0.00459619405088313	562.423488317	2.53689494855266	-8.3623642757761	1.72846597230853	-1.72671229836563	0.000121603677171622	0.00269751843067517
0.39	0.168223541239125	-0.150537235261492	561.08437396251	2.54050146659751	-8.32848477966538	1.76034829952466	-1.76147733180644	0.000140712860610126	0.00272131902527789
0.4	0.0221401091278175	-0.424385165509618	559.971876848133	2.60253718324987	-8.32952208357019	1.79141185087695	-1.7972636776791	0.000261961678938549	0.00268844504101984
0.41	-0.102307810151221	-0.774902805254015	559.255636798272	2.72249884534471	-8.375219211539	1.81685166165296	-1.82864906364584	0.000482722101749378	0.00258608378784397
0.42	-0.185680609076848	-1.16211861176118	559.070232763511	2.89488943732467	-8.47133441815292	1.83281535564384	-1.85117857326593	0.00079155484239124	0.0024078940476287
0.43	-0.209068439388814	-1.55553019267087	559.495423812176	3.10947013351908	-8.61873004877118	1.83731746226455	-1.86237263475442	0.0011688985788959	0.00215516126243431
0.44	-0.158629384702185	-1.93382390945514	560.544796839037	3.35183685021825	-8.81345650085196	1.83039454966538	-1.86186962425405	0.00158833763502342	0.00183631169644488
0.45	-0.0305765158255919	-2.2784792577145	562.162645845964	3.60443704643869	-9.04783183124766	1.81355877889037	-1.85078795990706	0.00201862461372482	0.00146475698067194
0.46	0.165721365667363	-2.56601509212201	564.227536017121	3.84819371053096	-9.31227728615957	1.78892813599279	-1.83075568516211	0.00242672106813069	0.00105545815006175
0.47	0.408739940291965	-2.76445423967544	566.560975028659	4.0648005069045	-9.59747199664036	1.75853153540759	-1.80318396972343	0.00278193379697234	0.000620980691893647
0.48	0.670730813890432	-2.83758269185774	568.94046849091	4.2394888984696	-9.89628577194122	1.7241538051511	-1.76919717435757	0.00306076131482136	0.000168051579172102
0.49	0.927250593935615	-2.75665271108501	571.117118248298	4.36374074309593	-10.2049723380995	1.68776652867327	-1.73025645779002	0.00325149835112293	-0.00030436798571698
0.5	1.16697244920226	-2.51515046906347	572.838074918223	4.43719251517979	-10.5232676120431	1.6522414265021	-1.68910750321977	0.00335726614499754	-0.000804762129956671
0.51	1.39767114346077	-2.14003416054908	573.873304464208	4.46800415853262	-10.8533168335227	1.62183704714796	-1.6504460504451	0.00339621106952281	-0.00134629997249597
0.52	1.64521931712613	-1.6935669616464	574.044557688971	4.47130535624258	-11.1976903900761	1.60199858768696	-1.62075466943596	0.00339824079834672	-0.00194212669652832
0.53	1.94490640330201	-1.26331336719701	573.25278187306	4.46590006958282	-11.557047555179	1.5983083379575	-1.60711136978328	0.00339869030319717	-0.00259983557412713
0.54	2.32744771765324	-0.942577082028055	571.499165012375	4.46999950772029	-11.9281659245351	1.61484171849765	-1.6152558467945	0.00343036024134435	-0.00331662771345742
0.55	2.80440951722939	-0.807476026183792	568.895025495985	4.49712218897008	-12.3029957455367	1.65252448728762	-1.64759648938703	0.003516018791894	-0.00407661671971477
0.56	3.35839497601228	-0.898261365761342	565.657009998542	4.55328341850187	-12.6691147762883	1.70817885223673	-1.7019544725314	0.00366341398834336	-0.00485122201305793
0.57	3.94189366331145	-1.21081101241789	562.086388479095	4.63618965592743	-13.0115308911577	1.7747306176183	-1.77160249007187	0.00386409573182089	-0.00560274924370691
0.58	4.48573806617244	-1.70026929323896	558.534222615397	4.73651361727339	-13.3153540705281	1.84261324978703	-1.84666388918667	0.00409617366017379	-0.00629034959180869
0.59	4.91479559303138	-2.29435068092257	555.357207017048	4.84070200723944	-13.5685937190423	1.90194089637607	-1.91641257586814	0.00432998240947413	-0.00687689028101951
0.6	5.16611757746981	-2.91078776282816	552.871298885095	4.9343874449305	-13.7643287433779	1.94473525120728	-1.9716874632299	0.00453490328037054	-0.00733507672213557
0.61	5.20411521841	-3.47293570633711	551.311176285473	5.0054522645611	-13.901740582026	1.96649855629091	-2.00664127597544	0.00468551594691635	-0.00765148509683722
0.62	5.02856187179316	-3.91956280766965	550.802696235298	5.04608529508931	-13.9858889630054	1.96670792552081	-2.01935957699785	0.0047657710559933	-0.00782784822649829
0.63	4.67374872503004	-4.20816570977951	551.352929312254	5.05362380058924	-14.0264923257418	1.94822751773442	-2.01135422391265	0.00477070878157793	-0.00787972505587875
0.64	4.19993950147208	-4.31408115997682	552.858609321221	5.03038066097665	-14.0362118536409	1.91601123624661	-1.98634569942109	0.0047060385593255	-0.00783330562288487
0.65	3.68036510475347	-4.22889194621746	555.129909415454	4.98286863660871	-14.0289614343875	1.87565348139962	-1.94893575351388	0.00458635266399909	-0.0077213819110879
0.66	3.18773056289362	-3.96074267509442	557.923388469268	4.92080435587503	-14.0185959368496	1.83228808018044	-1.90368288677634	0.0044327668236076	-0.00757941774537196
0.67	2.78351371339676	-3.53684483277106	560.976570025866	4.85607557153861	-14.0180598070671	1.79009012755205	-1.85479903032144	0.00427046736046244	-0.00744228259379198
0.68	2.51170242229114	-3.00599488668317	564.0372734317	4.8016290824039	-14.0388310964658	1.752327221739	-1.80633778779767	0.00412623615537733	-0.00734176294705624
0.69	2.39682596848456	-2.43770270926841	566.883271412509	4.77012430439476	-14.0903782415246	1.72167272237082	-1.76250342947527	0.00402577341370591	-0.00730462547624466
0.7	2.44491412923788	-1.91524829468629	569.331311650149	4.77226855930835	-14.1794050037745	1.70042635730437	-1.72767649915892	0.00399068469453423	-0.00735090640440661
0.71	2.64573749653	-1.52240665022967	571.237896163752	4.81497070364281	-14.3088630000361	1.69039954873977	-1.70592873252568	0.0040353100180156	-0.00749225722078684
0.72	2.97523998627105	-1.32660945606794	572.4963716449	4.89969989485378	-14.4769658702315	1.69244762133451	-1.70009447611095	0.00416396469066826	-0.00773048881685645
0.73	3.39799156269388	-1.36351110882442	573.035163736037	5.02157044539019	-14.6766216261221	1.70585568498241	-1.71073473822911	0.00436939395925229	-0.00805675288250962
0.74	3.870187478628	-1.62818516948037	572.820372318937	5.1695935247138	-14.8957112678293	1.72790272737775	-1.73544544251277	0.00463314390308878	-0.0084519111183215
0.75	4.34381981454632	-2.0762364790662	571.863094966475	5.32824169152802	-15.118451596712	1.75388777171038	-1.76886964065284	0.00492810248271724	-0.00888847768174156
0.76	4.77213857215004	-2.63471039576082	570.228849348697	5.48006471716647	-15.3277432396287	1.77772842350601	-1.8035186425531	0.00522282017866926	-0.00933411014244118
0.77	5.11573022156986	-3.21922748306409	568.044427870789	5.60873467926605	-15.5080434937182	1.79302172951939	-1.83120743492743	0.00548663358272417	-0.00975611670316839
0.78	5.347931280213	-3.75172738842897	565.497175272403	5.70173273056542	-15.648059656679	1.79429057151021	-1.84469795945611	0.00569433023192512	-0.0101260461221852
0.79	5.4582044710229	-4.17341293910417	562.823178238349	5.75199224248468	-15.7425365441427	1.77809120942323	-1.83910293538043	0.0058292344148837	-0.0104233051415378
0.8	5.45259198513013	-4.44979582073084	560.283744491277	5.75815110183076	-15.7926361723778	1.74373176228346	-1.81273113156895	0.00588411726041882	-0.010636975522807
0.81	5.35119196537501	-4.56809749142473	558.13295470644	5.72351583818172	-15.804810927398	1.69349442795877	-1.76727463674346	0.00586004448444344	-0.0107655135697477
0.82	5.18340238061666	-4.53017360764288	556.581979510083	5.65423585989186	-15.7885194663733	1.63239152452167	-1.70744129560438	0.00576390478504785	-0.0108146336287997
0.83	4.98212321206694	-4.3453827466871	555.767408355911	5.55738528803115	-15.7534748444513	1.56756115669744	-1.64023738326293	0.00560568132856798	-0.0107941858555167
0.84	4.77810159688223	-4.02698066641268	555.730569853015	5.43959001991224	-15.7072327080076	1.50741097113734	-1.5740857067741	0.00539643706708648	-0.0107150620483191
0.85	4.59528159180719	-3.5932155075628	556.412762087301	5.30655681227825	-15.6537887252987	1.46058057307893	-1.51786774932774	0.00514754487930569	-0.010587035374834
0.86	4.44763902651013	-3.07153273065676	557.667943572795	5.16347803500197	-15.5935134390318	1.43476795441501	-1.47988711792543	0.00487109941523811	-0.0104180261468066
0.87	4.33774655268013	-2.50248166945329	559.290565092106	5.01594870551291	-15.5243300998738	1.4354934389336	-1.46673768860075	0.00458093872991461	-0.0102147521212762
0.88	4.25724987835131	-1.93986167186574	561.052783883308	4.87086087014104	-15.4436758211396	1.46495782162694	-1.48214512473149	0.00429346867550284	-0.00998426151510162
0.89	4.18939444381679	-1.44531828827977	562.743161511463	4.73678188201386	-15.3505857545635	1.52124592744925	-1.52599068834538	0.00402758850554186	-0.00973560354072439
0.9	4.11352299710687	-1.07816408752663	564.198707359959	4.62354174320198	-15.2472473665843	1.59816320510307	-1.59383132709768	0.0038033911836961	-0.00948091213742103
0.91	4.01098085498446	-0.883444072807445	565.323942103752	4.54105352787064	-15.1395634662686	1.68591374037864	-1.67721161822605	0.00363978891099448	-0.00923541697561941
0.92	3.87123926461247	-0.882186341452263	566.094102461237	4.49765667103654	-15.0365666882526	1.77262561568162	-1.76488702424019	0.00355160754299777	-0.00901624976870968
0.93	3.696578793477	-1.06702645819355	566.543740702829	4.49842164910478	-14.9488534645151	1.84646179224177	-1.84479143871731	0.00354687624781447	-0.00884027317219199
0.94	3.50369115980768	-1.4043953412883	566.745553428217	4.54385828383049	-14.8864665663246	1.89782660408281	-1.90629959482201	0.00362498450096826	-0.00872143676457171
0.95	3.32122130979434	-1.84215960302766	566.786195133792	4.62935450426067	-14.856789567095	1.92109481702422	-1.94218582337165	0.00377615020495503	-0.00866830517635886
0.96	3.18345605148263	-2.31998586610138	566.745542617794	4.74549353073728	-14.8629959198302	1.91540558780671	-1.94974522513162	0.00398234372818085	-0.00868238417497924
0.97	3.12167763235162	-2.77934269421641	566.68362693426	4.87921052534978	-14.9034319140211	1.88434883998192	-1.93081055316453	0.004219532003086	-0.00875769874133403
0.98	3.15563487437626	-3.17090680572537	566.636206287639	5.01559118606722	-14.9720565328177	1.83472264392984	-1.8907660968078	0.00446088922511279	-0.00888179127340771
0.99	3.28773942650597	-3.45862965440229	566.616997187962	5.14000113921988	-15.0597859728167	1.77482072780112	-1.83697969385767	0.00468047271519367	-0.00903797324211392
1	3.50184901015507	-3.62107690560176	566.622976224379	5.24017405878612	-15.156371611951	1.71280923978368	-1.7772160841738	0.00485678058385808	-0.00920835920507712
1.01	3.76707372397615	-3.65129467608803	566.639337080085	5.30788698236483	-15.2523322484213	1.65563621746233	-1.71850696884406	0.00497560182857426	-0.0093770133493879
1.02	4.04542481797963	-3.55623622304032	566.642296850413	5.33992262876986	-15.3404854640076	1.60864195985298	-1.66668388552454	0.00503166315983383	-0.00953249989673927
1.03	4.30089758689274	-3.35600390186891	566.600087350545	5.33816007229386	-15.4167645824338	1.57572693626124	-1.62645634791707	0.00502878555688913	-0.009669269849644
1.04	4.50719264657657	-3.08237551535966	566.474091415708	5.30882462966406	-15.4802234051332	1.55972224338193	-1.60168719575361	0.00497856644878791	-0.00978761376631493
1.05	4.65187651712784	-2.77579272594844	566.222446857846	5.26111864461559	-15.5323582909703	1.56258406831565	-1.59548031443445	0.00489793133373184	-0.00989229109838557
1.06	4.73613100846047	-2.48038963784042	565.807398542379	5.20558767840799	-15.5760488062391	1.58519824864043	-1.60986024494665	0.00480614977405946	-0.00999029996695588
1.07	4.77081545709958	-2.23753541422623	565.205725101962	5.15260229064461	-15.6144809389062	1.62684674834731	-1.64510069712092	0.00472199029336828	-0.0100884591995393
1.08	4.77075672033176	-2.07927329326879	564.419605340789	5.11123915695503	-15.6503528268752	1.68462246459029	-1.69900933254312	0.00466155500721999	-0.010191460503599
1.09	4.74955045283165	-2.02344465973575	563.484244095034	5.0886588469668	-15.6855019396245	1.75316871581842	-1.76657537550352	0.00463702833907709	-0.0103008191932212
1.1	4.71662021189026	-2.07191624361481	562.468989551548	5.08987387721323	-15.7209049740216	1.82502411826864	-1.84028660662618	0.00465621293419716	-0.0104148032886028
1.11	4.67713363832714	-2.21229785123562	561.470458243838	5.11766619395322	-15.7568687579161	1.89162070166404	-1.91117170220734	0.00472246258649789	-0.010529099914465
1.12	4.63414339755642	-2.42230517031701	560.598653889757	5.17241058474085	-15.793205831195	1.94472281743475	-1.97034012528904	0.0048345772042746	-0.0106378124624978
1.13	4.59151596681967	-2.67505803638867	559.95923395436	5.25169618375087	-15.8292707906927	1.97792156431299	-2.01060090850723	0.00498642583809628	-0.0107344180476108
1.14	4.55610757146821	-2.94350668927896	559.636094810417	5.34985372422961	-15.863867696367	1.9877801636472	-2.02771861894643	0.00516642170273662	-0.0108124969883912
1.15	4.53818455825768	-3.20287320120211	559.677981383282	5.4576898139129	-15.8951459645133	1.97435249682611	-2.02100402526894	0.0053573153115587	-0.0108662524674434
1.16	4.54994021834654	-3.4311243093436	560.091201379754	5.56280079244911	-15.9206230430142	1.9410020139906	-1.99316445911452	0.00553691786642341	-0.0108909505003253
1.17	4.60272493917463	-3.60849011904083	560.83854062638	5.65073501780538	-15.9373995630278	1.89364258835535	-1.94955434346744	0.0056802131571777	-0.0108833774617677
1.18	4.70399226816181	-3.71741777495615	561.843029762143	5.70701540589239	-15.9425141753374	1.83963929758981	-1.89709157652724	0.00576288769703714	-0.0108422761629688
1.19	4.85490769392391	-3.74392559757478	562.994864773599	5.71971334662728	-15.9332944743936	1.78662459191108	-1.84311461840436	0.00576575476434049	-0.01076858460765
