Time [s]	GRFml [N]	GRFap [N]	GRFv [N]	Mml [N.m]	Map [N.m]	Mv [N.m]	Mfree [N.m]	COPml [m]	COPap [m]
0.01	20.614735140148	-5.79620195733841	817.770667951791	-71.9905446225065	3.83034310624748	-4.44941138813366	-2.60770069967187	-0.000275690011516611	0.00592772356578902
0.02	21.3387285245677	-5.37417482285558	817.109332197717	-72.0578576491644	3.79510330566155	-4.62266130294805	-2.71604418627719	-0.000312583943773008	0.00608503737305696
0.03	22.0504330280274	-4.96033688675286	816.462796237771	-72.1248103494141	3.75984800568515	-4.79308618908754	-2.82240292012947	-0.000349811707099788	0.00624010158693299
0.04	22.7374752834619	-4.56267742370107	815.844184906539	-72.191050485817	3.72495666883248	-4.95771181849252	-2.92491334852427	-0.000386998965849251	0.00639102982238161
0.05	23.3883007375308	-4.18867812255102	815.265683842023	-72.2562867688426	3.69083595097526	-5.11375253583854	-3.02183958094353	-0.000423720020229832	0.00653612368997809
0.06	23.9925940064219	-3.84502264503464	814.738034776153	-72.3202910105171	3.65791771519661	-5.25871106629335	-3.11163337882939	-0.00045949821985058	0.00667393000040885
0.07	24.5416368175119	-3.53734593095363	814.270103314883	-72.38290012515	3.62665383740084	-5.39046330452769	-3.19298389114414	-0.000493811526054068	0.00680328920296897
0.08	25.028586701647	-3.2700352001177	813.86854114256	-72.4440184151678	3.59750755748593	-5.50732418375455	-3.26485508874131	-0.000526103475184983	0.00692337336228267
0.09	25.4486644950272	-3.046091216683	813.537558406736	-72.5036203213387	3.57094156779403	-5.60809195277806	-3.32650967619698	-0.000555799171563484	0.00703371237365795
0.1	25.7992441951072	-2.86705464769706	813.278815176461	-72.5617535474612	3.54740343445193	-5.6920695330949	-3.37751909940574	-0.000582325375438275	0.00713420755248673
0.11	26.0798444063029	-2.73299853804634	813.091433828221	-72.6185422203455	3.52730927236858	-5.75906298996243	-3.41776006251617	-0.000605133309375487	0.00722513218678372
0.12	26.2920261231239	-2.64258429140971	812.972127472365	-72.6741895415269	3.5110268118169	-5.80935843908032	-3.44739867138745	-0.000623722525947982	0.00730711909451791
0.13	26.4392065755423	-2.5931753085073	812.915433497715	-72.7289792463002	3.49885908950375	-5.84367984337479	-3.46686389817789	-0.000637664077269882	0.00738113566186152
0.14	26.5264030049	-2.58099976073873	812.914036304827	-72.7832751204168	3.49102996937166	-5.8631310676157	-3.47681249134101	-0.000646621299053023	0.00744844724200867
0.15	26.5599233242923	-2.60135198707593	812.959159539741	-72.8375178404436	3.48767255931567	-5.8691262069065	-3.47808772754564	-0.00065036674710269	0.00751057015823219
0.16	26.5470225073827	-2.64882075743148	813.041005744535	-72.8922184990878	3.48882135992183	-5.86331256427283	-3.4716745174242	-0.000648794168206603	0.00756921587435724
0.17	26.4955441965883	-2.71753215574025	813.149220320232	-72.9479483444458	3.4944086869713	-5.84749071974067	-3.45865334442314	-0.000641924808075883	0.00762622816814341
0.18	26.4135664654608	-2.80139506121567	813.273356971996	-73.0053244896029	3.50426558098465	-5.82353592551566	-3.4401553505929	-0.000629907811549133	0.00768351536639481
0.19	26.3090690289663	-2.89433806627233	813.403323222326	-73.0649916195312	3.51812708534254	-5.79332461355906	-3.41732060489265	-0.000613014911712002	0.00774297987282022
0.2	26.1896366515213	-2.99052805250063	813.529786929807	-73.1276000160041	3.53564146844458	-5.75866916105462	-3.39126122197371	-0.000591629997442019	0.00780644733738226
0.21	26.0622102850018	-3.08456241880753	813.644527804684	-73.193780516681	3.55638270977508	-5.72126328324708	-3.36303056840853	-0.000566234463721044	0.00787559787417848
0.22	25.9328938336513	-3.17162897507097	813.740721429005	-73.2641172997045	3.57986538358923	-5.68263957364163	-3.33359932650668	-0.000537389465913259	0.00795190172747377
0.23	25.8068206533703	-3.24762963713517	813.813147042893	-73.339119619219	3.60556096908748	-5.64413985006633	-3.30383871145197	-0.000505716308148269	0.00803656170536911
0.24	25.6880802013296	-3.30926615081898	813.85831415366	-73.4191937918128	3.63291459657328	-5.60689814857132	-3.27451068337392	-0.000471876196800336	0.00813046454116431
0.25	25.5797018824159	-3.35408801701425	813.874506701921	-73.5046168344862	3.6613613016422	-5.57183548444892	-3.24626458836756	-0.000436550491557792	0.0082341430989403
0.26	25.4836902750162	-3.38050449291903	813.86174695945	-73.5955131717466	3.69034099329089	-5.539664909013	-3.21963932456037	-0.00040042240506855	0.00834775101061021
0.27	25.4011036935113	-3.38776393839217	813.821684453943	-73.691835758951	3.71931153043644	-5.51090495811908	-3.19506987966398	-0.000364160859876411	0.008471050919486
0.28	25.3321665374635	-3.37590482161258	813.757417961327	-73.7933528131928	3.7477595239901	-5.48589932685714	-3.17289693760448	-0.000328406934478284	0.00860341701855905
0.29	25.2764051116676	-3.3456833822982	813.673260940511	-73.8996411099408	3.77520871549237	-5.46484051504584	-3.15337820922853	-0.000293763046653944	0.00874385202447953
0.3	25.2327965491328	-3.29848328635646	813.574462681106	-74.0100865066309	3.80122600563543	-5.44779525937911	-3.13670020342278	-0.000260784758876042	0.00889101814092064
0.31	25.1999210577812	-3.23621262696814	813.466898864648	-74.1238920111088	3.82542539627213	-5.43472977996001	-3.12298931024086	-0.000229974871707231	0.00904328096333959
0.32	25.1761088324435	-3.1611933841351	813.356746173638	-74.2400933437673	3.84747025136097	-5.4255331936222	-3.1123212998178	-0.000201779315618903	0.00919876469108749
0.33	25.1595744928761	-3.0760480088072	813.250155984906	-74.3575815693688	3.86707436487769	-5.42003785084528	-3.10472862741741	-0.000176584271796201	0.00935541647499449
0.34	25.1485336790684	-2.98358721478588	813.152942018454	-74.4751320197285	3.88400234252345	-5.41803580146558	-3.10020524972535	-0.000154713952492834	0.00951107727215292
0.35	25.1412983085096	-2.88670240651847	813.070296050645	-74.5914384119553	3.89806976105269	-5.41929105071183	-3.09870897292431	-0.000136428547363053	0.00966355623602867
0.36	25.1363488370074	-2.78826550206903	813.00654442772	-74.7051508063094	3.90914347222185	-5.42354769728174	-3.10016164261402	-0.000121921982077789	0.00981070546628372
0.37	25.1323835441136	-2.69103827567503	812.96495614441	-74.8149158567196	3.91714228071563	-5.43053441918992	-3.10444772590661	-0.000111319320961548	0.0099504918989364
0.38	25.128346290547	-2.5975927773756	812.947610729213	-74.9194176949691	3.92203806351776	-5.43996606674767	-3.11141200872549	-0.000104673853202794	0.0100810632446365
0.39	25.123435302272	-2.51024390711763	812.95533118878	-75.0174177611356	3.92385723053819	-5.45154331827908	-3.12085722453534	-0.000101964106984317	0.0102008051807507
0.4	25.117096289595	-2.43099483148818	812.98768393575	-75.1077919478936	3.92268227149204	-5.46495144418674	-3.13254243962762	-0.000103091212741704	0.0103083874593365
0.41	25.1090036058949	-2.36149562359658	813.04304412143	-75.1895635600603	3.91865300902428	-5.47985920845857	-3.1461829471125	-0.000107877164010246	0.0104027971833845
0.42	25.099033212924	-2.30301526135636	813.118721310166	-75.2619307944864	3.91196709667517	-5.4959188217227	-3.16145227609589	-0.000116064585945699	0.0104833581922292
0.43	25.0872309939279	-2.25642691118431	813.211137175134	-75.3242877068497	3.90287927179875	-5.51276766211465	-3.17798671905256	-0.000127318609032811	0.0105497362392676
0.44	25.0737795041292	-2.22220622614616	813.316044075436	-75.3762379362615	3.89169890198243	-5.53003222125421	-3.19539253834146	-0.000141231358534344	0.0106019303912766
0.45	25.0589656416165	-2.20044217606142	813.428771184133	-75.4176007893314	3.87878544720804	-5.54733443848874	-3.21325575394173	-0.000157329416958998	0.0106402517779499
0.46	25.0431510339694	-2.19085968516886	813.544483434981	-75.4484096252594	3.86454159184901	-5.56430028516231	-3.23115416136461	-0.000175084412463903	0.0106652914258011
0.47	25.0267462369212	-2.19285307354425	813.658438051684	-75.4689028157877	3.84940396885302	-5.58057017950668	-3.24867100279345	-0.000193926651043791	0.010677879383561
0.48	25.0101891921495	-2.20552898568544	813.766223867217	-75.4795078628584	3.83383158793092	-5.59581057657277	-3.26540953454812	-0.000213261467584056	0.0106790376597819
0.49	24.9939278406095	-2.22775715886556	813.863970015769	-75.4808195291398	3.81829227322133	-5.60972590643016	-3.28100761453933	-0.000232487743230096	0.0106699296348178
0.5	24.978406369668	-2.25822705997435	813.94851280282	-75.4735730614696	3.80324759653629	-5.62206994136886	-3.29515138387511	-0.000251017844261144	0.0106518085807813
0.51	24.964054305079	-2.29550813430148	814.017512484279	-75.4586137571305	3.78913694422833	-5.63265566553453	-3.30758714083662	-0.000268298096358269	0.0106259677402967
0.52	24.951277545699	-2.3381111974946	814.069515115877	-75.4368642333989	3.7763614661797	-5.64136279729605	-3.31813060076097	-0.000283828827642043	0.0105936941049449
0.53	24.9404504691045	-2.38454839537407	814.103958332896	-75.4092908107849	3.76526871557588	-5.64814226750155	-3.32667289403578	-0.000297182997827558	0.0105562276318935
0.54	24.9319083876014	-2.43338918167293	814.121123630515	-75.3768704113591	3.7561387936939	-5.65301717120173	-3.33318286358346	-0.0003080224773361	0.0105147271805014
0.55	24.9259398753833	-2.48330993701446	814.122041176907	-75.3405593092294	3.74917276522467	-5.65607996715868	-3.33770546622205	-0.000316111142608872	0.0104702439771913
0.56	24.9227787820658	-2.53313517620327	814.108356162405	-75.3012649557491	3.7444840112058	-5.65748597622959	-3.34035634004245	-0.000321324102331134	0.0104237029598683
0.57	24.922596056637	-2.58186875317045	814.082167961996	-75.2598219433244	3.74209304647862	-5.65744350321514	-3.34131285255197	-0.000323652552148604	0.0103758919389392
0.58	24.9254917914352	-2.62871404725012	814.045854810631	-75.2169729748926	3.74192615715455	-5.65620115472602	-3.34080217281433	-0.000323203960610814	0.0103274581584425
0.59	24.9314881249345	-2.67308276206088	814.001897170786	-75.173355477378	3.74381802264907	-5.6540331287106	-3.33908709868226	-0.000320197504895442	0.010278911557196
0.6	24.9405237888134	-2.71459264148223	813.952712489817	-75.129494242915	3.74751828840817	-5.65122339463462	-3.33645050480261	-0.000314954890847807	0.010230633817839
0.61	24.9524511320125	-2.75305505429491	813.900512653761	-75.0858002081141	3.75270186081712	-5.64804975754772	-3.33317935042353	-0.0003078868988515	0.0101828921470823
0.62	24.9670363955541	-2.78845396938414	813.847193264236	-75.0425751970771	3.75898251490056	-5.64476880100482	-3.32954919528339	-0.000299476187157435	0.0101358566458446
0.63	24.9839638507637	-2.82091829270309	813.794261073615	-75.0000221680219	3.76592924652985	-5.64160263542558	-3.32581011907306	-0.000290257050769421	0.0100896200945582
0.64	25.0028441643043	-2.85068983197314	813.742802730872	-74.9582602282149	3.7730846703497	-5.63872824748405	-3.32217483148416	-0.000280792970939062	0.0100442189887594
0.65	25.0232270389227	-2.87808927587769	813.693494662047	-74.9173434315807	3.77998466716874	-5.63627006408067	-3.31880960536048	-0.000271652892693371	0.0099996547069352
0.66	25.0446178282795	-2.9034825174279	813.646650686949	-74.8772821635522	3.78617842320326	-5.63429612569165	-3.31582847684104	-0.000263387231408632	0.00995591377244787
0.67	25.0664974706032	-2.92724942789337	813.602301096574	-74.8380657645619	3.79124798001054	-5.63281802421648	-3.31329094662627	-0.00025650463115843	0.00991298628195329
0.68	25.0883447624361	-2.9497568236547	813.560294592374	-74.7996849619976	3.79482642866102	-5.63179451595086	-3.31120319881759	-0.000251450475700812	0.00987088171277652
0.69	25.1096597309916	-2.97133689981746	813.520412882299	-74.762152682312	3.79661393399519	-5.63113848641962	-3.30952264087177	-0.000248588087506608	0.00982964148966832
0.7	25.1299866866357	-2.99227187468474	813.482486946028	-74.7255219072336	3.79639086288966	-5.63072673453193	-3.30816537180071	-0.000248183442990844	0.00978934788433643
0.71	25.1489354632534	-3.01278504425877	813.446504066025	-74.6898994211003	3.79402741137465	-5.63041187096546	-3.30701601627995	-0.000250394086789629	0.00975012903392257
0.72	25.1661993926224	-3.03303793052471	813.41269564944	-74.6554545631462	3.78948927506758	-5.63003549965679	-3.30593922876595	-0.000255262749978571	0.00971216008919761
0.73	25.181568709409	-3.05313276097989	813.381597553049	-74.6224224343439	3.78283908033628	-5.62944177900472	-3.30479208131383	-0.000262715973558115	0.00967566072890458
0.74	25.1949383377598	-3.07311917120197	813.354076929276	-74.5911013912857	3.77423348324629	-5.62849044526292	-3.30343650680227	-0.000272567817636785	0.0096408894903616
0.75	25.2063093531229	-3.09300379837041	813.33132235231	-74.5618450621828	3.76391604184312	-5.62706842585002	-3.30175097862796	-0.000284528507855254	0.00960813555377883
0.76	25.2157838222478	-3.11276134121876	813.314796947941	-74.5350495116163	3.7522061658009	-5.62509927276	-3.29964066880215	-0.000298217643812189	0.00957770876430407
0.77	25.2235531736912	-3.1323456989006	813.306157215448	-74.5111365297761	3.73948463633001	-5.62254980010944	-3.29704543583131	-0.000313181380154526	0.00954992876853389
0.78	25.2298807103036	-3.1516999549466	813.307142976462	-74.4905342994431	3.72617635858022	-5.61943350566952	-3.29394514555799	-0.00032891280027867	0.00952511417093883
0.79	25.235079311537	-3.17076422117779	813.319446216772	-74.4736568759457	3.7127311489708	-5.6158105812012	-3.29036201281204	-0.000344874545642042	0.00950357257450897
0.8	25.2394857540118	-3.18948067197214	813.344568339421	-74.4608839854339	3.69960346220462	-5.61178455506594	-3.2863598570055	-0.000360522650013572	0.00948559225856736
0.81	25.2434333726299	-3.20779544996477	813.383676402824	-74.452542598309	3.68723202004263	-5.60749584583486	-3.28204037642848	-0.000375330465559283	0.00947143607102759
0.82	25.2472249653611	-3.22565747787131	813.437469209045	-74.4488915712598	3.67602031134034	-5.60311272017612	-3.27753674882541	-0.000388811562125287	0.0094613378847074
0.83	25.2511078939585	-3.2430145377149	813.506063622442	-74.4501103872713	3.66631888829803	-5.59882032624172	-3.27300504518119	-0.000400540535058169	0.00945550170589703
0.84	25.2552532414597	-3.25980725297704	813.588910278645	-74.4562926816317	3.65841028848213	-5.59480860207279	-3.26861408668417	-0.00041017076932831	0.00945410325108351
0.85	25.2597406578383	-3.27596181201124	813.684745978756	-74.467444853865	3.65249727044307	-5.59125992829983	-3.26453447174568	-0.000417448373489448	0.00945729355008988
0.86	25.2645501714109	-3.29138239053644	813.791587686206	-74.4834896651321	3.64869487043863	-5.58833740162629	-3.26092754479046	-0.000422221706980966	0.00946520391657651
0.87	25.2695617894975	-3.30594426254106	813.906770318372	-74.5042743429962	3.64702657945257	-5.5861745513127	-3.2579350695761	-0.000424446165748482	0.0094779514729183
0.88	25.2745631890597	-3.3194885346937	814.027027637561	-74.5295823924711	3.64742471608076	-5.58486721085902	-3.25567030946495	-0.000424184148740918	0.00949564434361989
0.89	25.2792652429128	-3.33181930751238	814.148612690248	-74.5591480697283	3.64973484586023	-5.58446810085343	-3.25421111136401	-0.000421600384730235	0.00951838564974622
0.9	25.2833245772577	-3.34270386998298	814.267451609917	-74.5926723299156	3.65372388535347	-5.58498448871625	-3.25359544774795	-0.000416953038305055	0.00954627554729684
0.91	25.2863718476515	-3.35187628941452	814.379322361948	-74.6298390205375	3.65909134303643	-5.58637908044088	-3.25381970288736	-0.000410581220501239	0.00957941074635117
0.92	25.2880439850502	-3.35904448370583	814.480048316511	-74.6703301539322	3.66548300024384	-5.58857408233723	-3.25483980659815	-0.000402889690772736	0.00961788120735456
0.93	25.2880183276415	-3.36390057864236	814.565695499328	-74.7138392445291	3.67250623297599	-5.59145816051618	-3.25657513305565	-0.000394331643978786	0.00966176401078002
0.94	25.2860463381272	-3.36613407824804	814.632762059168	-74.7600819192491	3.67974612495368	-5.5948958344572	-3.25891490444089	-0.000385390524069227	0.00971111470623547
0.95	25.2819845240077	-3.36544713071444	814.678348925582	-74.8088032781143	3.68678152604885	-5.59873867888287	-3.26172667933385	-0.00037656179480245	0.00976595673471466
0.96	25.2758202383898	-3.36157097348749	814.700301781188	-74.8597817700829	3.693200266532	-5.60283758391314	-3.26486637241874	-0.000368335530807192	0.00982626975263889
0.97	25.2676902431541	-3.3542825036258	814.69731626087	-74.9128296301244	3.69861284124948	-5.60705524378244	-3.26818915225111	-0.000361180576829123	0.00989197784335688
0.98	25.2578902613095	-3.34341985499151	814.669000591692	-74.9677901744627	3.70266402034143	-5.61127801401115	-3.27156050289099	-0.000355530869188571	0.00996293866379012
0.99	25.2468742208452	-3.32889587921192	814.615892541423	-75.0245324536424	3.70504201312204	-5.61542629848464	-3.27486671662554	-0.000351774333534226	0.0100389345341294
1	25.2352424808749	-3.31070852439018	814.539430363302	-75.0829439057867	3.705484995948	-5.61946270178531	-3.27802411030833	-0.000350244580448402	0.0101196663411929
1.01	25.223719006765	-3.28894728002449	814.441880211347	-75.1429217300609	3.70378499893208	-5.62339730616923	-3.28098632642161	-0.000351215429394954	0.010204750906107
1.02	25.2131181900426	-3.26379509806824	814.326225058606	-75.2043637143873	3.69978931593348	-5.62728960177853	-3.28374918896849	-0.000354898115623045	0.0102937221880027
1.03	25.2043027488376	-3.23552549213735	814.196022304562	-75.2671592090415	3.69339974437445	-5.63124680501867	-3.28635272855334	-0.000361440886455579	0.0103860363869767
1.04	25.1981348463805	-3.20449483818529	814.055238865668	-75.3311808504389	3.68457006556531	-5.63541853247552	-3.28888016306051	-0.00037093058324749	0.0104810807036435
1.05	25.1954231758176	-3.17113022581991	813.908073509218	-75.3962775215699	3.67330223536046	-5.63998804253706	-3.29145381063962	-0.000383395740449326	0.0105781852399432
1.06	25.196869226767	-3.13591351394402	813.758776473495	-75.4622689026517	3.65964176641297	-5.64516049813952	-3.29422810895256	-0.000398810716954168	0.0106766373125763
1.07	25.2030162252663	-3.09936250291743	813.611476030616	-75.528941832506	3.64367274902775	-5.65114892475244	-3.29738010634791	-0.000417100405997584	0.0107756973151832
1.08	25.2142042871382	-3.06201032695848	813.470020659721	-75.5960485806522	3.62551288418926	-5.65815872094408	-3.30109796388205	-0.000438145142336293	0.0108746152176261
1.09	25.2305351235341	-3.02438427975885	813.337844018745	-75.6633070313565	3.60530880025407	-5.66637170929339	-3.30556814946381	-0.000461785528891654	0.0109726468299886
1.1	25.2518491834769	-2.98698530526739	813.217858076104	-75.7304027088065	3.58323180734554	-5.67593078077566	-3.31096210591799	-0.000487827025730849	0.0110690690752563
1.11	25.2777174291648	-2.95026931433895	813.112377748906	-75.7969925274617	3.5594741252657	-5.6869261782264	-3.31742322502644	-0.00051604426647347	0.0111631936902679
1.12	25.307449053596	-2.91463133445996	813.023078351621	-75.8627101293633	3.53424551595347	-5.69938438176784	-3.32505495465033	-0.000546185175212565	0.0112543789860241
1.13	25.3401154230013	-2.88039327913981	812.950985233837	-75.9271726631457	3.50777017232808	-5.71326040496513	-3.33391080504633	-0.000577975037015994	0.0113420395196803
1.14	25.3745894292377	-2.84779585628773	812.896493296652	-75.9899888578688	3.48028367046826	-5.72843409492286	-3.34398690714131	-0.000611120716946097	0.0114256537356273
1.15	25.4095983494425	-2.81699484464908	812.859412708995	-76.0507682382436	3.45202978576589	-5.74471076806911	-3.35521761789425	-0.000645315221271978	0.0115047697990744
1.16	25.4437873145724	-2.78806167851456	812.839036144787	-76.1091313072548	3.42325700537929	-5.76182622590968	-3.36747447782175	-0.000680242750826313	0.0115790099549809
1.17	25.4757896640219	-2.76098801606786	812.834222240417	-76.1647204813958	3.39421463371524	-5.77945590410311	-3.3805686178969	-0.000715584316555931	0.0116480737875668
1.18	25.5042998792231	-2.73569374472565	812.843489709603	-76.2172115006763	3.36514847553417	-5.7972276368421	-3.39425650324478	-0.000751023882257084	0.0117117407285242
