Time [s]	GRFml [N]	GRFap [N]	GRFv [N]	Mml [N.m]	Map [N.m]	Mv [N.m]	Mfree [N.m]	COPml [m]	COPap [m]
0.01	1.55008743870891	3.81207730247548	857.478023458399	2.4834297043296	27.3980040321912	0.982865609047275	-1.10019344757357	-0.00577618743871755	-0.0116849336089969
0.02	1.75114077269053	3.55520803203012	856.441515418493	2.41030483615059	27.2013757550126	0.970055282349607	-1.07820476676614	-0.00586296662884522	-0.0118730758616923
0.03	1.93013280385997	3.34690858956492	855.602989729943	2.33728641668089	27.0334654102776	0.952258544174471	-1.05290446091989	-0.0059501681055536	-0.0120352149782608
0.04	2.07388914565322	3.22432857296117	855.088535472805	2.26493119533429	26.9135313128766	0.92584807672509	-1.02192395915809	-0.00603740315770884	-0.0121535588425871
0.05	2.16877164619277	3.19804038524193	854.926796107894	2.20161805296859	26.8581496010725	0.889721231207291	-0.984572911417704	-0.00611481373321054	-0.0122096629849561
0.06	2.19910642391103	3.24848829986001	855.041054925408	2.16433388651492	26.8812401834804	0.845722687477342	-0.942157146140175	-0.00616213419169132	-0.0121840839306237
0.07	2.14670342549164	3.33151689135661	855.276587786655	2.175933178602	26.9938995688004	0.798254545882094	-0.89776800254594	-0.00615200832627028	-0.0120576479091158
0.08	1.99211923399432	3.39098355450764	855.455272568655	2.25967579424086	27.2039986215273	0.753169320758761	-0.85557155323304	-0.00605659812261683	-0.0118140899475509
0.09	1.71782323383925	3.37436402177939	855.440497847914	2.43270448776648	27.5155472733506	0.716243842930112	-0.819764140416552	-0.00585548101955857	-0.0114434074320121
0.1	1.31262248533915	3.24655708769957	855.192051919813	2.70045166361374	27.9279041338569	0.691660191399851	-0.793470195742693	-0.00554242806990968	-0.0109450321002552
0.11	0.775954338462446	2.99794126675495	854.79377531684	3.05369640995612	28.4350157931878	0.68092953687516	-0.777899034827916	-0.00512897239962529	-0.0103298979718521
0.12	0.120406614116511	2.64478192501236	854.445066146076	3.46922034534017	29.024955371289	0.68257184118218	-0.772021598728578	-0.00464360734195057	-0.00962069354362183
0.13	-0.628689154265092	2.22260262944626	854.418017573394	3.91396766535276	29.6800311190168	0.692636857677587	-0.772879309686401	-0.00412671661730868	-0.00885000567649402
0.14	-1.43666048801645	1.77525739774857	854.991680749845	4.35161611675952	30.3776298201933	0.705888806019009	-0.776436888053787	-0.00362255399423073	-0.00805658961388256
0.15	-2.26475325997953	1.34348027006691	856.380891709228	4.7498148214264	31.0917785291191	0.717268089529566	-0.778708587020225	-0.00317038830874916	-0.0072804822209811
0.16	-3.07536484281858	0.956371914301038	858.677864006326	5.08623295618935	31.7952220471063	0.723165466348457	-0.776793989759345	-0.00279707703957355	-0.00655796356142735
0.17	-3.83548083692485	0.627841988631161	861.820570902319	5.35200151937839	32.4616918625422	0.722128574222735	-0.769496630411364	-0.00251281003158754	-0.00591737814145249
0.18	-4.51748661894012	0.358085834435571	865.594441778992	5.55194709850327	33.0680196094813	0.7148368567771	-0.757356299982048	-0.00231077852814821	-0.00537656263798275
0.19	-5.09785068354397	0.138486940363356	869.665428571135	5.70192400506823	33.5958142613971	0.703445469550296	-0.742143401086279	-0.00217041994805478	-0.00494219244626881
0.2	-5.55524098616115	-0.0425187242119079	873.635383925655	5.82425588027248	34.032537142206	0.69060927868754	-0.726054234648218	-0.00206302238250677	-0.0046109001238358
0.21	-5.86991303922968	-0.194904504251814	877.106597346518	5.94260740210481	34.3719280492265	0.678575976898213	-0.710934086324524	-0.00195808170462197	-0.00437166690681146
0.22	-6.02555267650623	-0.325136538651703	879.741899457102	6.07748832774509	34.613830500281	0.668660560804493	-0.697809435015973	-0.00182893338858603	-0.00420881988785571
0.23	-6.01346614494578	-0.436861583106501	881.309548476609	6.24316285565444	34.7635255937947	0.66122398035099	-0.686857830330699	-0.00165669313530226	-0.00410498854504993
0.24	-5.8376828031999	-0.533099410681677	881.706936996737	6.44619771189524	34.8307156138032	0.6560621316281	-0.67775405489765	-0.00143219378496584	-0.00404353682330449
0.25	-5.51878410059432	-0.61837495070048	880.962437956797	6.68542891575014	34.8283052407266	0.652957618647263	-0.670185182708157	-0.00115616109282579	-0.00401021780596239
0.26	-5.0944455318466	-0.699473314977064	879.219041772905	6.95288244603091	34.7711121024438	0.652112225650321	-0.664281373166584	-0.000838175733064106	-0.00399402738506843
0.27	-4.61571300910316	-0.78426869447982	876.70595601517	7.23516903993633	34.6746024964139	0.654264580914724	-0.660773039979838	-0.000494994739914101	-0.00398741051075074
0.28	-4.13950061588047	-0.878997072389238	873.704862659176	7.51502335857399	34.5537029156835	0.660456493047348	-0.660820920579266	-0.000148629802441791	-0.00398606999516993
0.29	-3.71909862596067	-0.985034927293101	870.516456601773	7.77286486780504	34.4217024153229	0.671569338337555	-0.665609638961401	0.000175665883537457	-0.00398863433478802
0.3	-3.39512326406062	-1.09647127139001	867.430952363295	7.98841803918096	34.2892546152405	0.687843306739169	-0.675886835648607	0.000451538348927416	-0.00399636625135641
0.31	-3.18912457155398	-1.19948653185255	864.704219539663	8.14247756683978	34.163519566473	0.708586131948033	-0.691636203668724	0.000653887372153772	-0.00401296476141633
0.32	-3.10115006325883	-1.27393372947691	862.539693863385	8.21882951183089	34.0475426968453	0.732186219270543	-0.711999935036143	0.000761421571368714	-0.00404437479295788
0.33	-3.11134853397331	-1.29680724307764	861.075514306596	8.20618286751808	33.9400191536146	0.756413686256697	-0.735452661470768	0.000759204940886327	-0.00409842229403989
0.34	-3.18466172522169	-1.24672374684559	860.376435024776	8.09980319799123	33.835598861435	0.778879618216628	-0.760127135626598	0.000640787695559308	-0.00418408355826455
0.35	-3.27712849703482	-1.10827987036628	860.430658665292	7.90245211092723	33.7258247257689	0.79747445693814	-0.784144828419011	0.000409414562849486	-0.00431029117146592
0.36	-3.34239882054816	-0.875224407889703	861.152384585661	7.62428143001567	33.6006667301406	0.810636799608279	-0.805828926570522	7.7871772898308e-05	-0.00448435086653237
0.37	-3.33754891610164	-0.551724228512854	862.391106609984	7.28152142892096	33.4504544103063	0.817395467085664	-0.823756971023134	-0.000333218200582408	-0.00471023131483317
0.38	-3.22787997622452	-0.151495537716338	863.948214933996	6.89409703838459	33.2678766116859	0.817236757514228	-0.836704836726825	-0.00079847190923954	-0.00498711364104165
0.39	-2.99075980698549	0.304909120630457	865.60019891393	6.48261907160168	33.0496647917844	0.809925582057789	-0.843595786458075	-0.00129161655023802	-0.00530858670895956
0.4	-2.61857627722749	0.793932618734412	867.125984218138	6.06542522891079	32.7976307496523	0.795419446149034	-0.843566050672369	-0.00178930261091359	-0.00566273252015004
0.41	-2.12058287879061	1.29297671749592	868.334251827673	5.65639962278644	32.5188768527332	0.77395425903287	-0.836190652561047	-0.00227393772058393	-0.00603310780580413
0.42	-1.52307750037432	1.78348877938196	869.085711210439	5.26413879646101	32.225186729056	0.746279429737902	-0.821811531301146	-0.00273482372421396	-0.00640038250565517
0.43	-0.867260178882443	2.2524086963625	869.305826702242	4.89268138575614	31.9317745377711	0.713925164633597	-0.801824920580455	-0.00316731606791076	-0.00674423865679175
0.44	-0.204447797214558	2.69168744370826	868.985557561617	4.54356705657514	31.6556735575704	0.679343501926431	-0.778762077365263	-0.00357028676039017	-0.00704512094590337
0.45	0.410953436758546	3.09617627396981	868.17077862841	4.21857053283704	31.4140641800826	0.645798290443993	-0.756054612723207	-0.00394269635107791	-0.0072855550774536
0.46	0.929467686590783	3.46071153098104	866.944196947764	3.92220575102755	31.2227929551584	0.616974465298285	-0.737492130390577	-0.00428039696830884	-0.00745094713443206
0.47	1.31372036103298	3.77750453805071	865.405619983862	3.66311083334813	31.0952494753902	0.59639036558481	-0.726504583799164	-0.00457427662085574	-0.00752995864385897
0.48	1.54291299633095	4.03487336182432	863.656531631172	3.45372661148562	31.0416759116994	0.586776427935519	-0.725477422226349	-0.00481048884861757	-0.00751464921471257
0.49	1.61343378319524	4.21792588279151	861.792941540434	3.30819681427613	31.0689026605885	0.589594428216186	-0.735299221932856	-0.00497288004288809	-0.00740056750159457
0.5	1.53559990838273	4.31115401495861	859.907029839573	3.23899569220552	31.1804402515852	0.60481306684458	-0.755254444017003	-0.0050470144010949	-0.00718687545707852
0.51	1.32774742592855	4.30224885095963	858.094454460749	3.25324369700647	31.3768156555351	0.630961024537157	-0.78325096515158	-0.00502463130360353	-0.0068764651042223
0.52	1.00968152775964	4.18602449985753	856.461735717874	3.34984516628516	31.6560231920102	0.665394898406142	-0.81627032588336	-0.00490714823827576	-0.00647593332815855
0.53	0.59756654254668	3.96728779202604	855.127927239674	3.51839881324903	32.0139671001102	0.704682172218219	-0.850889745184331	-0.00470703838381792	-0.00599526499956149
0.54	0.101670604638782	3.66181053891203	854.217036578632	3.74033452190707	32.444800234531	0.745014604312696	-0.883754370369423	-0.00444651557187603	-0.00544715209760016
0.55	-0.47271680890784	3.29510902633013	853.841574312082	3.99207215954935	32.9411025929485	0.782612149515166	-0.911946434056221	-0.00415376296073022	-0.004846019257088
0.56	-1.12195801124799	2.89929899763089	854.081619973041	4.24939600337498	33.4938863022111	0.814116592512365	-0.933260546948482	-0.00385767974020668	-0.00420697133958237
0.57	-1.83977280773515	2.50868997595341	854.966192699102	4.49189303700039	34.0924573588808	0.836981825538407	-0.94641817567001	-0.00358254448073514	-0.00354495041134156
0.58	-2.61352092051239	2.1549347910449	856.463427911007	4.70632490857416	34.7242101428288	0.849841611980067	-0.951234432530073	-0.00334396800470549	-0.00287433507558743
0.59	-3.42220805895375	1.86250465832025	858.483159658025	4.88816964282515	35.3744766955685	0.852795096043022	-0.948708639083411	-0.00314705986571673	-0.00220903711725162
0.6	-4.23670774059766	1.64512887954816	860.891198626726	5.04113776310494	36.0265866284408	0.847523636715527	-0.940979986672075	-0.0029870366873791	-0.00156291602267911
0.61	-5.02204824905009	1.50371096579047	863.530667856511	5.17503483552316	36.6622930395407	0.837161300057792	-0.931095717070791	-0.00285180910523652	-0.000950147836871973
0.62	-5.741166984341	1.42611676477972	866.243776204743	5.30272390311435	37.2626641376159	0.825889519561646	-0.922584672062997	-0.00272562437439583	-0.000385147846664657
0.63	-6.35933575883742	1.38905696272117	868.888052691002	5.43703669058805	37.809426141515	0.81829905959407	-0.918894745382048	-0.00259273572189189	0.000118205506736524
0.64	-6.84845810038775	1.36198321849816	871.343902638236	5.58830329194494	38.2865947791319	0.818632767828414	-0.922808278141567	-0.00244030021363462	0.000548009607951816
0.65	-7.19054170551597	1.31248967440326	873.514102391405	5.76282192845413	38.6820979434809	0.830063943846455	-0.935968630373377	-0.00226014081142845	0.000896085416457915
0.66	-7.37979055433644	1.21227818733607	875.318980037416	5.96222410272775	38.9890236700428	0.854161701271377	-0.958624622954251	-0.00204945727904238	0.00115946267477374
0.67	-7.42293477545938	1.04249222520787	876.692348373803	6.18344356161112	39.2061610223225	0.890647420919008	-0.989637996574819	-0.0018108651431854	0.00134101105436718
0.68	-7.33765623301835	0.797301417775555	877.582353919748	6.41894686860786	39.3376385972054	0.937471824314808	-1.02672704702599	-0.00155218959869896	0.00144882466146656
0.69	-7.14929691904936	0.485043911614743	877.958733022133	6.6570230501255	39.3916725201883	0.991165505708101	-1.06686371615239	-0.00128625354502276	0.00149432666008226
0.7	-6.8864174280667	0.126863090902083	877.824597842077	6.88217688622694	39.3786555572237	1.0473612097991	-1.10671900072499	-0.00103058196487726	0.00148946473481448
0.71	-6.57609541265342	-0.246632684796035	877.22808747933	7.07589643596897	39.3089892617053	1.10136856053561	-1.14306513785649	-0.000806659366001106	0.0014436857609979
0.72	-6.23998211351024	-0.59982024404435	876.268058602495	7.21814342536009	39.1911335912781	1.14870186896168	-1.17308155384191	-0.000638279427181088	0.00136150515345462
0.73	-5.89197548597185	-0.896749632334049	875.088961544048	7.28977093754384	39.030300947208	1.18550566402593	-1.19455644378671	-0.000548706306787716	0.00124137472346131
0.74	-5.53793077502996	-1.10543660208787	873.862978956984	7.27572322110821	38.8280632698215	1.20886899613271	-1.20600887490355	-0.000556803119602045	0.00107622309746058
0.75	-5.17723902421636	-1.20141478392574	872.761573311449	7.16843375432145	38.5829110556963	1.21704753728003	-1.20676617303501	-0.000672831198715973	0.000855581199948607
0.76	-4.80556048925645	-1.17036795763109	871.922518229442	6.97049395110677	38.2915636211155	1.20961123585644	-1.19701698074215	-0.000895058023648088	0.000568745236372958
0.77	-4.41770002716735	-1.00965607220344	871.42088964129	6.69559934757806	37.9506492576272	1.18750923988812	-1.17783072844331	-0.00120840669707256	0.000208116336507302
0.78	-4.00967040879679	-0.728467628699146	871.252329662492	6.36709401319288	37.5583070359612	1.15301158078354	-1.15110531724178	-0.00158600933092101	-0.000228199220268233
0.79	-3.57939225867207	-0.346346443735702	871.333924413328	6.01408703922585	37.1153301126415	1.10947359034186	-1.11939424497879	-0.00199373644093104	-0.000735209342154819
0.8	-3.12608176022761	0.109922801068161	871.523026156735	5.66591856060956	36.6256500859451	1.06089318775278	-1.08558449106324	-0.00239679207972798	-0.00130149557625792
0.81	-2.648956300256	0.61064178766463	871.648921547425	5.3464255725035	36.0961904210453	1.01129467844549	-1.0524471313485	-0.00276663277139466	-0.00191100342412825
0.82	-2.14622308526643	1.1278218331391	871.548326996768	5.06972643872635	35.5363134897452	0.964055254935408	-1.02214818032399	-0.00308612335131508	-0.00254544153148534
0.83	-1.61526889992486	1.6388943232332	871.094769500498	4.83894896567521	34.9571816890877	0.921355519662679	-0.9958597281238	-0.00335118254968314	-0.00318642246927786
0.84	-1.05453636652607	2.12840181084583	870.214424773314	4.6484989650518	34.3713173666711	0.883945252439722	-0.973621370778463	-0.00356816561444673	-0.00381665445573576
0.85	-0.466884600228305	2.58710981388096	868.886095264223	4.48932989549112	33.7924959198968	0.851349177753313	-0.954551267620636	-0.00374760907722749	-0.00441992841712413
0.86	0.136485093247737	3.00882651940519	867.128863676596	4.35559283461451	33.2358994461168	0.822503631697525	-0.937399977672733	-0.00389628201243875	-0.00498017863878331
0.87	0.732954311207371	3.38606953611677	864.985334648625	4.2504082871949	32.7182737226362	0.796654968293425	-0.921309900786891	-0.00401027356464412	-0.00548032753088029
0.88	1.287751441842	3.70623929140247	862.509516005354	4.18858626805503	32.2577439186459	0.77422531000972	-0.906538019550699	-0.00407175444540608	-0.00590178343120734
0.89	1.75659613647241	3.94991003255359	859.76569604485	4.1949832395083	31.8730005459005	0.757317905756732	-0.894868286835286	-0.00405100988991491	-0.00622526272141727
0.9	2.09186033948124	4.09220069132737	856.83905545179	4.29860179273595	31.5817653826403	0.749620233167312	-0.889508303321847	-0.00391362048437371	-0.00643309953303867
0.91	2.25124102595039	4.10714343242046	853.852413891167	4.52405578923464	31.3987305097793	0.755649919281261	-0.894421119728066	-0.00363081945529353	-0.00651256005424461
0.92	2.20691947671644	3.97389910218275	850.979167758777	4.88309170898828	31.333430305791	0.779515595721462	-0.913237733581905	-0.0031897502255146	-0.00645914300955408
0.93	1.95267249496466	3.68297189147695	848.44224270406	5.36903777964363	31.3886426052336	0.823549660864718	-0.948058758560531	-0.00260012420904399	-0.00627865844188114
0.94	1.50668245598158	3.24050977819963	846.493278186927	5.95620765402102	31.5598436876806	0.887241125540667	-0.998520604313325	-0.00189480860117131	-0.00598715204627798
0.95	0.908890367294839	2.66935743443885	845.373802793274	6.60466735089567	31.8359628204547	0.966823309105277	-1.06144118913431	-0.00112385180690588	-0.0056084161173065
0.96	0.213350984967899	2.00651985939462	845.26786057601	7.2689593250513	32.201285536186	1.05567680702362	-1.13118955696734	-0.000343676276931437	-0.00516965873827258
0.97	-0.522369756767114	1.29772030511832	846.260149361339	7.90804838388782	32.6379880271467	1.14546240739273	-1.20070257187476	0.000395201511920185	-0.00469656551134473
0.98	-1.24776612196672	0.590441012799832	848.31314288851	8.49341570657882	33.1285901188176	1.22768818082938	-1.26287887693309	0.00105814773717317	-0.00420921547666858
0.99	-1.92701458186446	-0.0729637449712282	851.270939226795	9.01298798010326	33.6576655389583	1.29530777111047	-1.31198057315485	0.00163124177572926	-0.00372001362040064
1	-2.54180619225421	-0.660754632093169	854.888907248254	9.47011564606092	34.2124215975615	1.34396636767134	-1.34469211338442	0.00211999480843594	-0.00323409967828842
1.01	-3.08921329637557	-1.15508588771259	858.879976729099	9.87848838341511	34.7821490426829	1.37263230554789	-1.36060339621283	0.00254305127946952	-0.00275186407669659
1.02	-3.57601549780206	-1.55280633524562	862.96373833012	10.2550689237273	35.3569059636243	1.38352173120692	-1.36204888449279	0.00292343805497397	-0.00227255436816598
1.03	-4.0118540116245	-1.86392261903279	866.904925847558	10.6134610970321	35.9260179095352	1.38138638731835	-1.35339138180505	0.00328033885868884	-0.0017977030370453
1.04	-4.40358168507302	-2.10812628733578	870.532795929202	10.9596035836267	36.476990301159	1.37235562077075	-1.33995037896882	0.00362372332378924	-0.00133329940330645
1.05	-4.75233911738713	-2.30997006976281	873.740172699073	11.2906189639176	36.9952502896054	1.36259245801907	-1.32682781879052	0.00395284695166864	-0.000890153095035984
1.06	-5.05363945877983	-2.49345132498248	876.467638577152	11.5965125590837	37.4648348150303	1.35704265398354	-1.31788293647202	0.00425823499220768	-0.000482542631236649
1.07	-5.29961315339562	-2.6769173766707	878.682228799131	11.8636076047302	37.8698250284426	1.35852828659558	-1.31506167292736	0.00452576740423227	-0.000125782263867502
1.08	-5.48195673132378	-2.86926429908271	880.360055362274	12.0783208229749	38.1961000309194	1.3673638024212	-1.3182031205538	0.00474114165093731	0.000166394760161004
1.09	-5.5941938172749	-3.06824921521128	881.47905276729	12.2300959958147	38.4329162878346	1.3815563580719	-1.32533579182928	0.00489326921675715	0.000383808335568947
1.1	-5.63246191664259	-3.26132483156073	882.023077063979	12.3128344754531	38.57392458442	1.39751205166389	-1.33335935313553	0.0049758241709783	0.00052067722435728
1.11	-5.59486930559654	-3.42879755616373	881.993844577899	12.324752990936	38.6174608390006	1.41104065376963	-1.33891237404446	0.00498690674724411	0.000575328258308139
1.12	-5.48016355544921	-3.54848443530665	881.42428585661	12.2670675141683	38.5661936020576	1.41837650050783	-1.33918517372689	0.00492736480860667	0.000549169175552644
1.13	-5.28674966176865	-3.60062260738532	880.386626175334	12.1421471376058	38.4263800058827	1.41694311746128	-1.33246760545472	0.00479860226924322	0.00044552190429914
1.14	-5.01290014020484	-3.57173620582684	878.990719073105	11.9517982271717	38.2070146987229	1.40568508643438	-1.31831775414998	0.00460069054975709	0.000268837549399603
1.15	-4.65841272135034	-3.45652089778695	877.371852553025	11.6961862638523	37.9190610816009	1.38493938972059	-1.29736555200209	0.00433136975027093	2.45244246821485e-05
1.16	-4.22723915385236	-3.25744134637482	875.670988693752	11.37366536345	37.574799546762	1.35596451164854	-1.27087763672748	0.00398619890398721	-0.000280736169859519
1.17	-3.73002980822817	-2.98242689950001	874.012862154898	10.9815376410378	37.1872052820662	1.32033536992369	-1.24026538075952	0.00355979472164314	-0.000638566083249192
