Time [s]	GRFml [N]	GRFap [N]	GRFv [N]	Mml [N.m]	Map [N.m]	Mv [N.m]	Mfree [N.m]	COPml [m]	COPap [m]
0.01	-1.20453194585989	2.81169314450035	871.342896103915	3.08677214288559	19.6815497534367	0.766994215462467	-0.834802330557922	-0.0148653499720502	0.00109753292132292
0.02	-0.989254953156968	3.07184364058271	872.169908744542	3.0842324250251	19.4842438191434	0.738960842839446	-0.810949636283251	-0.0148630937884285	0.00084784953852779
0.03	-0.78356044592075	3.29817056813978	872.811838220743	3.09343606144206	19.2895274652321	0.716306017834688	-0.79179355262545	-0.0148465263657502	0.000605545729698231
0.04	-0.594866539436302	3.46154187668159	873.114070887599	3.12290087610439	19.100348370791	0.703461799656509	-0.781178845208357	-0.014805165334193	0.000377685892144597
0.05	-0.427319701586507	3.54220419817189	872.979042295606	3.17923599510668	18.9178075864339	0.703028467123348	-0.781302731891358	-0.0147309344721654	0.000167834210780204
0.06	-0.281244205881008	3.53272239308755	872.384202953934	3.26675198874081	18.7407700119778	0.715369543033611	-0.792368232355919	-0.0146186982978276	-2.482240346241e-05
0.07	-0.153717660409583	3.43894086472248	871.386622331554	3.38719748109981	18.5663108753385	0.738678569464741	-0.812673188893631	-0.0144666100460006	-0.000205064324373672
0.08	-0.0401420100536419	3.27868584917175	870.111594538844	3.53965888068864	18.3908686793901	0.769469438016191	-0.839081104368982	-0.0142762077203844	-0.000380030361572081
0.09	0.0636484210381758	3.07834974961411	868.726183766284	3.72069053265516	18.2117179931839	0.803347724127261	-0.86773249086211	-0.0140521703182476	-0.000556880853960606
0.1	0.159393966724678	2.86794867099087	867.402889891397	3.92475745841702	18.0282557381924	0.835875763699918	-0.894818474121808	-0.0138016511778486	-0.000740442889913651
0.11	0.245184155324939	2.67560058510896	866.281999857116	4.14504187608204	17.8426554748047	0.863354184816931	-0.917255051552695	-0.0135331642228869	-0.000931557602704081
0.12	0.315457250978319	2.52253416706938	865.442336935286	4.3745709367326	17.6596558623325	0.88339090288204	-0.933148593351458	-0.0132551218885679	-0.00112663102495153
0.13	0.362335857391515	2.41965248693973	864.888356447105	4.607484417865	17.4855325863503	0.895189300601822	-0.942003932557318	-0.0129742832762663	-0.00131851924895909
0.14	0.377994678480238	2.36634570585785	864.557192153321	4.84013365308131	17.3265624828483	0.899540160261523	-0.944675167208632	-0.0126945010939385	-0.00149847407125908
0.15	0.357389053454464	2.3517395922	864.343592496072	5.07165950553553	17.1874436803416	0.898541272941457	-0.943091067457584	-0.0124161765747207	-0.00165856093000011
0.16	0.300480468470297	2.35800191781939	864.135486459754	5.30378887207857	17.0701412159209	0.895101017716681	-0.93980963822804	-0.0121366929798159	-0.00179383192860522
0.17	0.213174865195596	2.36485430116416	863.849882978813	5.53981140919801	16.9734849637635	0.892314751311629	-0.93747915395688	-0.0118518168250664	-0.00190363189468379
0.18	0.106558225705092	2.35418794793754	863.458932213425	5.78298105621617	16.893602980447	0.892832502340541	-0.938305141305863	-0.0115577210346897	-0.00199170305376517
0.19	-0.00542093220131352	2.31373342368902	862.999181689314	6.03481960892948	16.8250086149143	0.898348572699236	-0.943631735842988	-0.0112530269403576	-0.00206513824765592
0.2	-0.109099172057307	2.23906799542651	862.56221338583	6.29387831216285	16.7619623404864	0.909321854391513	-0.953726245328342	-0.0109401982625941	-0.00213258358902307
0.21	-0.193994106095573	2.13374437165381	862.270195815987	6.5553909360199	16.6996657951688	0.92497624004337	-0.967803412986833	-0.0106257950158953	-0.00220229011164197
0.22	-0.254392073907795	2.00782127924887	862.243713924523	6.81196374318895	16.6349363476007	0.943550426267647	-0.984255885618736	-0.0103194562515379	-0.00228059660292773
0.23	-0.289017152783152	1.87540972295723	862.570496827454	7.05510224380076	16.5662217995887	0.962698024653378	-1.00099939342432	-0.0100318943462785	-0.00237120757053594
0.24	-0.29890858069895	1.75193279043278	863.282294805813	7.27710764149381	16.4930700819573	0.979912994788053	-1.0158232472359	-0.00977249055245921	-0.00247529941156943
0.25	-0.284395088325441	1.6516472809427	864.344031783802	7.47279097845028	16.4153753330872	0.992882875862422	-1.02666788996942	-0.00954716600398864	-0.00259217275164259
0.26	-0.242528333588221	1.585694991774	865.655832819621	7.64057319425132	16.3328027934376	0.999736204881122	-1.03181373725769	-0.00935704571659712	-0.00271999077481422
0.27	-0.166294414964667	1.56068175513986	867.065836448736	7.78279595376065	16.2447170277937	0.999214472623554	-1.03002362946877	-0.00919812248154028	-0.00285617036078639
0.28	-0.0463244139894552	1.57764461474662	868.3904751062	7.90533495794243	16.1507249740092	0.990827004425705	-1.02070079955197	-0.00906181245326765	-0.00299721242623152
0.29	0.125137688279503	1.63131472181058	869.438984964316	8.01676498288003	16.0516732644969	0.975023780453692	-1.00409251960844	-0.00893611070162992	-0.003138078605605
0.3	0.349220985033321	1.70977729036823	870.039556953954	8.1273222945668	15.9507115285192	0.953360429885546	-0.981503084050514	-0.00880705655891301	-0.00327150637454088
0.31	0.616169057384908	1.79485159037193	870.064929076225	8.24778607047934	15.853942767267	0.928567870279328	-0.955416388196449	-0.00866035177648194	-0.00338777593549633
0.32	0.903591388626438	1.86360980096544	869.454899300027	8.38826346060007	15.7702734051631	0.904416043957297	-0.929407498236958	-0.00848311330025275	-0.00347533508685449
0.33	1.17827346874595	1.89130463409318	868.23240738973	8.55682336916463	15.7103253964198	0.885298878878008	-0.907764396115618	-0.00826576455028261	-0.00352238263604332
0.34	1.40145936722071	1.85556582452621	866.509236773595	8.75802837846602	15.6845937462803	0.87555789803505	-0.8948350737	-0.008003932023808	-0.00351912281458022
0.35	1.53635462108916	1.74117332670914	864.477901914588	8.99161291759895	15.7013070854897	0.878669376214215	-0.894224278398491	-0.00769998747060663	-0.00346008914219009
0.36	1.55581774169176	1.54424364940478	862.388410376998	9.25172605340484	15.7645742707798	0.896497812563963	-0.9080416606782	-0.00736370874881453	-0.00334582799969629
0.37	1.44809513046921	1.27451464295024	860.512078039391	9.52717031894187	15.8733306650765	0.928830140934854	-0.936413706662266	-0.00701157047226797	-0.00318338072477625
0.38	1.21904451287077	0.95472717200706	859.098421661612	9.80286342876696	16.0213616540102	0.97334065754987	-0.977407804036667	-0.00666447420309413	-0.00298535700181218
0.39	0.890372278470288	0.616845695867244	858.333934397648	10.0623761131006	16.1983652427584	1.02601684742172	-1.02740010404621	-0.00634421001087226	-0.00276782119904101
0.4	0.494600462671081	0.295812712138376	858.312027588056	10.2909987085506	16.3917292260345	1.08194291424818	-1.08179088731516	-0.00606942265404387	-0.00254756319800498
0.41	0.0683776726280139	0.0223608261671166	859.021111656859	10.4785339120354	16.5885303115721	1.13623637698793	-1.13587536235565	-0.00585212723382844	-0.00233948000830808
0.42	-0.353924853663422	-0.183204166575208	860.353240923701	10.6210267643492	16.7772534130763	1.18489623447017	-1.18564407916162	-0.0056957431207173	-0.0021547152402388
0.43	-0.744703370609314	-0.314552167396596	862.130386378272	10.7209428281653	16.9488655822355	1.22535886377194	-1.22832326219169	-0.00559519016054066	-0.00199993372017482
0.44	-1.08486750868722	-0.379281844538644	864.140985066557	10.785792037665	17.0971052122861	1.25665566967154	-1.26255669079308	-0.00553895870242183	-0.00187774910550764
0.45	-1.36298863103542	-0.395416712680731	866.177354474519	10.8256914305235	17.2180875819671	1.27919123377935	-1.28824568479765	-0.00551245271422351	-0.00178799222797404
0.46	-1.57280876827618	-0.385587133468967	868.065391162016	10.8506807795878	17.309510410504	1.29427051995733	-1.30616355920335	-0.00550153704228051	-0.00172930490013545
0.47	-1.71045301287884	-0.370654617082107	869.681202040381	10.8686329826191	17.3698193090011	1.30356199573837	-1.31751221661685	-0.00549522781555567	-0.00170051709071756
0.48	-1.77255590047613	-0.364578943992398	870.953674094009	10.8843298861726	17.3976500973385	1.3086723544914	-1.32357553788357	-0.00548683906773573	-0.00170140476608566
0.49	-1.75596465873509	-0.371826970654767	871.855954399822	10.8998117570157	17.3917274153498	1.31093621152032	-1.32555573996955	-0.00547349209248138	-0.0017326710756263
0.5	-1.65896255129621	-0.387774633472707	872.391189599488	10.9156345538149	17.3512186656543	1.31142277121314	-1.32458579048224	-0.00545448049681874	-0.00179525813953407
0.51	-1.48334484525263	-0.401652654815264	872.578176366947	10.9323653786944	17.2763796970502	1.3110736087109	-1.32183349799239	-0.00542934437954556	-0.00188929756721828
0.52	-1.23638569815069	-0.400911680273166	872.441101247833	10.9516256370201	17.1692329289205	1.31084613952115	-1.31858286905454	-0.00539651417446607	-0.00201309221298901
0.53	-0.931820991432351	-0.375615807289399	872.005148968933	10.9762516072043	17.0340127714538	1.31175814236939	-1.31620512766919	-0.00535305198964142	-0.0021624798967636
0.54	-0.589358534907899	-0.321652060343984	871.297421810575	11.0095671374138	16.8771896214216	1.31479492399931	-1.31599887100385	-0.0052954940184009	-0.00233079183549489
0.55	-0.232740229617428	-0.242060063030288	870.351074223449	11.054170397345	16.7070107970117	1.32071848137721	-1.31895236251418	-0.00522130379212549	-0.00250943758819916
0.56	0.113167735817268	-0.146431976245913	869.210093658324	11.1108533478652	16.5326321555964	1.32987066037264	-1.32552612054712	-0.00513018677965216	-0.00268898026829034
0.57	0.425531102890932	-0.0488731821732961	867.932570576754	11.1782090838133	16.3630188861923	1.3420670188521	-1.33555086614941	-0.00502459403586974	-0.00286045249328726
0.58	0.686233602267514	0.0347227134729823	866.591166462742	11.2531697511973	16.2058431693132	1.35663558886082	-1.34828799933137	-0.00490911446879327	-0.00301662462130409
0.59	0.883608346857405	0.0893871347076946	865.270371399068	11.332295164268	16.0665941783573	1.37258784318623	-1.36263124934561	-0.00478895534046264	-0.00315296924622965
0.6	1.01307511136615	0.103355183146409	864.060779446031	11.4132859554178	15.9480545775396	1.38885133268467	-1.37737185234766	-0.00466811954754176	-0.0032681493454722
0.61	1.07685820499062	0.0697917565407575	863.05096608661	11.496077615593	15.8502113579227	1.40447230873947	-1.39143127666432	-0.00454802904139451	-0.00336396320153443
0.62	1.08312253804792	-0.0119919571488026	862.317759666038	11.5830344327942	15.7705833924588	1.41872060991764	-1.40399154205898	-0.0044271589458541	-0.00344478060326442
0.63	1.0448336041866	-0.135838608089793	861.915932152102	11.678132830585	15.7048816957281	1.43108369669204	-1.41450809953989	-0.0043018227334839	-0.0035165851946718
0.64	0.978474936589882	-0.288753135651706	861.86868290125	11.7854393379372	15.6478777700216	1.4411927071405	-1.42264529188899	-0.0041677748361868	-0.00358579182066077
0.65	0.902568933822821	-0.45195874223549	862.160680251195	11.9074702021396	15.594338795137	1.44875251221576	-1.42820284222737	-0.00402197959787864	-0.00365803595723124
0.66	0.835872730561644	-0.603283663264838	862.735633574622	12.0440513233752	15.5398913298345	1.4535372369231	-1.43109237278535	-0.00386386518720561	-0.0037371347657712
0.67	0.795222423763822	-0.720842520049458	863.500110218397	12.1920745121912	15.4816942565754	1.4554706203829	-1.43138418650618	-0.00369563765080438	-0.00382439329784179
0.68	0.793235816581961	-0.787482491146911	864.334401053025	12.3461742470164	15.4188343514807	1.4547596286692	-1.42939833692949	-0.00352164780048281	-0.00391837344848417
0.69	0.836330505933887	-0.794999525725206	865.109724568196	12.4999919131374	15.3524004434593	1.45201450358366	-1.4257831810972	-0.00334719221587132	-0.00401516256866491
0.7	0.923623652999652	-0.746914246395764	865.709279380151	12.6475001735726	15.2852393947506	1.44828364308723	-1.42152199583709	-0.00317732277139871	-0.00410908662169862
0.71	1.04715930734971	-0.658768264826268	866.049153791313	12.7838981862861	15.2214436855153	1.44495727686977	-1.41783258997947	-0.00301616585189246	-0.00419372754855513
0.72	1.19357106413366	-0.555453492969979	866.094441808857	12.9058248432636	15.165661846378	1.44353769938201	-1.41596394631868	-0.00286696302705991	-0.00426304327891747
0.73	1.34685123735195	-0.46587519474742	865.866455512699	13.0109566985138	15.1223550661384	1.44531893339838	-1.4169317048441	-0.0027326807546495	-0.00431236399423895
0.74	1.49153847366054	-0.416044750072387	865.438661123077	13.0973185205289	15.0951395434359	1.45105057026735	-1.421257703154	-0.0026167624390574	-0.00433905675929741
0.75	1.61550620323479	-0.422259136362892	864.921518680425	13.1627320435488	15.0863453939313	1.46067101838232	-1.42878165979626	-0.00252352765538255	-0.00434271437337108
0.76	1.71169099154966	-0.486165499925185	864.439123989742	13.2047339174371	15.0968812378916	1.47318331214265	-1.43859658384884	-0.00245788174150263	-0.00432482826489261
0.77	1.77847494207353	-0.593153198826565	864.102706019853	13.2210602365353	15.1264199732976	1.48671633437782	-1.44913019821692	-0.00242430885442546	-0.00428803298967112
0.78	1.8188690271515	-0.714722593918516	863.987008838686	13.210528193805	15.1738319884462	1.49877365224545	-1.45836164776813	-0.00242544882433471	-0.00423513038596024
0.79	1.83895763199124	-0.814446107065355	864.115053947746	13.1739565020404	15.2377173651829	1.50663057498864	-1.46413457244188	-0.00246076806878071	-0.00416817414141102
0.8	1.84614980920192	-0.856151297271311	864.454799560151	13.1147272933476	15.3168608468801	1.50780648242254	-1.46450983183776	-0.00252584562140679	-0.00408788560101092
0.81	1.84764777612656	-0.812314562545517	864.92826289025	13.0387115918115	15.410469852515	1.5005206034915	-1.4580952326313	-0.00261260629995996	-0.00399356959525954
0.82	1.84930096011584	-0.6705625517204	865.430538095802	12.9535045617238	15.5181463044654	1.48403848486189	-1.44429365324564	-0.00271052027680352	-0.0038835328637789
0.83	1.85481532309458	-0.436673825244325	865.853714535593	12.8671549403441	15.6396505605096	1.45883336449834	-1.42342218650544	-0.00280847185163047	-0.00375583715136818
0.84	1.86523612768268	-0.133406892562804	866.109688967656	12.7867354055555	15.7745930754462	1.42651932626398	-1.39667220757876	-0.00289679575126456	-0.00360911187610152
0.85	1.87871610793843	0.204432671559142	866.146555162027	12.7171339565408	15.9222030941763	1.38955778207619	-1.36590488448356	-0.00296895246066209	-0.00344315057335698
0.86	1.8907166342289	0.537355848750853	865.955380412499	12.6603539504182	16.0812720209375	1.35078982310344	-1.33330989699337	-0.00302245631920672	-0.00325911710926602
0.87	1.89482571753989	0.829155265465787	865.567006387261	12.6154452589039	16.2502829563767	1.31289502251363	-1.30099398454018	-0.00305890778671281	-0.00305934181411927
0.88	1.88422590824452	1.05366080680767	865.04110703512	12.5790237599724	16.4276630160006	1.2779088895612	-1.27059981228963	-0.00308321508466536	-0.0028468235400595
0.89	1.8535391781535	1.19894189627186	864.451319913128	12.546225874183	16.6120664539934	1.24693148352282	-1.2430679567044	-0.00310224442555274	-0.00262461633037603
0.9	1.80046520399757	1.26833593100786	863.870498690104	12.5119030128235	16.8026200091673	1.22011909095916	-1.21863053302393	-0.00312319077031398	-0.00239525640167026
0.91	1.72650872765704	1.2784281835144	863.359189662434	12.4718649675339	16.9991127741099	1.19697291078499	-1.1970610097866	-0.00315194157991183	-0.00216030854765153
0.92	1.63628912287825	1.25468678407388	862.95885981767	12.423997570725	17.2021528148377	1.17684390707145	-1.17811672861168	-0.00319166223692624	-0.00192003576108085
0.93	1.53541793984678	1.2257751597398	862.689838556141	12.3690899668537	17.4133124307193	1.15949417216097	-1.16203035974109	-0.00324179517693624	-0.00167316762585334
0.94	1.42753553572543	1.21763494124394	862.552860106235	12.3112175778496	17.6352400749579	1.1455244615085	-1.14986914092162	-0.00329763479085576	-0.00141677442262944
0.95	1.31155269194424	1.24833117259869	862.532704939081	12.2575603073949	17.8716546498386	1.13651134983616	-1.14360771188725	-0.00335059459601872	-0.00114631948802002
0.96	1.18022898237619	1.32446240527507	862.60266132704	12.2176085497599	18.1270983688853	1.13478706416698	-1.14584737344191	-0.00338920152640065	-0.000856013185253746
0.97	1.0208691471628	1.43970747577373	862.729108479467	12.201818980446	18.4063444187491	1.14290930667106	-1.159231798572	-0.0034007342563982	-0.000539580538382989
0.98	0.818247349584333	1.57580770548421	862.876133538142	12.2199033186081	18.7134476036245	1.16296663661492	-1.18571363267299	-0.00337329151588128	-0.000191460145600342
0.99	0.559119923645239	1.70594468329544	863.010436393793	12.2790311781069	19.0505673632161	1.19591409580656	-1.22588037198493	-0.00329796800868531	0.000191706205305842
1	0.237122357857662	1.80006429697192	863.106675059788	12.3822729065954	19.4168302309713	1.24112083402677	-1.27853425175196	-0.00317076131911143	0.000609599121126458
1.01	-0.143355293411803	1.83126074623978	863.152895855263	12.5275870611387	19.8075702988213	1.29624678744231	-1.34064814262545	-0.00299384849019291	0.00105716768067626
1.02	-0.565514359329371	1.78196831732348	863.155036710965	12.7075761342169	20.2142469941578	1.35747537145404	-1.40771578737542	-0.00277595304873413	0.00152437647579362
1.03	-1.00138012338031	1.64854523276748	863.139072931084	12.9101115817828	20.6251855570181	1.42004363070823	-1.47441472174426	-0.00253165788054677	0.00199696987792508
1.04	-1.41587582638016	1.44299342106264	863.149512310056	13.1197852530866	21.0270594155706	1.47895233006737	-1.53543167822415	-0.00227968909430054	0.00245820563611615
1.05	-1.77297928070939	1.1910949171279	863.243714340168	13.3199957495532	21.4068087185374	1.5297144598718	-1.58627622588355	-0.00204038296374809	0.00289122765186628
1.06	-2.04264373563191	0.92709920713711	863.482672841603	13.4953414318415	21.7535418528797	1.56900766855418	-1.62392655671005	-0.00183272911849597	0.00328154122121066
1.07	-2.20688285508345	0.686072038344419	863.920023682297	13.6338899557532	22.0599477796545	1.59512380727192	-1.64719880235364	-0.00167152340081533	0.00361899442248509
1.08	-2.26349273729322	0.495820361538647	864.591679635076	13.7288600325611	22.3228656529902	1.60814648637339	-1.65679134282566	-0.00156521691134526	0.00389878103044439
1.09	-2.2263264547608	0.370634082108119	865.508404304163	13.7793182025304	22.5428812632947	1.60982853889467	-1.65501364152653	-0.00151496947389751	0.0041212344741724
1.1	-2.12178606276212	0.308737127547945	866.652844351428	13.7896778659223	22.7230840672335	1.60318329170323	-1.64525632431853	-0.0015151870364174	0.00429050767779926
1.11	-1.98211104829485	0.294337270410691	867.981306188027	13.768069170022	22.8673499987108	1.59184670757191	-1.63129315937922	-0.00155547125458289	0.00441253904278693
1.12	-1.83691648734721	0.303774916632013	869.429267682838	13.7239625459065	22.9786502445794	1.57931083321423	-1.61652839123788	-0.00162351687544626	0.0044929060398099
1.13	-1.70504239111884	0.313943769119258	870.918628866878	13.665680880852	23.0578884088862	1.56816720777646	-1.60331682898953	-0.00170817630211473	0.00453521026951503
1.14	-1.58892434976525	0.310359048620844	872.364314686847	13.598530265783	23.1036375809515	1.55952093553523	-1.59248727093301	-0.00180178842041845	0.00454050916497634
1.15	-1.47328042969208	0.29228483638921	873.678211377372	13.5241580241436	23.1129178990452	1.55272780698995	-1.58318464922677	-0.00190101398318099	0.00450803924459436
1.16	-1.32895783154637	0.273212522585265	874.769554074245	13.4414147712923	23.082879625327	1.54555718687844	-1.5731029781555	-0.00200582812448824	0.00443712443785982
1.17	-1.12147005931606	0.276419601734188	875.542586627458	13.3485323178527	23.0129996097142	1.53479259927041	-1.55910577448478	-0.0021168984939598	0.00432980787794968
1.18	-0.82238625103958	0.32685755606029	875.894129021176	13.2459653417087	22.9072193770234	1.51716657149235	-1.53813238405529	-0.00223215989811076	0.00419346956354422
