Time [s]	GRFml [N]	GRFap [N]	GRFv [N]	Mml [N.m]	Map [N.m]	Mv [N.m]	Mfree [N.m]	COPml [m]	COPap [m]
0.01	-1.2822173786178	-0.960563389341134	682.722497068821	23.0148784511591	7.74327784596788	0.636714796265755	-0.669230278157191	0.00954706735738609	0.00978217131823572
0.02	-1.1097947284904	-0.799066520052152	682.351844132163	22.9769945194653	7.41881538272851	0.699277923531573	-0.727961953525455	0.00951217090560275	0.00931281991150013
0.03	-0.951117266517388	-0.638248299356468	681.97152747211	22.9294330723853	7.08972412345987	0.757213751182342	-0.782460017878358	0.009463630496367	0.00883661048397133
0.04	-0.818451199882102	-0.48027745747825	681.578350372997	22.8661364569959	6.75577326706831	0.806910786956399	-0.829450244208288	0.00939277719162779	0.00835312348235745
0.05	-0.714363313705893	-0.330604379217049	681.173372697804	22.785747998358	6.4146370619529	0.847111270898416	-0.867689693109408	0.00929758861200158	0.00785881082143608
0.06	-0.630044411273252	-0.197933019201213	680.761878746234	22.6916934798713	6.06104784949035	0.879199103034272	-0.898206693821679	0.00918280625556112	0.00734575711694285
0.07	-0.547150466102926	-0.0926728035405831	680.352115213663	22.5907196632557	5.68732781525443	0.90665441393302	-0.923828584782756	0.00905786371961004	0.00680248756321372
0.08	-0.442497680916051	-0.0243332432743221	679.953093828861	22.4905443790656	5.28517395173218	0.933879933066161	-0.94817649909492	0.00893356719529759	0.00621662780430754
0.09	-0.294116636355675	0.00132527114182846	679.571979684355	22.3975038241031	4.84812911104636	0.964800009030698	-0.974473585332814	0.00881879427037158	0.00557856934789497
0.1	-0.0868526634360735	-0.0154963312576012	679.211717380548	22.3149408654622	4.37392748747336	1.00167849008299	-1.00454879495775	0.00871826214404847	0.00488493637830023
0.11	0.184033408322702	-0.0677312665791105	678.86956174495	22.2426915193562	3.86594663373181	1.04449264946591	-1.03832073909719	0.0086318509381812	0.00414071926484283
0.12	0.512085171702844	-0.142127247949024	678.53703977142	22.1775971231231	3.33330097515109	1.09099150773424	-1.07386449551932	0.0085553488143143	0.00335939215339581
0.13	0.881601184183446	-0.221353245433619	678.201572972203	22.1146691722548	2.78954968333855	1.13734324599198	-1.10797340215714	0.00848206411326491	0.00256098230620977
0.14	1.27144293464787	-0.287027187676928	677.849592774372	22.0484388501253	2.25040394735727	1.17911702113291	-1.13699554927706	0.00840463342240527	0.00176866876148907
0.15	1.65941629618363	-0.322978093202977	677.470587143513	21.9741072366227	1.73107102751574	1.21229307609377	-1.15768616688357	0.00831649802154677	0.00100485877935502
0.16	2.02599703940187	-0.318052376747626	677.061230939489	21.888285540616	1.24390265467935	1.23404816288273	-1.16786630720287	0.00821278768203582	0.000287730763728511
0.17	2.35661136674172	-0.267911334728642	676.628654100177	21.7892833273633	0.796845486364206	1.24317971060509	-1.16677738139656	0.00809059891890895	-0.000371024040937251
0.18	2.64230235381418	-0.175491641850691	676.192018656702	21.6770120457335	0.392907818699722	1.24015664588368	-1.15512273766882	0.007948804362226	-0.000966952441442959
0.19	2.87916840404304	-0.0500654643065318	675.781876406703	21.5526179308295	0.0305690568336907	1.2268739404321	-1.13485689582664	0.00778757918310113	-0.00150220188193456
0.2	3.06726223804612	0.0948947052977731	675.437183682045	21.4179710826232	-0.295144001093176	1.20622557147223	-1.10881043299246	0.00760782657976655	-0.00198391282705074
0.21	3.2096183981503	0.244602285735059	675.200261996515	21.275143279227	-0.59126628836343	1.18160633435143	-1.08023566988179	0.00741067245224192	-0.00242216896664749
0.22	3.31179122395358	0.385979920081525	675.110341748938	21.1260080469803	-0.865504119126661	1.15642886828324	-1.05234497433379	0.00719718644550815	-0.00282797371483468
0.23	3.38188038884782	0.510151275136125	675.196584979522	20.9720717140679	-1.12505951225863	1.13371688156982	-1.02790296447879	0.00696844256698792	-0.00321156658038946
0.24	3.43067029256134	0.613829942915989	675.471658903763	20.8145737427422	-1.37577563956175	1.11581547311304	-1.00892670404874	0.00672592710797171	-0.00358122818438267
0.25	3.47135204362409	0.699287137847121	675.92702175808	20.6547871843365	-1.62163346707622	1.10424124585908	-0.996535926738088	0.00647214595032153	-0.00394260529586732
0.26	3.51839706673266	0.772942289977991	676.531038721304	20.4943501066736	-1.86459164311081	1.09967333693708	-0.990970900589961	0.00621114336879114	-0.00429852881527759
0.27	3.58548183345737	0.842995736319658	677.230780873586	20.335424244653	-2.10474461155442	1.10206147555934	-0.991759586528365	0.0059486077599914	-0.00464927347760885
0.28	3.68280856833438	0.916790155319922	677.957802104619	20.1805408815765	-2.34075423783942	1.11080515937503	-0.997978599510835	0.00569135719038238	-0.00499318391898051
0.29	3.81455417505642	0.998649696937159	678.637359316263	20.0321370900546	-2.57047633178401	1.12494776076971	-1.00852875209235	0.00544624054292908	-0.0053275500117993
0.3	3.97733536508679	1.08877437172821	679.199608221765	19.8919419794794	-2.79166323260365	1.1433360042466	-1.02234667623683	0.00521875514138481	-0.00564956483702045
0.31	4.16039903573205	1.1834217540701	679.590565452353	19.7604647131957	-3.00259833278867	1.1647169063597	-1.03850075456132	0.00501184353024597	-0.00595716981010069
0.32	4.34775721371341	1.27621406544333	679.780396305477	19.6368165982949	-3.20252818800794	1.18777272172224	-1.05616338371946	0.00482530909986101	-0.00624961004251651
0.33	4.52184393048315	1.36010303598962	679.767058382449	19.518975781829	-3.39180841712644	1.21111917729851	-1.07449681643499	0.00465608597200384	-0.0065275956410849
0.34	4.66771696825542	1.42939685593863	679.574448166646	19.4044305541031	-3.57175758733329	1.23330524139483	-1.09252076719696	0.00449929736554189	-0.00679307192482237
0.35	4.77658471868316	1.48131344100499	679.245638040962	19.2909905578194	-3.74429182717137	1.25285107975082	-1.10903673511709	0.00434976155836242	-0.007048706308664
0.36	4.84761901841513	1.51671363617387	678.833077728156	19.1774934309075	-3.91146344446886	1.26834693422167	-1.12266527902062	0.00420346193531873	-0.00729726343839232
0.37	4.88756514569164	1.53990031209241	678.388325105727	19.064177881551	-4.07503113820699	1.27861424426315	-1.13201462554693	0.00405853512657628	-0.0075410396363853
0.38	4.90837768799923	1.55757497664785	677.95374184433	18.9526198947964	-4.23614712614806	1.28290646715318	-1.135953082683	0.00391552379120153	-0.0077814641412346
0.39	4.92372450198937	1.57719366943621	677.55771923517	18.8452830034078	-4.39517589985201	1.281105360666	-1.13391651271187	0.00377690537403896	-0.00801887461799483
0.4	4.94548185648348	1.60506400341875	677.213738481928	18.7448547382783	-4.55159134316478	1.27385392524024	-1.1261575053588	0.00364613978694384	-0.00825238166695152
0.41	4.98120210200344	1.64458869482167	676.92239813697	18.6535845039866	-4.70386628828557	1.26256552924562	-1.11384368385965	0.00352659135858058	-0.00847969699465106
0.42	5.03305785553637	1.69508377224601	676.674884197524	18.5727927891291	-4.84929193100017	1.2492652531428	-1.09894203293598	0.00342064098072603	-0.00869684057400499
0.43	5.0981778611807	1.75155372194669	676.456421139258	18.5026167788603	-4.98374080591786	1.23625589995504	-1.08387990736484	0.00332914772311155	-0.00889775752797306
0.44	5.16984718843309	1.80565518232805	676.248930498399	18.4419494323063	-5.10148574414478	1.22565224025844	-1.07103898097386	0.00325123238338054	-0.00907402049173034
0.45	5.23891910385254	1.84781234927908	676.033076158516	18.3884752364594	-5.19525958087006	1.21887960227013	-1.06219734553197	0.00318423755925334	-0.00921489674480447
0.46	5.29498381388782	1.87009897456722	675.790599965403	18.3387339567361	-5.25673935693098	1.21626819408599	-1.05806769619253	0.00312373035057012	-0.00930805367465504
0.47	5.32720791962215	1.86917111971106	675.507923621422	18.2882333079949	-5.2775419009507	1.21687496384214	-1.05807185122668	0.00306354103600937	-0.00934102961393635
0.48	5.32507356429818	1.8483552206635	675.181256989723	18.2317203538151	-5.25064126569965	1.21862171640225	-1.06044060198714	0.00299598818958124	-0.00930333492164298
0.49	5.27933067077106	1.8180839603231	674.822142764145	18.1637387584462	-5.17191639565395	1.21875745495381	-1.06264347032019	0.0029125142124673	-0.0091887499651146
0.5	5.18328707084863	1.79426377802611	674.461075486214	18.0795089894021	-5.04138513582251	1.21455525185109	-1.06205747559014	0.00280487000600849	-0.00899716289025393
0.51	5.03420735678627	1.79476712967397	674.146299705334	17.9759989440662	-4.86365017952805	1.20406963832497	-1.05670554510622	0.00266675683384698	-0.00873524546973686
0.52	4.83427174567143	1.83487485460663	673.935677024439	17.8528875238115	-4.64721503273926	1.18673979115807	-1.04585966423724	0.00249556113320037	-0.00841545991019138
0.53	4.59045546300794	1.92291484054916	673.881680857288	17.7130614927115	-4.40261355053716	1.16364634900304	-1.03032678682484	0.00229364678946586	-0.00805330905776125
0.54	4.31292364956524	2.0573790440421	674.012558706635	17.5623831111997	-4.13966810932959	1.13731636400191	-1.01231590964463	0.00206870404245652	-0.00766328995210469
0.55	4.01204700129618	2.22641915580996	674.31540010513	17.4087019035155	-3.86453880967969	1.11110086909587	-0.994903122160522	0.00183290457852736	-0.00725452553015693
0.56	3.69474753963713	2.40994676007434	674.72801434861	17.2603654312745	-3.577426581488	1.08828456929258	-0.981233792505228	0.00160098669943687	-0.00682735112395211
0.57	3.36133738218208	2.58382330459696	675.145255907601	17.1246885232944	-3.27175103193261	1.07118263519436	-0.973688090133768	0.00138774430220412	-0.00637207829258907
0.58	3.00410433548605	2.72505135812023	675.441641369417	17.0068739023802	-2.93530820353389	1.0604995537584	-0.973256307809691	0.00120558277585048	-0.00587069840489851
0.59	2.60853363456438	2.81662760305275	675.506692471409	16.9097175533873	-2.55338129378094	1.05515623682972	-0.979312427086955	0.00106276767142821	-0.00530150189367906
0.6	2.15730643565383	2.85083443186447	675.284159089771	16.8341395229637	-2.11317249825729	1.05265098041372	-0.98985295574505	0.000962753011282902	-0.00464568558938033
0.61	1.63630530927988	2.83017754220083	674.803144886061	16.7802706725204	-1.60844089692214	1.04985122533037	-1.00212161337863	0.000904632338566191	-0.00389428875610104
0.62	1.04108912151104	2.76580463250486	674.189708247881	16.7486201729777	-1.04304974105215	1.04397317763984	-1.01341841809108	0.000884431410431152	-0.00305351091614481
0.63	0.381953898779318	2.67391338718386	673.652093271023	16.7408258410393	-0.432339455027435	1.03344444912621	-1.02183673139211	0.000896760085945858	-0.00214676792295754
0.64	-0.314077400235005	2.57120738850922	673.440226723099	16.7596553308668	0.19819148114706	1.01838359013237	-1.02670305608495	0.000936311813446999	-0.00121268374708899
0.65	-1.00523606985784	2.47072591027601	673.788159519837	16.8082147546398	0.816667794174614	1.00055640920601	-1.02859988723612	0.000998829821944103	-0.00029934387251962
0.66	-1.64079532917139	2.37924829997411	674.854002559148	16.8886243601837	1.39016147130913	0.982838022097395	-1.0289932253412	0.00108138961804516	0.000543809117804828
0.67	-2.16945673305889	2.29695413264587	676.673511626245	17.000630304729	1.89022826457628	0.968363531594009	-1.02961368613144	0.0011820948335759	0.00127441428688996
0.68	-2.54842227827522	2.21924941296539	679.140171973572	17.140666542136	2.29731314828453	0.959638834601889	-1.03181116478388	0.0012994676381971	0.00186390229450017
0.69	-2.75107002846128	2.13991260642719	682.017470932655	17.3017485331853	2.60304811019016	0.957880997469478	-1.0360973907154	0.00143187961055935	0.00230096107872957
0.7	-2.77153814778554	2.05426820650334	684.980349292041	17.474316781187	2.81007511082378	0.962771306146849	-1.04201528017598	0.00157729807311124	0.00259117430000672
0.71	-2.62531590468336	1.96115416588548	687.675301828608	17.647841316758	2.92968084784145	0.972666626659578	-1.04835805605612	0.00173344800226405	0.00275326421057015
0.72	-2.34588963999597	1.86300124167852	689.784401437008	17.8127502986736	2.97804086995067	0.985172875987401	-1.05364489991802	0.00189828244076029	0.00281317414902782
0.73	-1.97834033265767	1.76415729893526	691.078578126561	17.9621394278811	2.97211831339014	0.997882565748393	-1.05668093089762	0.00207050131577236	0.00279762392783911
0.74	-1.57135387472722	1.66831696900064	691.449351993251	18.0927885191664	2.92621751871102	1.00904484835059	-1.05701076048522	0.00224982496354975	0.00272870997531122
0.75	-1.16930728157849	1.57624802271041	690.914413622817	18.205231177272	2.84990736621543	1.01797607051719	-1.05511921215878	0.00243682840369852	0.00262067799077775
0.76	-0.805947065311861	1.48481813206811	689.599041562999	18.3029152474985	2.74760791449672	1.02511316135502	-1.05232198163138	0.00263233029331311	0.00247933215815421
0.77	-0.500750524782507	1.38773276997361	687.700599220349	18.390755167498	2.61969745238706	1.03172725125102	-1.05039125770965	0.00283652287266867	0.00230385363613
0.78	-0.25845636315914	1.2776786500879	685.446136757084	18.4735273130111	2.4646499846024	1.0394131568531	-1.05104228113589	0.00304814328381053	0.00209025044467592
0.79	-0.0715820983541926	1.14903492556311	683.053112253094	18.5545565421117	2.28152220451145	1.04952326324323	-1.05544154928772	0.00326397827991387	0.00183535901893783
0.8	0.0748667172562589	1.0001597058587	680.700863721729	18.6350040539853	2.07209458383966	1.06271130326941	-1.0638787018496	0.0034788755513564	0.00154029759475932
0.81	0.197729691951097	0.834492522393584	678.516659532427	18.7138557455369	1.84211261076717	1.07870166493361	-1.07568397596393	0.00368626312577036	0.00121249909597482
0.82	0.310472793651556	0.660185936732024	676.576090341428	18.7885044990739	1.60132410153767	1.09632589050446	-1.08939618909289	0.00387902523957462	0.000865848694425353
0.83	0.419675402793418	0.488476409008146	674.914280596943	18.8556812321661	1.36230905429837	1.11379551782857	-1.1031188332671	0.00405050065464263	0.000518924442716451
0.84	0.524026454617577	0.331346913490894	673.542550964578	18.9124441523625	1.13839178565785	1.12912772451094	-1.11496176914195	0.00419537086406618	0.000191795579860599
0.85	0.615958889999096	0.199143152343464	672.464918639642	18.9569730147796	0.941156408135365	1.14061428657968	-1.12345780521963	0.00431026932228495	-9.78124469667718e-05
0.86	0.685316444491064	0.0987082275195807	671.689904876196	18.9890029294557	0.778206367625672	1.14722292741111	-1.12786096014242	0.00439403165547136	-0.000337998419805918
0.87	0.723850961504786	0.0323862827843644	671.23499648605	19.0098352372722	0.651779336236926	1.14883753420119	-1.12826571891252	0.00444758910902932	-0.00052487347709762
0.88	0.729080828204618	-0.00199207352167976	671.123215322899	19.0219564198133	0.55863950891489	1.14627539781748	-1.12552468956989	0.00447356786386854	-0.000662810558535787
0.89	0.70621159919248	-0.0102316064296375	671.373157286051	19.0283687593796	0.491350909968938	1.14106295994016	-1.12098020954396	0.00447569434685813	-0.000762592929882455
0.9	0.667404702702687	-0.000239390266756111	671.985334228135	19.0317861045529	0.440663040376683	1.13500346160749	-1.11606115601206	0.00445812576987648	-0.000837862495421282
0.91	0.628511413012184	0.0198243966590305	672.928590640343	19.0338736145667	0.398418102216436	1.12962376630618	-1.11182735900802	0.00442482758403551	-0.000900755062531233
0.92	0.604202931750955	0.0433186346404568	674.130700234933	19.0347077237717	0.360216863746963	1.12563190246937	-1.1085662071168	0.00437910243593287	-0.000957871405299016
0.93	0.60295690083544	0.0664298691764546	675.476850287016	19.0325960407717	0.327116965925546	1.12253664579174	-1.10555171338671	0.00432333594957479	-0.00100768209594021
0.94	0.623436544629885	0.0887195592510134	676.818444678273	19.0243248492604	0.305878507638234	1.11856234076498	-1.10105675769094	0.00425896783674773	-0.00104010685211886
0.95	0.653408619818855	0.112787589837564	677.992471470095	19.0058030120616	0.307650413887015	1.11093089604751	-1.09265949838799	0.00418663709569356	-0.00103844363726568
0.96	0.671630279291083	0.143162053139017	678.848857252916	18.9729666548479	0.345402078166418	1.09648720814054	-1.07780978506332	0.00410640791885697	-0.00098320469546298
0.97	0.652321401429305	0.18475008512132	679.280418115113	18.9227288711562	0.430737401008521	1.07253833272443	-1.05453843114491	0.00401797582908447	-0.000856910967752256
0.98	0.571157881635171	0.241321772167017	679.248132383838	18.8537318229547	0.570896640517543	1.03769461367757	-1.02212891329565	0.00392078691974151	-0.000648632869756638
0.99	0.411333792769088	0.314485828893746	678.794377552695	18.7667011419255	0.766713459244667	0.992474709474489	-0.981554886243034	0.00381406560825581	-0.000357110515922299
1	0.168209756083598	0.40343910794221	678.038936256833	18.6643081227514	1.01205959820836	0.939482180187598	-0.935532306001518	0.00369681173540715	8.36915694168994e-06
1.01	-0.148629571236361	0.505487331149577	677.156708629564	18.550583404237	1.2949353795955	0.883070572291482	-0.888134386242174	0.0035678637928328	0.000429599318967577
1.02	-0.516518384085362	0.617052030462682	676.341142127433	18.4300517396133	1.59994381227986	0.828555006223429	-0.844041847115569	0.00342610802469001	0.000883204084476952
1.03	-0.903937628118544	0.734717488194385	675.761886988779	18.3068296992402	1.91152635075	0.78115730034975	-0.807609505371226	0.00327084359273488	0.00134557510150191
1.04	-1.27696305693309	0.855900517420712	675.527581662119	18.1839262729521	2.2171334543283	0.744948609878036	-0.781987102855446	0.00310222198437871	0.00179772835790293
1.05	-1.6064578114156	0.978928088872854	675.663973338904	18.0629177575948	2.50950976367654	0.72205568159375	-0.768519068947341	0.00292161284611003	0.00222881255087887
1.06	-1.87423727365748	1.10258819401784	676.113720684369	17.9440614138165	2.78749599001783	0.712325058473817	-0.766569964190736	0.00273174986030411	0.00263733470269956
1.07	-2.07658569662407	1.22545240117645	676.758187858679	17.8268009087509	3.05513634052433	0.713516529963068	-0.773805240310481	0.00253658737229678	0.00302976598496224
1.08	-2.22412766907815	1.34535531874423	677.455096826596	17.710525761354	3.31933498299029	0.721958815015748	-0.786836579952998	0.00234091683699111	0.00341690164082081
1.09	-2.33802113288669	1.45932360727274	678.081083365602	17.5953893269341	3.58670658253072	0.733485205564195	-0.802051689407892	0.00214989101768293	0.00380898147522518
1.1	-2.4434715772844	1.56401848507478	678.566601045011	17.4829698516994	3.86049885065991	0.744404865818701	-0.816412814162813	0.00196862967293743	0.0042109459784116
1.11	-2.56234221895811	1.65649264036394	678.912850806355	17.3765802384082	4.1384545324862	0.752271089533084	-0.828032523557353	0.00180201779005695	0.00461918606883377
1.12	-2.70688961363582	1.73488607122357	679.18586499647	17.2810979756555	4.41222086124407	0.756276241962343	-0.836408490342957	0.00165468874306618	0.00502073123879193
1.13	-2.87629562164704	1.79868507220008	679.489866674965	17.2022949509084	4.66847846266646	0.757211985820521	-0.842297188975894	0.00153107345825987	0.00539512654902946
1.14	-3.05681530889963	1.8483585389212	679.928355483561	17.1457812118823	4.89147926958912	0.757049785350757	-0.847300527120816	0.00143535329077993	0.0057184826086199
1.15	-3.22530576412665	1.88448997985145	680.565037647842	17.1158034762714	5.0662995588853	0.758287680009999	-0.853304096574538	0.00137120419426828	0.00596857847423837
1.16	-3.3549891187515	1.90680295026725	681.39658322998	17.1142143769993	5.18194064741104	0.763252251410369	-0.861926723558027	0.00134133905294631	0.00612963392698251
1.17	-3.42180545374392	1.91359140235897	682.345364305667	17.13991468326	5.23348673991184	0.773533043050843	-0.874117856689526	0.00134698256529409	0.00619550923871059
1.18	-3.40973195417424	1.90194106619687	683.274105915332	17.1889567115174	5.22281877985059	0.789669902028087	-0.889983382722832	0.00138748182485549	0.0061705727287919
