Time [s]	GRFml [N]	GRFap [N]	GRFv [N]	Mml [N.m]	Map [N.m]	Mv [N.m]	Mfree [N.m]	COPml [m]	COPap [m]
0.01	0.129694067097785	-0.322050077673427	659.119476468363	7.47591649279778	-27.116857347837	1.12084967474518	-1.13247510080219	0.01664647818794	-0.0158920274530009
0.02	0.495654199601607	-0.527159132214924	660.940888128864	7.68274495126682	-27.4249187560045	1.15912555319997	-1.17492683813755	0.0169299753318605	-0.0162448153285788
0.03	0.829638736605037	-0.758357376561067	662.290023187598	7.86445594999003	-27.7145323782557	1.19409410977564	-1.21566270366694	0.0171839104588426	-0.016600005528404
0.04	1.09838658233885	-1.03787194185196	662.75984942415	8.00010992115542	-27.9655164912776	1.22218411003991	-1.25254068148843	0.0173838787494344	-0.0169533544773383
0.05	1.27607961930864	-1.37566804681558	662.104539373861	8.07697005861842	-28.1631429755656	1.24078991149374	-1.28375289315054	0.017514985519365	-0.0172987627304925
0.06	1.34891719425295	-1.76654583475743	660.282440342958	8.0926214617477	-28.3009565492762	1.24883558557804	-1.30820120434621	0.0175742757501816	-0.0176297590910394
0.07	1.31890190367958	-2.19048594038407	657.460505352521	8.05495283425208	-28.3825886122967	1.24717283605971	-1.32585646491859	0.0175706263343678	-0.0179418078904182
0.08	1.20558323982832	-2.61594367212324	653.980765297626	7.9799793857236	-28.4220420994263	1.23867461668653	-1.33796870068572	0.0175220606097197	-0.0182346523479293
0.09	1.04467634074763	-3.00532932458662	650.296821414934	7.88799308519797	-28.4421557525716	1.22791223295811	-1.34699955100565	0.0174510783711694	-0.0185138192338056
0.1	0.883173518710079	-3.32165828949688	646.893645590744	7.79892723662466	-28.4713336291391	1.22038281754449	-1.35620648447141	0.0173791031991007	-0.0187906507906431
0.11	0.771538623515759	-3.53523868058363	644.206090697813	7.72800031047287	-28.5390150018127	1.221373770257	-1.36890860728027	0.017321376866943	-0.0190806655038113
0.12	0.754464736676335	-3.62925239379595	642.550273451323	7.68261092139077	-28.6706482905733	1.23468098465592	-1.38757979107827	0.0172835084879233	-0.019400525148246
0.13	0.862178405531034	-3.60320050873632	642.078137898323	7.6611208821235	-28.8830580089596	1.26149389155153	-1.41300758769681	0.0172604459737393	-0.0197642709382626
0.14	1.10423249525337	-3.47347517117336	642.76033164365	7.65368213309427	-29.1810428661204	1.29977613399249	-1.44378457328573	0.0172380028657184	-0.0201796973170268
0.15	1.46717093566764	-3.27080927033321	644.397383461536	7.64477028207308	-29.5558371555991	1.34437897801539	-1.47633646634687	0.0171964253416479	-0.0206457157858746
0.16	1.91655088921145	-3.03498798385613	646.655054195658	7.61671495859399	-29.9857479385724	1.38793699913426	-1.50554558517403	0.0171150053660504	-0.0211513322363071
0.17	2.40283294813886	-2.80784056034623	649.117074942198	7.55335503899899	-30.4389032163664	1.42236665813183	-1.52584326951415	0.0169765626864236	-0.0216764812280661
0.18	2.86985709546827	-2.62597438080594	651.347200771358	7.44301640526639	-30.8776776747656	1.44059773763353	-1.53248758020762	0.0167707596113547	-0.0221945336051629
0.19	3.26418895923964	-2.51479804266366	652.952212053229	7.28026428754958	-31.2640703335405	1.43808677616527	-1.52267343519152	0.0164956075216145	-0.0226759371962726
0.2	3.54359686067031	-2.48503927185308	653.637802444273	7.06623027350595	-31.5651462807308	1.41372215508263	-1.4961681911211	0.0161570367057593	-0.0230922541244334
0.21	3.68323323726708	-2.53227708482655	653.250049272742	6.80765539844462	-31.7576484809485	1.36991044796246	-1.45530859987846	0.0157668814432226	-0.0234198520344527
0.22	3.67860683822383	-2.63919053571805	651.796515417583	6.51504511216451	-31.8310293126104	1.31186859440127	-1.40438236016073	0.0153399613158478	-0.0236426543330248
0.23	3.5450143618452	-2.77955577360501	649.443281402627	6.20045393954184	-31.7884144775367	1.24635778341152	-1.34858592542551	0.01489105349996	-0.0237535818671578
0.24	3.31367118569994	-2.92273207224506	646.48750978498	5.87539917082183	-31.6453515146657	1.18022044037201	-1.29285102812122	0.0144324457677945	-0.023754554429943
0.25	3.02529964340959	-3.03755723429718	643.309238954912	5.54926996725155	-31.4265644772256	1.11909487421821	-1.24084539374543	0.013972488850502	-0.0236551281896011
0.26	2.72235855766855	-3.09512667725741	640.310221141523	5.22840454928699	-31.1612851730799	1.06659444829204	-1.19438687739726	0.0135152266184739	-0.0234700238759883
0.27	2.44136014514699	-3.07060393156886	637.850664922789	4.91582134058814	-30.8780040870877	1.02408781346767	-1.1533919199204	0.0130608889749315	-0.0232159624990655
0.28	2.20673545230728	-2.94469065235167	636.195678800275	4.61146894782691	-30.5996224490081	0.991051725814161	-1.11634204227634	0.0126068801593283	-0.0229083658709754
0.29	2.02742238599496	-2.70543617755194	635.481478562279	4.31282985008878	-30.3399422002086	0.965830658779778	-1.08112635024125	0.0121489169155935	-0.0225585621974656
0.3	1.89678114959773	-2.35064620746978	635.707207501881	4.01575282181737	-30.1021833790363	0.946555433445929	-1.04602723844593	0.0116821188816307	-0.0221721066562144
0.31	1.79570103718326	-1.89044268804095	636.752483481115	3.71544396677138	-29.8797973636113	0.931956942027536	-1.01057731219409	0.0112020211414885	-0.0217486406583363
0.32	1.69802950252603	-1.34888097252819	638.415006803377	3.40755824307991	-29.6593333309801	0.921856862711429	-0.976038000799177	0.0107055573854588	-0.0212833779342139
0.33	1.5769276511563	-0.763306438935992	640.45829711827	3.08927966677347	-29.4246396072098	0.917211296965686	-0.945335820662715	0.010192003169353	-0.0207698924657658
0.34	1.41059251753621	-0.180532457378148	642.658038625807	2.76018927579295	-29.1613742301667	0.919705125219948	-0.922429282333742	0.00966371631609098	-0.0202035141938128
0.35	1.186047816355	0.350123575350212	644.836995411561	2.42266472537143	-28.8607567905497	0.931019129658586	-0.911240249872917	0.00912638012075628	-0.0195844425340858
0.36	0.900330784253873	0.785732008683133	646.882496374004	2.08160147799858	-28.5217400338239	0.951989958630376	-0.91442614781979	0.00858846349939157	-0.0189197505287177
0.37	0.559217690502119	1.0984251403435	648.745793981196	1.74341388106815	-28.1512494320885	0.981927591414839	-0.932347576399629	0.00805980979573884	-0.0182237760601069
0.38	0.174386812580894	1.28143226942417	650.42750696222	1.41451802570872	-27.7626905168553	1.01832771353613	-0.962565000116521	0.00754959436187597	-0.0175168873180558
0.39	-0.2396365369424	1.35060368355285	651.956358774246	1.09971790440069	-27.373380413753	1.05711580174343	-1.0000705558681	0.00706420538650521	-0.0168231013475807
0.4	-0.667449323728096	1.34077777342642	653.36869348172	0.801005905658172	-27.0017687349792	1.0934062778702	-1.0382543458112	0.00660574042639517	-0.0161673442054509
0.41	-1.09290723944555	1.29782967689475	654.693948790504	0.517187778029895	-26.6652039293629	1.12259530065641	-1.07037820439334	0.0061716753481329	-0.0155731429362102
0.42	-1.49759227830495	1.26845991773647	655.947507192016	0.244470567956221	-26.3786236603597	1.1414825048892	-1.09115827975942	0.00575587569367986	-0.0150612255972498
0.43	-1.85870989707504	1.29032273420616	657.128790011993	-0.022192220390573	-26.15406198359	1.14908251056446	-1.09800452737213	0.00535062579745238	-0.0146490052236915
0.44	-2.14806832192687	1.38481450103184	658.220644220884	-0.287482963302159	-26.0004850555386	1.14686356920946	-1.09155740342319	0.00494895387402361	-0.0143504602565283
0.45	-2.33365610222541	1.55391615457259	659.186746785535	-0.55441005319327	-25.9233661892991	1.13832213892439	-1.07537529911006	0.00454640887531055	-0.0141757200117634
0.46	-2.38445667957287	1.78129830740289	659.966504470951	-0.823753800527065	-25.9236441818363	1.12801422989591	-1.05488960658232	0.00414166292057772	-0.0141298344938877
0.47	-2.27780383255221	2.03687069239884	660.470325576335	-1.09440735689586	-25.9961743676043	1.12034188021374	-1.0359652418545	0.00373579080468556	-0.0142106970188922
0.48	-2.00732234162825	2.28336199137458	660.580364538795	-1.36439450200176	-26.1282611818778	1.1184692153483	-1.02350508879583	0.00333061866191819	-0.0144066829230718
0.49	-1.58887132643582	2.48340764251088	660.161549637214	-1.63208941187109	-26.299116687516	1.12368748109688	-1.02048563184159	0.00292690844287413	-0.0146949914344042
0.5	-1.0622324930107	2.60587914782585	659.084713703676	-1.89711307647371	-26.4809767923112	1.13538390814664	-1.0276352190286	0.00252319382307953	-0.0150417169256712
0.51	-0.487479192733572	2.63061274045687	657.259060864669	-2.16055141410687	-26.6421433224888	1.15155975211193	-1.04373877436577	0.00211578890670749	-0.0154042789913706
0.52	0.0634343812907781	2.55112097164586	654.666907844381	-2.42444870387779	-26.7515790218777	1.16966788759312	-1.06635978205662	0.0016999868160168	-0.0157361437657283
0.53	0.517936473932357	2.37521171524785	651.391426327899	-2.69083664958304	-26.7841140748704	1.18746108137764	-1.09267643034996	0.00127197243262078	-0.0159930332129228
0.54	0.814354870592701	2.12368499106465	647.628872447954	-2.96073309589594	-26.7250430712494	1.20357793976034	-1.12015326968127	0.000830698254888018	-0.0161393168998603
0.55	0.911293286595227	1.82745512893338	643.680194876837	-3.23352237120404	-26.5729939512625	1.21771852585167	-1.14688502847261	0.000379013000999628	-0.0161531809329346
0.56	0.793330397306309	1.5235753029021	639.921700421087	-3.50693997364435	-26.3403795273336	1.23041980757463	-1.17159833267998	-7.63554306871805e-05	-0.0160294781196243
0.57	0.47256901543548	1.25071959727616	636.759073257867	-3.77762563295777	-26.0513340363025	1.24257209466066	-1.19342033495458	-0.000525931027198445	-0.0157797456965331
0.58	-0.0135933246270292	1.04468453317553	634.572295002634	-4.04199627864734	-25.7376009202056	1.2548804244093	-1.21158178845042	-0.000959337278730321	-0.0154295294201586
0.59	-0.607685571363048	0.934397442306606	633.660396805947	-4.29710476635462	-25.4332303202517	1.26745991818462	-1.22520856673482	-0.00136729150777715	-0.0150136936110947
0.6	-1.23953964131232	0.938785056015501	634.194645289324	-4.54120728484068	-25.1691058081728	1.27968108078384	-1.23329033697898	-0.0017432276439393	-0.0145707192398377
0.61	-1.83507072547401	1.06471354475039	636.187233695458	-4.77391661274404	-24.9682645289691	1.29028544314667	-1.23483202998825	-0.00208424090777015	-0.0141370708027978
0.62	-2.32570439350923	1.30611330446548	639.480346375796	-4.99599168427935	-24.8427583719421	1.29770894371236	-1.22912477491371	-0.00239130563549028	-0.0137425772511335
0.63	-2.65751723919736	1.6443643042625	643.757914724573	-5.20893298427354	-24.7924888652531	1.30050231831667	-1.21603715016278	-0.00266891332833685	-0.0134074787194674
0.64	-2.79890901700924	2.05000369694746	648.579591084896	-5.4145785727798	-24.8060912511309	1.29772992571741	-1.19622859734347	-0.0029243529888614	-0.0131414078761
0.65	-2.74550241471129	2.48575644445361	653.433471836344	-5.61483193424002	-24.8635954978873	1.28925274924233	-1.17121662768471	-0.00316681476852676	-0.0129441817282492
0.66	-2.52114632774428	2.91072775445174	657.80108999203	-5.81154196772056	-24.9403073210034	1.27584304108267	-1.14327427673756	-0.00340639656106179	-0.012807961314352
0.67	-2.17443141868185	3.28534187286915	661.225644233052	-6.00645512585274	-25.0111813000401	1.25912214410983	-1.11517947503435	-0.00365300686805337	-0.0127201626659926
0.68	-1.77091990303955	3.576348108198	663.373028458455	-6.20111904760928	-25.0549325521764	1.24134795407517	-1.08987111454514	-0.00391514554398331	-0.0126664994176455
0.69	-1.38215703006868	3.7610633104084	664.075618003424	-6.39665547567732	-25.0572489526911	1.22509835421826	-1.07007980382118	-0.00419862305207064	-0.012633672978013
0.7	-1.07326331494776	3.8300774359627	663.35121649446	-6.59341871275173	-25.0126798025272	1.21290209930136	-1.05799379611302	-0.00450541241569569	-0.0126114210547695
0.71	-0.891336725802452	3.78793352584602	661.393745948551	-6.79066425964347	-24.9250251013533	1.20686469111827	-1.05499918765902	-0.00483294168205795	-0.0125938028645263
0.72	-0.856916454764707	3.65172861327022	658.53731352029	-6.98641181043922	-24.8062749927005	1.20833153623867	-1.06151007994139	-0.00517414917986159	-0.0125796892513459
0.73	-0.960332058151116	3.44802674922561	655.200093798868	-7.17765821385511	-24.6743228290339	1.21762932254384	-1.07689007499786	-0.00551849492312673	-0.0125724464665566
0.74	-1.16391137940789	3.20878575072936	651.817993258118	-7.36098060808988	-24.5498001178029	1.2339281784753	-1.09946555807926	-0.00585386791773701	-0.0125788086077649
0.75	-1.40986393432175	2.96708979070258	648.77962328893	-7.53341204428186	-24.4524746034433	1.25526483112471	-1.1266388003169	-0.00616903323818763	-0.0126069895553931
0.76	-1.63240972399013	2.75335367709012	646.373462781731	-7.69334035267226	-24.3977230894299	1.27875189543068	-1.15511369024422	-0.00645604005269529	-0.0126642214972381
0.77	-1.77168007638929	2.59240221706796	644.755446536607	-7.84113704810828	-24.3936255356056	1.30096635292641	-1.18123815328908	-0.00671196047139488	-0.0127540986085142
0.78	-1.78637589676942	2.50154530132725	643.941148250166	-7.97929081905955	-24.4391954329994	1.31846626660054	-1.2014420858574	-0.00693948355085161	-0.012874276993295
0.79	-1.66233237691915	2.48956745155749	643.822070723098	-8.11197486018622	-24.524132751659	1.32834323984165	-1.21271585334059	-0.00714620133505639	-0.0130151450931844
0.8	-1.4150268505324	2.55647961542712	644.201244941773	-8.24415768059793	-24.6302517813625	1.32869713575002	-1.21304765118265	-0.00734278492009077	-0.0131599676012287
0.81	-1.08548405255396	2.69392808716922	644.840206497565	-8.3805044564204	-24.7344249016281	1.31893166485656	-1.20173316671707	-0.00754053527478715	-0.0132867134712135
0.82	-0.730620346467875	2.88625731440842	645.507999896919	-8.52436494707391	-24.8125567921601	1.29981390600589	-1.17949349751457	-0.00774892080044653	-0.0133713649731736
0.83	-0.410406831099415	3.11229584605914	646.023283989611	-8.6770979396315	-24.8438419555481	1.27330237313481	-1.14837971666121	-0.0079736624976624	-0.0133920810641833
0.84	-0.174969387514603	3.34790809885444	646.282596023155	-8.83786953642922	-24.8144366684749	1.24220366767354	-1.11148831339344	-0.00821574082354759	-0.0133332828177622
0.85	-0.0546960516874893	3.56920329398036	646.270823653515	-9.00392835224787	-24.7197421910945	1.20974718505969	-1.07254451467965	-0.00847145073528732	-0.0131886464266961
0.86	-0.0556117760302785	3.75604896905276	646.053294947182	-9.17124640306913	-24.5647539674942	1.17916366898727	-1.03542224744079	-0.00873339626603398	-0.0129621781399858
0.87	-0.160924569544958	3.89528363168813	645.75206901977	-9.3353466565902	-24.3623383221097	1.15332446094405	-1.00366328997968	-0.0089921439334697	-0.0126669772263441
0.88	-0.33809472178502	3.98287291180679	645.511595056014	-9.4921264537911	-24.1297687723535	1.13446126013248	-0.980043895567861	-0.00923816901302554	-0.0123218665972551
0.89	-0.549421422401194	4.02430967067264	645.460642947527	-9.63852564001747	-23.8842790531613	1.12395858048081	-0.966224663080835	-0.00946373130436762	-0.0119466370079845
0.9	-0.763310207156722	4.03287587098408	645.678109177104	-9.77296258197513	-23.6386605232672	1.1222035518213	-0.962513642638705	-0.00966439035190647	-0.0115570526578055
0.91	-0.963268743361583	4.02593210526769	646.169824964316	-9.89554332695763	-23.397967862725	1.12849137748074	-0.967773012694368	-0.00983998159763533	-0.011160882568659
0.92	-1.15228439137785	4.02004608808933	646.861769239239	-10.0081070099408	-23.1581722781438	1.14101151145071	-0.979501352578657	-0.00999498329585502	-0.0107560056968224
0.93	-1.3514072980415	4.02629698917571	647.612193443086	-10.114178655307	-22.9071559253858	1.15696394477671	-0.994118711456856	-0.0101382736659924	-0.0103311332157799
0.94	-1.59282968290702	4.04726243257338	648.241411628259	-10.2188538811424	-22.6278774694799	1.17285809015701	-1.00746113359334	-0.0102822975772593	-0.00986902880234342
0.95	-1.9091959638129	4.07685356868866	648.573999862807	-10.3285633677144	-22.3029972600817	1.18501427793933	-1.01544886525069	-0.0104416564418262	-0.00935146608744492
0.96	-2.32197296143508	4.10332884510428	648.484738792475	-10.4506068283684	-21.9198717285454	1.19021970659292	-1.01483177252318	-0.0106311551385887	-0.0087647152440592
0.97	-2.83216071160838	4.11471864965409	647.937771736513	-10.5923562244019	-21.4747103213902	1.18640719429387	-1.00385483403282	-0.0108634324619176	-0.00810421360733149
0.98	-3.41622931587658	4.10491872025683	647.008909461549	-10.7601263264962	-20.9748676276714	1.17316360627011	-0.982656112321262	-0.0111464699739745	-0.00737727644488884
0.99	-4.02889815801232	4.07826515211253	645.884073473346	-10.9578684500765	-20.4386784734045	1.15187467112227	-0.953238877552468	-0.0114814572249584	-0.00660318609057203
1	-4.61245916826935	4.05073472075142	644.832092667338	-11.1859887611792	-19.89283368102	1.12539433830885	-0.918959740428373	-0.0118615830153372	-0.00581064123049591
1.01	-5.11028697049822	4.04697944844983	644.156270154516	-11.4406463818218	-19.3678984628664	1.09727514538869	-0.883625333789328	-0.0122722281391394	-0.00503320063871276
1.02	-5.48064924360785	4.09385715927698	644.13464901251	-11.7138050520155	-18.8930408759011	1.07076067433839	-0.850439906122189	-0.0126927347595533	-0.00430385697247815
1.03	-5.70655275663734	4.21242592768545	644.962074987966	-11.9941146574959	-18.4912317996269	1.04785364091988	-0.821130931996286	-0.0130995034498376	-0.00365008630997399
1.04	-5.79842971543173	4.41101720102436	646.706928552408	-12.2684601799898	-18.1760283767547	1.02877765132141	-0.795551783766667	-0.0134697757392245	-0.00309055620664433
1.05	-5.78875464494122	4.68171246331109	649.291758591283	-12.5238279492811	-17.9505844708306	1.01203272481829	-0.771915183521288	-0.0137852512636529	-0.0026341584784445
1.06	-5.72043083358488	5.00140343950431	652.501085065497	-12.7490683615344	-17.8088775896601	0.995042869824433	-0.747596252938369	-0.014034742346415	-0.00228130464719312
1.07	-5.63297450122908	5.33703511154253	656.013193965541	-12.9361941523385	-17.7385120505289	0.975186047961551	-0.720242453441338	-0.0142153551389846	-0.00202671925173703
1.08	-5.55127855970416	5.6532095915321	659.447762327042	-13.0810079323744	-17.7240679189893	0.950865461884168	-0.688821076381824	-0.0143320900917751	-0.00186254144156706
1.09	-5.48072095530401	5.91960356134564	662.418945295807	-13.1830397744588	-17.7499484280303	0.922275949193343	-0.654264796693518	-0.0143961331867313	-0.00178056228886248
1.1	-5.40997287353535	6.11588586990965	664.584385780541	-13.2449344744799	-17.8020287692689	0.89163528281475	-0.619524453362515	-0.0144223530373828	-0.00177288186801594
1.11	-5.32000270329653	6.23290022082149	665.683654944343	-13.2715188996171	-17.8679775658348	0.862833416327605	-0.58903949818977	-0.0144265833991488	-0.00183098836680984
1.12	-5.19557049372984	6.27035646825787	665.563436757317	-13.2687910757533	-17.9366769605937	0.840629163455451	-0.567809921178962	-0.0144231785271351	-0.00194395474187209
1.13	-5.03477461510032	6.23256385423814	664.189866054032	-13.243019173057	-17.9974883794653	0.829634113647044	-0.560341609763668	-0.0144231480847311	-0.00209683861790155
1.14	-4.85314703171684	6.12434846097234	661.649923440029	-13.2000532737034	-18.0400815303611	0.833345195206722	-0.569727008400184	-0.0144329908131423	-0.002270304267877
1.15	-4.68094862672781	5.94902372775219	658.143643589062	-13.1448738156366	-18.0551953075896	0.85343500402544	-0.597042030923703	-0.0144542168387451	-0.00244199485081276
1.16	-4.55482096183428	5.70928056830217	653.96783038737	-13.0813556768374	-18.0361934235678	0.889418565948736	-0.641134511249967	-0.0144835020991493	-0.00258947296567408
1.17	-4.50687612953314	5.41055630643486	649.491080058204	-13.0122213481909	-17.9808370902549	0.938722262299605	-0.698788998871594	-0.014513431721595	-0.00269390625204607
1.18	-4.55501022386516	5.06534056146729	645.120108374304	-12.939171727267	-17.8925103763032	0.99710684945112	-0.765196347912371	-0.0145338046814131	-0.00274335548966004
