Time [s]	GRFml [N]	GRFap [N]	GRFv [N]	Mml [N.m]	Map [N.m]	Mv [N.m]	Mfree [N.m]	COPml [m]	COPap [m]
0.01	13.7207146985072	12.6335704971519	720.322403315266	-45.0401291486548	14.9389219984335	-0.625579042480814	-0.0292935774742808	0.000553935600406723	-0.000564063509822063
0.02	13.6595857961281	11.7398915705667	719.13624334729	-45.2526933004889	14.7618510569522	-0.664549233853295	-0.0455486201170401	0.000341458265219616	-0.000163902761342122
0.03	13.5974991288164	10.8580014775146	717.976722416839	-45.4565416040212	14.5907224660339	-0.701779973859292	-0.0610839105120214	0.000136571920347023	0.000221094788394299
0.04	13.5339919436641	10.0012062878014	716.85945437719	-45.6447228043665	14.4300698024713	-0.736003100429846	-0.0751077415434543	-5.48128269661323e-05	0.00057990415222621
0.05	13.4685626213818	9.18184932051808	715.797184029319	-45.8106300391491	14.2840680542629	-0.766028866020102	-0.0868439520976777	-0.000227209206452136	0.000902315393526157
0.06	13.400714907593	8.41090465514936	714.799216884642	-45.9483171757141	14.1563380501576	-0.790804403703873	-0.0955774899370077	-0.000375814060417288	0.0011793989608533
0.07	13.3300024853255	7.69764620212097	713.871071761603	-46.0527894374346	14.0497812013466	-0.809466199500053	-0.100698777880399	-0.000496730668219855	0.00140390669666206
0.08	13.2560710804792	7.04940684023552	713.014387026976	-46.1202533631552	13.9664541090931	-0.821383662108992	-0.101743631376479	-0.000587141619752672	0.00157059114406337
0.09	13.1786955155265	6.47143612710155	712.227094427066	-46.1483135881456	13.9074898722616	-0.826191406400469	-0.0984257364557485	-0.000645422322127654	0.00167643113151456
0.1	13.0978094825822	5.96685871765197	711.50385573937	-46.1361069182101	13.8730698351964	-0.823808517290032	-0.0906592430216808	-0.000671189878617182	0.00172075661657133
0.11	13.0135262728362	5.53672937526351	710.836738219251	-46.0843674889907	13.8624462745793	-0.814443795440305	-0.0785697935984811	-0.000665286446382328	0.00170527019920234
0.12	12.9261492497005	5.18017479193457	710.216086432887	-45.9954202671858	13.8740133555316	-0.798586762444996	-0.0624932005136482	-0.000629700396425494	0.00163396657874949
0.13	12.8361714588337	4.89460774335296	709.631531971549	-45.873103583462	13.9054207974546	-0.776984977184421	-0.0429619043798914	-0.000567432335973159	0.00151295468188284
0.14	12.7442643970199	4.67599568882313	709.07307003644	-45.7226246351335	13.9537222557191	-0.750608944680298	-0.0206802004161589	-0.000482316049303922	0.00135019043649599
0.15	12.6512565788332	4.51916396528707	708.53212405516	-45.550354833242	14.0155485851434	-0.720606545131342	0.0035100660053371	-0.000378806500655724	0.00115513136457801
0.16	12.5581031096022	4.41811327477233	708.002517118975	-45.3635743939294	14.0872949992454	-0.688249440126537	0.0286711018987046	-0.000261748158765458	0.000938327353198098
0.17	12.4658479617884	4.36633216023097	707.481272513835	-45.1701776151362	14.1653107208411	-0.654874298404513	0.0538155029807463	-0.000136137081312323	0.000710965027837462
0.18	12.3755810306235	4.35708743312606	706.969174934677	-44.9783517885479	14.2460800308447	-0.621821906390258	0.0779546198988882	-6.88955229955282e-06	0.000484385857102282
0.19	12.2883922924658	4.38367879831346	706.471038665427	-44.7962436469765	14.3263846126668	-0.590377280006775	0.100146279782212	0.000121371239857185	0.000269600143677801
0.2	12.205325494418	4.43964789903839	705.995648208754	-44.6316276311167	14.4034386678943	-0.561713774936512	0.119539356515116	0.000244500777336506	7.68200745182301e-05
0.21	12.1273337660287	4.51893632767681	705.55535933497	-44.4915900843574	14.4749903202099	-0.53684391365281	0.135412959921287	0.000358983417048899	-8.49652548753493e-05
0.22	12.0552393741055	4.61599146477879	705.165372788506	-44.3822427703736	14.5393851803806	-0.516579229476379	0.147208374059532	0.000462041835531758	-0.00020835161363289
0.23	11.9896995600796	4.72582299350049	704.842717270818	-44.3084778869616	14.5955904541444	-0.501500898708349	0.15455229776913	0.000551702606048209	-0.000287800093875232
0.24	11.9311800331302	4.84401630991974	704.605001083295	-44.2737750626326	14.6431804732939	-0.491942325255133	0.157270409881919	0.000626817051175298	-0.000319822531186009
0.25	11.8799372718609	4.9667115987906	704.469011301893	-44.280068721668	14.6822868626685	-0.487984194906046	0.155390781515948	0.000687038691899552	-0.000303063527795452
0.26	11.8360103428263	5.09055893294274	704.449254090322	-44.3276817512954	14.7135185840531	-0.48946186581352	0.149137171246389	0.000732760680824725	-0.000238276653202932
0.27	11.7992225018748	5.21266032915837	704.556538553469	-44.4153286756238	14.7378587091577	-0.495984342939045	0.138912745143254	0.000765018516462306	-0.00012819844168839
0.28	11.7691924240754	5.33050928171502	704.796708575764	-44.5401886216383	14.7565458857628	-0.506963528232278	0.125275238978736	0.000785365018956805	2.26704988750409e-05
0.29	11.7453545223503	5.44193699902824	705.169622005432	-44.6980453521022	14.7709490259298	-0.521651970299052	0.108904999208872	0.000795725909409142	0.00020836301500865
0.3	11.7269874689912	5.54507255354487	705.668464429726	-44.8834886497446	14.7824437507433	-0.539186975811158	0.0905676788007579	0.000798245261001609	0.000421803452511901
0.31	11.7132497274893	5.6383216313383	706.279466205362	-45.0901684876149	14.7922985949885	-0.558638701535537	0.0710736041280821	0.000795130467612818	0.00065520548959927
0.32	11.7032206311047	5.72036577499542	706.982067375375	-45.3110908394482	14.8015779620813	-0.579059725643352	0.0512359574049766	0.000788506120592378	0.000900487741619285
0.33	11.6959453061263	5.79018119929556	707.749547021613	-45.5389418002459	14.8110674065079	-0.599533599051202	0.0318299312311872	0.000780285269165324	0.00114968510063816
0.34	11.6904815319748	5.84707366145928	708.550103185909	-45.7664250250094	14.8212251115549	-0.619219996119847	0.0135549119814532	0.000772065012194526	0.00139533488401727
0.35	11.6859464628632	5.89072369639896	709.348338667816	-45.9865964639669	14.8321615424221	-0.637394309189672	-0.00299845156355052	0.000765051355771821	0.00163081892389608
0.36	11.681561018787	5.92123495055313	710.10707879346	-46.1931800661516	14.8436473141175	-0.653479849971375	-0.0173747221940624	0.000760015965286739	0.00185064553895704
0.37	11.6766897049597	5.93917748124811	710.789421638704	-46.3808486011698	14.8551474443082	-0.667071216847516	-0.0292724676215681	0.000757285072570803	0.00205065871011344
0.38	11.6708736596059	5.94561778921753	711.360901011668	-46.5454550363997	14.8658784796036	-0.677947842551266	-0.0385545439412637	0.000756758599312408	0.0022281655774728
0.39	11.6638548813596	5.94212801675303	711.791629301995	-46.6842019866315	14.8748835901952	-0.686077231499706	-0.0452494606277373	0.000757955722189629	0.00238197745435334
0.4	11.655589866347	5.93076811221029	712.058282238368	-46.7957395629266	14.8811197015541	-0.691607908858324	-0.0495438495356578	0.00076008176444415	0.00251236379232862
0.41	11.6462513001899	5.91403672159537	712.145791323897	-46.8801853792145	14.8835501261595	-0.694852611856334	-0.0517664872932823	0.000762110506752896	0.00262092280011818
0.42	11.6362169989597	5.89478896705108	712.048622349743	-46.9390643779522	14.8812359974519	-0.696262735330693	-0.0523647297374699	0.000762875745047582	0.00271037657058498
0.43	11.6260459591143	5.87612192879882	711.771539444657	-46.9751703222509	14.8734200873727	-0.696395475843473	-0.0518745949431463	0.00076116610096974	0.00278430243236079
0.44	11.6164421287232	5.86123136463638	711.329782548571	-46.9923550554858	14.859597274923	-0.695875481357052	-0.0508860630503425	0.000755817590973179	0.00284681562497663
0.45	11.6082073064344	5.85324578081837	710.748620419376	-46.9952557182179	14.8395669682937	-0.695353088249621	-0.0500054299548317	0.000745799151431668	0.00290222110261497
0.46	11.6021853556499	5.85504622246613	710.062279268255	-46.9889738005277	14.8134640895216	-0.695461399885806	-0.049816740276912	0.000730287083571327	0.00295465411917861
0.47	11.599200628099	5.86908191544439	709.312286524578	-46.9787229704981	14.7817667164877	-0.696774521079071	-0.0508444153799124	0.000708725142963024	0.003007730088533
0.48	11.5999940617682	5.89719303176387	708.545307538259	-46.9694648563583	14.7452800430972	-0.699769206015963	-0.0535191696882864	0.000680867719329521	0.00306422395487399
0.49	11.6051607969541	5.94045227321471	707.810587711053	-46.9655532086191	14.7050978643653	-0.704792004833632	-0.0581491637593798	0.000646804245778128	0.00312579792410267
0.5	11.6150932964991	5.99903662363672	707.157141248346	-46.9704070171238	14.6625442238188	-0.712033713309732	-0.0648980745210579	0.000606963690118738	0.0031927939486151
0.51	11.6299338339959	6.07213950646736	706.630848406959	-46.9862321530237	14.6190990916146	-0.721512554034335	-0.0737713815470388	0.000562098777292696	0.00326410395074521
0.52	11.6495398187353	6.15793174561546	706.271634221678	-47.0138089590848	14.5763129036563	-0.733067064140133	-0.0846116946536425	0.000513250521484702	0.00333712660558767
0.53	11.6734647720211	6.25357725394464	706.110902248967	-47.0523600027451	14.535715433626	-0.746359156617659	-0.0971034147545262	0.000461694720346247	0.00340781482265122
0.54	11.700956891278	6.35530639501274	706.169386557856	-47.09950808028	14.4987247605679	-0.76088728509921	-0.110786467010445	0.00040887323462703	0.00347081313634434
0.55	11.7309760907937	6.45854664467097	706.455564407278	-47.1513297227475	14.4665620251419	-0.776009103402899	-0.125078316274046	0.000356314034630788	0.00351967931181994
0.56	11.7622292612361	6.55810671000183	706.964741839079	-47.2025041609705	14.4401772497785	-0.79097249937724	-0.1393030105527	0.000305544983296272	0.00354717985492078
0.57	11.793222324822	6.64840685016039	707.678886473025	-47.2465522504513	14.4201907635056	-0.804953425213862	-0.152725631483494	0.000258006973145049	0.00354564501387551
0.58	11.8223265634487	6.7237449981443	708.567238325058	-47.2761545511125	14.406853770741	-0.81709856874868	-0.164590282092638	0.000214972198278145	0.00350736547098106
0.59	11.8478557441886	6.77858560852907	709.587683084889	-47.283532916469	14.4000303991386	-0.826570634062386	-0.174159617648505	0.000177472949454235	0.00342501040250665
0.6	11.8681498309632	6.80785613879849	710.688825817952	-47.2608758703276	14.3992022299366	-0.83259384160535	-0.180753918122583	0.000146245390340222	0.00329204505677723
0.61	11.8816606073477	6.80723486512574	711.812659391231	-47.2007849981796	14.4034949371628	-0.834497228533492	-0.183787793519106	0.00012169142163564	0.00310312555185387
0.62	11.8870343767779	6.77341344946427	712.897683830379	-47.0967177632185	14.4117253234838	-0.831753432174651	-0.18280278379812	0.00010386015405156	0.00285444927669709
0.63	11.8831870629021	6.70431837456068	713.882302766049	-46.943401713212	14.4224658214618	-0.824010869077769	-0.177494340908481	9.24489095231289e-05	0.00254404110088818
0.64	11.8693674904771	6.59927704988789	714.708303130657	-46.7371960350899	14.4341225027327	-0.811117566810088	-0.167731943319036	8.68222568991169e-05	0.00217195851256928
0.65	11.8452053498556	6.45911700551657	715.324215739986	-46.4763788147965	14.4450218650298	-0.793135346419946	-0.153571381691623	8.60465158959121e-05	0.00174040270518329
0.66	11.8107412809527	6.28619001167156	715.688358059866	-46.1613420605186	14.4535011928178	-0.770343565277133	-0.135258563079697	8.893650928481e-05	0.00125372734788849
0.67	11.7664375871102	6.08431701047566	715.771376285772	-45.7946813565308	14.4579971373108	-0.743232183583577	-0.113224510409626	9.41111081972611e-05	0.000718342066454436
0.68	11.7131692290479	5.85865419526809	715.558131054389	-45.3811726701684	14.4571273410204	-0.712484481591356	-0.0880715860373305	0.000100054233448523	0.000142513243764922
0.69	11.6521958756915	5.61548515748505	715.048808131018	-44.9276350172421	14.4497604250798	-0.678950296506368	-0.0605513430205715	0.000105178337528294	-0.000463929698618776
0.7	11.5851168274811	5.36194845671617	714.259180097577	-44.4426840455436	14.4350704292292	-0.643611137881615	-0.0315348001993991	0.00010788786979541	-0.00108996918450238
0.71	11.5138115131212	5.10571397003738	713.219994706482	-43.9363877501755	14.4125727922824	-0.60753895118236	-0.00197633425797683	0.000106640699665757	-0.00172383766370884
0.72	11.4403689402305	4.85462467446067	711.97551711808	-43.4198411235958	14.3821401194885	-0.57185060933208	0.0271272378664144	0.000100005842956732	-0.00235349765831112
0.73	11.3670099180578	4.61632288200362	710.581303499087	-42.9046812327531	14.3439972278734	-0.537660405838645	0.0547804784572432	8.67160485011204e-05	-0.00296713985396868
0.74	11.2960060490635	4.39788120715846	709.101329275562	-42.4025677217977	14.2986962127846	-0.50603289198403	0.0800338872317256	6.57138469639836e-05	-0.00355367434416328
0.75	11.2295994078347	4.20545859827587	707.604633819353	-41.9246558470311	14.2470734609187	-0.477938343352571	0.102026891843998	3.61895821485575e-05	-0.00410319044318674
0.76	11.1699265115002	4.04400058371762	706.161672073924	-41.4810897294398	14.1901915754455	-0.454212963799174	0.120026960464252	-2.3901791428721e-06	-0.00460736214741452
0.77	11.1189496733602	3.91700052920187	704.84058079221	-41.080542519466	14.1292700161762	-0.435525650738683	0.13346267861832	-5.0265517127529e-05	-0.00505977923646488
0.78	11.0783981720008	3.82633531253508	703.703571612351	-40.7298276633144	14.0656088448431	-0.422352773130863	0.1419489426037	-0.000107378834831164	-0.00545618798493309
0.79	11.0497209215443	3.77218460396215	702.80365490437	-40.4336015862746	14.0005102720296	-0.414961976018203	0.145302873958373	-0.000173384452901201	-0.00579463026003106
0.8	11.0340515578144	3.75303815831906	702.181877782539	-40.1941730950396	13.9352027161132	-0.413405549129843	0.143549621109496	-0.000247672504601368	-0.00607547512676789
0.81	11.0321861203519	3.76579047970982	701.865228283119	-40.0114289448384	13.8707718125245	-0.417523409218923	0.136917839406347	-0.000329406496061745	-0.00630134266371562
0.82	11.0445728636705	3.80591722721522	701.865317529949	-39.8828786650324	13.8081022783102	-0.426955273140355	0.125825275463624	-0.000417572711657918	-0.00647692519940227
0.83	11.0713132127365	3.86772310197901	702.177905363749	-39.8038152629682	13.7478337828426	-0.441161165616431	0.110855471910052	-0.00051103846728516	-0.00660871631746944
0.84	11.1121725118805	3.94464697587412	702.783285360494	-39.7675822087517	13.6903330535851	-0.459449032968252	0.0927271069883759	-0.000608615247896894	-0.00670466248333231
0.85	11.1665990110417	4.02960692833248	703.647495522541	-39.7659315019565	13.6356834179735	-0.481007938011629	0.072257855488188	-0.000709122190222924	-0.00677375579294719
0.86	11.2337494801727	4.11536582890551	704.724274241933	-39.7894529519666	13.5836919149419	-0.504945102915639	0.0503248846161151	-0.000811445300321626	-0.00682558896183865
0.87	11.3125199196552	4.19489724593195	705.957640190988	-39.828051322374	13.5339130686226	-0.530324951982104	0.0278241779167787	-0.000914588247310721	-0.00686989514187101
0.88	11.4015800091672	4.26173180738477	707.284941931533	-39.8714458762811	13.4856874641003	-0.556208285950939	0.00563082274413476	-0.00101771147142338	-0.00691609541650939
0.89	11.4994101709725	4.3102656433822	708.640200009615	-39.909666207357	13.4381924545845	-0.581689790015869	-0.0154377785362724	-0.00112015753482412	-0.00697287588747486
0.9	11.6043403759294	4.33601508460414	709.957552200344	-39.9335190553699	13.3905017036374	-0.605932231796015	-0.0346540825826986	-0.00122146194110701	-0.00704781419521405
0.91	11.7145900542191	4.33580519895787	711.174611752008	-39.9350030014577	13.3416498547573	-0.628195932305411	-0.0514066115202451	-0.00132134987568889	-0.00714707224203445
0.92	11.8283086569035	4.3078837940108	712.235558603444	-39.9076513546543	13.2906984390492	-0.647862379048714	-0.0652192226368372	-0.00141972033782825	-0.00727516799454227
0.93	11.9436165271139	4.25195693646005	713.093803613065	-39.8467879471115	13.2367991810804	-0.664451180199029	-0.0757628796669462	-0.00151661986898893	-0.00743483476019653
0.94	12.058645770052	4.16914656904713	713.714094283349	-39.7496856703472	13.1792511309535	-0.677629915362447	-0.0828597753947841	-0.00161220851569261	-0.00762697152113027
0.95	12.1715807597528	4.06187516966078	714.073965303593	-39.61562309635	13.1175485128562	-0.687216803889975	-0.0864800520286307	-0.00170672083002487	-0.00785068304109596
0.96	12.2806977995034	3.93368634634607	714.164476197778	-39.4458401115179	13.0514168026953	-0.693176468180676	-0.0867317303785426	-0.00180042466826246	-0.00810340380990359
0.97	12.3844032832391	3.78901357913072	713.990219060567	-39.2433988324651	12.9808352883703	-0.695609399730034	-0.0838447752329408	-0.00189358036627904	-0.00838109570607882
0.98	12.4812695153475	3.63291183422647	713.568619427895	-39.0129608814151	12.9060451796389	-0.694736024040549	-0.0781504784818985	-0.00198640260907762	-0.00867850576059959
0.99	12.5700671678415	3.47076837115795	712.92859056112	-38.7604961280267	12.8275431723205	-0.6908764932976	-0.0700575225052129	-0.00207902701103654	-0.0089894677644435
1	12.6497932184011	3.30800967946299	712.10863391096	-38.4929410612579	12.7460611865259	-0.684427502111092	-0.06002618709586	-0.00217148310011347	-0.00930722979790722
1.01	12.7196931482565	3.14982111785023	711.154504728467	-38.2178269091018	12.6625337467197	-0.675837514235317	-0.0485421812749056	-0.00226367504985479	-0.00962478912888674
1.02	12.7792762065733	3.00089453943274	710.116580596663	-37.9428984124903	12.578055114109	-0.665581803491916	-0.0360915191417117	-0.0023553711116242	-0.00993521632933799
1.03	12.8283226805639	2.86521707557636	709.047081421993	-37.6757437861082	12.4938287877444	-0.654138650783962	-0.023137723339769	-0.0024462022483757	-0.0102319518357013
1.04	12.8668823508936	2.74591146286082	707.997291965289	-37.4234549304754	12.4111123368936	-0.641967905954434	-0.0101024416512157	-0.00253566995281781	-0.0105090604207281
1.05	12.8952636531722	2.64513500892561	707.014932561196	-37.1923345200725	12.3311607001678	-0.629492927133631	0.00264968458446969	-0.00262316265852369	-0.0107614319988356
1.06	12.9140134922706	2.56404070065011	706.141810919096	-36.9876633520059	12.2551710826839	-0.617086663449921	0.0148213415963356	-0.00270797955802668	-0.0109849206705109
1.07	12.9238881427015	2.50280026921489	705.411868794643	-36.8135375045955	12.1842324069	-0.605062364652828	0.026187792422264	-0.00278936008487331	-0.011176417718153
1.08	12.9258161847176	2.46068544732807	704.849713106435	-36.6727806537695	12.1192819403288	-0.593669100362572	0.0365970914344989	-0.00286651686771224	-0.0113338581814285
1.09	12.9208549368932	2.4362003794963	704.469693167014	-36.566932565241	12.061071256636	-0.583091970334138	0.0459655866618901	-0.00293866969301183	-0.0114561644516135
1.1	12.9101423140473	2.42725535145292	704.275555626696	-36.4963105567339	12.0101431147057	-0.573456603251233	0.054269291311941	-0.00300507797009031	-0.0115431338299825
1.11	12.8948464264769	2.43136983560676	704.260678047378	-36.4601368264349	11.9668201968761	-0.564837291926748	0.0615319267476382	-0.00306506939694215	-0.0115952800141384
1.12	12.8761155067762	2.44589141543725	704.408852246005	-36.4567211650713	11.9312059692699	-0.557267911921408	0.0678106119788399	-0.0031180629578427	-0.0116136408558041
1.13	12.8550308729706	2.46821652124024	704.695561084137	-36.4836858689573	11.9031972512921	-0.55075462981996	0.0731802910782858	-0.00316358498701372	-0.0115995663570323
1.14	12.8325655875991	2.49599910535617	705.089668482472	-36.5382177686871	11.8825074439846	-0.545289334035468	0.0777180432440685	-0.00320127772415819	-0.0115545016631497
1.15	12.8095512381796	2.52733438332477	705.555423152419	-36.617331256686	11.8686988009792	-0.540862717846644	0.0814884062766125	-0.00323090047616347	-0.0114797797394552
1.16	12.786654844087	2.56090649955911	706.054662663293	-36.7181260638486	11.8612216595362	-0.537476009540003	0.0845307619565596	-0.00325232410278136	-0.011376437501311
