Time [s]	GRFml [N]	GRFap [N]	GRFv [N]	Mml [N.m]	Map [N.m]	Mv [N.m]	Mfree [N.m]	COPml [m]	COPap [m]
0.01	0.14079047390841	0.339829578834264	607.957193382666	14.7180312607523	3.73598298352191	0.920382074441938	-0.91907698613267	0.000550460663036656	-0.00276516972695628
0.02	0.114139145716999	0.168774775681422	608.242068405587	14.8459353521191	3.66597258248926	0.927944035525802	-0.926236778451074	0.000750911431327772	-0.00288190272604527
0.03	0.0794892520418004	0.0172414019127943	608.527954026541	14.9590116137584	3.60459545804141	0.934886261918241	-0.933094956270149	0.000927046137241927	-0.00298442625396178
0.04	0.0308902752946897	-0.100210618764265	608.818456801461	15.0455093022726	3.55880818839995	0.940435114371929	-0.939114736727584	0.00105947967569686	-0.0030613242814147
0.05	-0.0347759865689605	-0.177082786733271	609.127018812567	15.0998501161054	3.53258947146321	0.943734822599168	-0.943557606621878	0.00113852381327484	-0.00310618950490188
0.06	-0.117548160330917	-0.21609528542229	609.47662383645	15.1235493610624	3.52644312954977	0.943985809228543	-0.945608613091236	0.00116570621897782	-0.00311844015750318
0.07	-0.214812464123274	-0.227702718998529	609.894214918767	15.1242241906157	3.53770497124078	0.940678324833599	-0.944629860798432	0.00115237606925156	-0.0031027570011869
0.08	-0.322123171422005	-0.226397418147663	610.401462654541	15.1131269488642	3.56148571951615	0.933828239968029	-0.940439294929894	0.00111604579554037	-0.0030674329248081
0.09	-0.434036445040064	-0.226009954917567	611.005048306007	15.1020323615267	3.59189974403409	0.924111889047273	-0.933494763571375	0.00107569605179769	-0.00302224381927674
0.1	-0.544629178850319	-0.235595711271179	611.690013229079	15.1003866629561	3.62317267732974	0.912831671017898	-0.924897288072069	0.00104738527896631	-0.00297654740934067
0.11	-0.647562079735902	-0.257277143504877	612.418789520976	15.1134171856322	3.65031391170456	0.901702714155366	-0.916192195351194	0.00104120017871789	-0.00293815573176387
0.12	-0.735809111156608	-0.286661727277642	613.136586683041	15.1415221735714	3.66924778094389	0.892508299286293	-0.909015260181297	0.00106004180104313	-0.00291316688815335
0.13	-0.80141330829369	-0.315479352254964	613.781589691116	15.1808642660471	3.67653763358286	0.886709646966798	-0.904680643416423	0.00110018301713477	-0.00290652432281491
0.14	-0.835729386217084	-0.335280041445369	614.296780939434	15.2248004622546	3.66901019066475	0.885106614290595	-0.90382553024256	0.00115312442473614	-0.00292276900855343
0.15	-0.830498381499659	-0.340720621639334	614.639772288404	15.2656564064605	3.64361718726036	0.887631819578627	-0.906211215992008	0.00120808967358244	-0.00296639330450782
0.16	-0.7797715082671	-0.331247628791623	614.787972247844	15.2963864701753	3.59774028611801	0.893329452580313	-0.910739256203858	0.00125451988807823	-0.00304142523028461
0.17	-0.682263214851106	-0.310704759785721	614.738299279821	15.3117994267083	3.52990877487965	0.900530819748202	-0.915687004087928	0.00128407819248832	-0.00315027543875301
0.18	-0.543347338644375	-0.285237840885932	614.502676866385	15.3092025123939	3.44066479091906	0.907199083713248	-0.919113335448988	0.00129187676133813	-0.00329228403484016
0.19	-0.375803009450658	-0.260495061755526	614.101869298289	15.2884664031925	3.33318944959006	0.911380329586074	-0.919343880931927	0.00127682930375739	-0.00346261987775087
0.2	-0.198674456393103	-0.239298724824971	613.560344637275	15.2516106252863	3.21335820928426	0.911670224965558	-0.915422702083429	0.0012411836709445	-0.00365210253547971
0.21	-0.0341873127276222	-0.220666654164288	612.903846822822	15.2020538178278	3.0891067154037	0.907589782079899	-0.907417698892733	0.00118940168021331	-0.00384816561034124
0.22	0.0966351747511567	-0.200445586262492	612.159788370585	15.1436863771014	2.96926513239443	0.899767485290361	-0.896491624170055	0.00112663734807605	-0.00403671706050618
0.23	0.178469156412961	-0.173154183480729	611.359210298914	15.0799276278458	2.8622329502547	0.889855786985705	-0.884698397541403	0.00105712767136146	-0.00420429029318992
0.24	0.204964528665021	-0.134184824948093	610.538493131381	15.0129365081224	2.77491904200811	0.880169212624207	-0.874529644350737	0.000982844972616137	-0.00433978513470668
0.25	0.179787970148075	-0.0814398069416857	609.739392646003	14.9431444166627	2.71224145048147	0.873109043574144	-0.868306197024965	0.000902744438332492	-0.00443530813492632
0.26	0.115114160470672	-0.0157782234500988	609.006992185162	14.8692470920273	2.67723289410007	0.870513658750508	-0.867564543448918	0.000812847517989268	-0.00448602958322852
0.27	0.0280336528772632	0.0598228349819649	608.386221375487	14.7887075691188	2.67154916115896	0.873116365980468	-0.872608477170234	0.000707219423973338	-0.00448938414201117
0.28	-0.0640517433348389	0.141960116360207	607.918157845064	14.6986867254868	2.69603969457823	0.880281840132116	-0.882367789068984	0.000579652625651517	-0.00444416828650251
0.29	-0.147752608793043	0.228594243971466	607.637187490726	14.5971689866938	2.75106422885232	0.890122612670629	-0.894629161049043	0.000425628549464152	-0.00435004579137038
0.3	-0.216629510287243	0.320178673621124	607.569419868533	14.4839503839431	2.83639828278045	0.899984896877349	-0.906597279672585	0.000243992267813686	-0.00420770977202206
0.31	-0.272119670755723	0.419658746424233	607.731964970049	14.3611608364071	2.95077789897487	0.907173529215938	-0.915638572223351	3.78157652117794e-05	-0.00401960936769591
0.32	-0.322403775092868	0.531321385299729	608.132216870233	14.2331196702947	3.09129496461972	0.90970127749515	-0.919992497247573	-0.000185844830709825	-0.00379088926451393
0.33	-0.379653829142915	0.658900798943209	608.766390900203	14.1055356060877	3.25291024418678	0.906831703887622	-0.919233865783369	-0.000417245218810924	-0.00353010694449468
0.34	-0.456402843165118	0.803593840003587	609.617153503668	13.9842810591575	3.42830030070984	0.899247439657627	-0.91434097176958	-0.00064591150966975	-0.00324938634675553
0.35	-0.561873087510373	0.96264570889079	610.65096088013	13.8741117206138	3.60813924474669	0.888797808303816	-0.907348285548723	-0.00086266916221045	-0.00296386438643864
0.36	-0.699035200574516	1.12896505115176	611.816311791014	13.7777148888217	3.7817916424243	0.877917978569649	-0.900697166381163	-0.00106115392796213	-0.00269049496746726
0.37	-0.862997611777	1.29191366390775	613.044255842682	13.6953549319172	3.93829830968839	0.868915708585714	-0.896494968607196	-0.00123841347072107	-0.00244642709978909
0.38	-1.0410744259198	1.4390988703193	614.252111976824	13.6251887063806	4.06748596927511	0.863354216080675	-0.895916677769654	-0.00139451750753883	-0.00224724679833221
0.39	-1.21456259366302	1.55875684369194	615.350561020512	13.5641173184426	4.16102045322358	0.861712461151286	-0.898926602056871	-0.00153140515929173	-0.00210537588201815
0.4	-1.36190219559813	1.64219102312649	616.253318377683	13.5088885841814	4.21324183889684	0.863399862739208	-0.904384427770897	-0.00165141223231413	-0.00202887370600691
0.41	-1.4625643836714	1.68572506589563	616.887747207577	13.4571089294202	4.22166205397333	0.867083303037871	-0.910473847066674	-0.0017559802325241	-0.00202080532640631
0.42	-1.50081201356047	1.69172916382889	617.204294922141	13.4078746055844	4.18706669850133	0.871192687135882	-0.915297524146753	-0.00184494636399035	-0.00207923287510664
0.43	-1.4684991317785	1.66845769237304	617.182704583009	13.3618689610577	4.11323536438134	0.874433535169675	-0.917447168458112	-0.00191659137213052	-0.00219777138802418
0.44	-1.36633792720793	1.62866477361156	616.833612203453	13.3209496715568	4.00636362400722	0.876154256227941	-0.916384959475496	-0.00196835626669656	-0.00236655064652347
0.45	-1.20348528360484	1.58720682110892	616.195257967422	13.2874102078525	3.87431525241374	0.876476273684247	-0.912544519857469	-0.00199791807061833	-0.00257337031143529
0.46	-0.99572965627007	1.55805898185007	615.326306338755	13.2631918284639	3.7258389115018	0.876173036232651	-0.907148146928343	-0.00200421125662675	-0.00280484769819705
0.47	-0.762835044910937	1.55132781528299	614.296783953869	13.2493173825526	3.56984742045814	0.876356409394261	-0.901815671054841	-0.00198802680508336	-0.00304743271962449
0.48	-0.525644754300591	1.57090112319074	613.179547688842	13.245721124153	3.41479757290838	0.878079298100917	-0.898090814842143	-0.00195199323224504	-0.00328826867508614
0.49	-0.303404313235443	1.61330933025664	612.04431934215	13.2514962891462	3.26815607060043	0.881981378043332	-0.897024276211206	-0.00189997733165315	-0.00351595686560047
0.5	-0.111559473309442	1.66816718594869	610.955263052783	13.2654290708522	3.13592191724165	0.888086352425899	-0.898928011433083	-0.00183615138925919	-0.00372129168310714
0.51	0.0398438609841381	1.72023476416252	609.971672895621	13.2865868974456	3.0222059335115	0.895807565847206	-0.903358996267124	-0.00176408479190338	-0.00389796256691405
0.52	0.147030946038485	1.75274069394152	609.150055309099	13.3147142720999	2.92892360990731	0.904147424926171	-0.909317867693228	-0.00168619441320383	-0.00404310986590317
0.53	0.212444840436516	1.75124875009805	608.545204816627	13.3502648981942	2.85569948451393	0.91200784383419	-0.915580135232704	-0.00160374103376482	-0.00415754244674782
0.54	0.243569468870245	1.70713984943585	608.20810065339	13.3940378044192	2.8000748489561	0.918490096726512	-0.92103857433188	-0.00151734312345786	-0.00424543597869792
0.55	0.250610362209294	1.61981652227042	608.179634422374	13.4465390625575	2.75804620919892	0.923071151929621	-0.92494068485676	-0.00142777451944842	-0.00431344777277787
0.56	0.243384363199122	1.49703478795191	608.481001624022	13.50730446328	2.72486169935911	0.925599197872252	-0.926953971823085	-0.00133669611957299	-0.00436936684470257
0.57	0.228194161932007	1.35325530889733	609.103429327542	13.574449340877	2.69590900151982	0.926131706900854	-0.927065069537215	-0.00124699004264062	-0.00442059059834687
0.58	0.205719183001583	1.2064361945995	610.001019206047	13.6446444381914	2.66748222001692	0.924710156384889	-0.925385970177453	-0.00116251498945941	-0.00447280798404875
0.59	0.170844854758371	1.07410018067336	611.090277994316	13.7135711319374	2.63723720197338	0.92119461199964	-0.921973782288743	-0.00108733042096842	-0.00452923414602296
0.6	0.114823663323739	0.969677230397812	612.258255567467	13.7767362319996	2.60422867941576	0.9152550933536	-0.916756601108046	-0.00102465756986558	-0.00459059255299965
0.61	0.029353506006194	0.900008837954467	613.378563006794	13.830391035726	2.5685413350943	0.906545812018259	-0.909604770945087	-0.000975967764959562	-0.00465582527685565
0.62	-0.0886355686991186	0.864548791796928	614.331812900429	13.8722557695912	2.53064486043088	0.895003195764737	-0.900517903647667	-0.000940557945460108	-0.0047232961706502
0.63	-0.233147359079451	0.856319493213856	615.025256107666	13.9018186467293	2.49068667772211	0.881145074791756	-0.889842563164413	-0.000915795934030683	-0.0047920986904853
0.64	-0.387784140610603	0.864225038938322	615.406335414157	13.9201327524918	2.44796041628667	0.866232984119015	-0.87841553173601	-0.000897963898577658	-0.0048630368810853
0.65	-0.52775310894786	0.876011264210582	615.466664107945	13.9292127189814	2.40074228434387	0.852198983347354	-0.867549855844471	-0.000883402174008618	-0.00493893438076576
0.66	-0.624975570513135	0.881077093850593	615.235976216411	13.9312668945995	2.34657842164705	0.841318242031028	-0.858835949193817	-0.000869549560835625	-0.00502412636268867
0.67	-0.654968047796759	0.872485080718145	614.76878246641	13.9280410317305	2.28296259262032	0.83569994434449	-0.853797315976596	-0.000855528739050926	-0.00512324871190495
0.68	-0.60346293763442	0.847823286329314	614.128618352886	13.920487746892	2.20821035317043	0.836739607564899	-0.853496474562464	-0.000842106770121975	-0.00523967489429633
0.69	-0.470702635231397	0.808922096220906	613.375102651243	13.9088425741857	2.12226043999592	0.844701169453921	-0.858212709863799	-0.000831091851585808	-0.00537408040477966
0.7	-0.272016847936496	0.760713965091298	612.557465933787	13.8930355564228	2.0271461644585	0.858567844103009	-0.867300502055099	-0.000824418781869674	-0.00552358774349848
0.71	-0.0344572140728232	0.709668699672937	611.715416613696	13.8732510044615	1.92697632024219	0.876225079512455	-0.879288857834942	-0.000823262877378994	-0.00568176965021105
0.72	0.209490985190259	0.662231829646079	610.885286302141	13.8504035466672	1.8274118527436	0.894940121927064	-0.892211162191354	-0.000827486622950402	-0.00583952829676765
0.73	0.429212787770888	0.623583762850478	610.107432387141	13.8263345753209	1.73477037558312	0.912011355391358	-0.904083431457111	-0.000835591346036169	-0.00598661366112579
0.74	0.602148876827483	0.596890740033838	609.430554195899	13.8036315480458	1.65498982328621	0.92540522652837	-0.913397906765761	-0.000845172583511244	-0.00611337511145515
0.75	0.71721316759074	0.583089225906211	608.909945841591	13.78509824784	1.59270966956183	0.934196820066862	-0.91948550466218	-0.000853721961318277	-0.00621229926472011
0.76	0.774783770554274	0.581152616195367	608.599205262713	13.7730188095863	1.55068164307924	0.938683941709443	-0.922631501836193	-0.000859522694360626	-0.00627897479584083
0.77	0.783731710749481	0.588723255033481	608.537620115298	13.7684317029627	1.52961913010032	0.940139905281353	-0.923898432470358	-0.000862366072004073	-0.00631230793584958
0.78	0.756820884191976	0.602939263459381	608.737402517398	13.7706440870602	1.52846507890446	0.940280641594575	-0.924700777508139	-0.000863866352317277	-0.00631403709214051
0.79	0.706163255939817	0.6212473435743	609.175472893698	13.7771667415304	1.54493865608295	0.940614230891296	-0.926260568329794	-0.000867254619396629	-0.00628779738939861
0.8	0.640180250166144	0.641991292221536	609.793401749639	13.7841422070694	1.57614816090063	0.941884294655932	-0.929121781250059	-0.000876668852330287	-0.00623810334743308
0.81	0.562837643288498	0.664622904106851	610.506729137882	13.7871952527318	1.619059039258	0.943793822415763	-0.932892321725742	-0.000896104036150036	-0.00616960650258358
0.82	0.475052930884824	0.68949512005655	611.221929438874	13.7824926249412	1.67068590739624	0.945105567265496	-0.93631203596536	-0.000928308608275197	-0.00608684012207678
0.83	0.377421258691337	0.717332911450289	611.856700292205	13.7677063139798	1.72801013881406	0.944086688531746	-0.937634192334117	-0.000973967790218744	-0.00599443269319649
0.84	0.273004896841746	0.748583875457684	612.357871116083	13.7425743488674	1.78775747556457	0.939144123928904	-0.935196010785652	-0.00103146180620084	-0.00589754579081891
0.85	0.168986037991223	0.782885054080019	612.711550898108	13.7088609634601	1.8462447445913	0.929429107342141	-0.927984492426397	-0.0010973214909078	-0.00580216915570886
0.86	0.076444343307028	0.818833653461723	612.942167661785	13.669706291575	1.89948379057716	0.915201071429304	-0.916004899762625	-0.00116727085312185	-0.00571494799724603
0.87	0.00821446517138192	0.854141613061937	613.10026995957	13.6285587254538	1.94361867353247	0.897828244008046	-0.900330213817211	-0.00123753387602199	-0.00564241518376468
0.88	-0.0245327971716191	0.886132545407234	613.242438389615	13.588023828653	1.97561598326795	0.879430344219186	-0.882822095824703	-0.00130598201734966	-0.00558977294204999
0.89	-0.015882150019949	0.912446257178412	613.409309072402	13.548990009921	1.99399580484902	0.862289346945382	-0.865623933057678	-0.00137275419840566	-0.00555959837106662
0.9	0.032257119605542	0.931771915291414	613.608623614412	13.5102986264591	1.99933960975124	0.848225004024383	-0.850595310876393	-0.00144016572788463	-0.00555093625604786
0.91	0.109508024065446	0.944433888019345	613.808965362275	13.4690557380316	1.99436258819196	0.838132397379493	-0.838864682721931	-0.00151195452438346	-0.00555915387299233
0.92	0.198642153230722	0.952688776276261	613.94669416277	13.4214970622492	1.9834710572097	0.831815566190701	-0.830626864739877	-0.00159210081145011	-0.00557670041055558
0.93	0.279125698752943	0.960641832741125	613.944498270617	13.364172557766	1.97189029026054	0.828150718336119	-0.825226479640603	-0.00168354460554743	-0.00559462486591095
0.94	0.331708339402535	0.973747950821518	613.736263421337	13.2951432449936	1.96458646477605	0.825509411148519	-0.821477795465434	-0.00178711204518589	-0.00560446185636104
0.95	0.342869183709618	0.997928784970105	613.290841623254	13.2148846950473	1.96527349890114	0.822297643753932	-0.818103466952418	-0.00190088388289333	-0.00559997421301228
0.96	0.307961666968429	1.03841802669811	612.627477981946	13.1266573656992	1.97577201221092	0.817440931203012	-0.814147995391809	-0.00202014026214337	-0.00557827972870839
0.97	0.232230300601721	1.09853563181846	611.818053590431	13.0362175309075	1.99588255882512	0.81067275217417	-0.80924157649529	-0.00213791763633953	-0.00554007221372915
0.98	0.129409368944935	1.17866332828402	610.975147624553	12.9508875190685	2.02378137371773	0.8025533367938	-0.803647712289019	-0.00224611417973197	-0.00548891706803939
0.99	0.0182186946647093	1.27570756023295	610.229005464994	12.8781589644871	2.05679112220833	0.794234349582846	-0.798103331096654	-0.00233697078379635	-0.00542987637393322
1	-0.082399905244953	1.38325805697147	609.699580798877	12.8241354563737	2.0922702595215	0.787063911536737	-0.793527563398673	-0.00240464489454884	-0.00536791232319905
1.01	-0.158130990848994	1.49248000823784	609.471005313705	12.7921905075861	2.12833854283197	0.782170511214167	-0.790712229759538	-0.00244652019114244	-0.00530656727810386
1.02	-0.202988615311432	1.5935628633318	609.574851186649	12.7821884572791	2.16422289317611	0.780160605526518	-0.790102082884894	-0.00246390456624135	-0.00524730604410045
1.03	-0.220885118445409	1.67737147613506	609.985798756227	12.7904818476112	2.20014475660218	0.78101640868327	-0.791729693102273	-0.00246189040630784	-0.00518966927852504
1.04	-0.224572994765919	1.73688515823782	610.629754763312	12.8106912727133	2.23682857208283	0.784205781029395	-0.795305993725002	-0.00244836579432262	-0.00513211047397516
1.05	-0.232118165065023	1.76810040295575	611.401242106679	12.8350596242904	2.27483376522465	0.788941883364292	-0.800407355752336	-0.0024324038837662	-0.00507317164803328
1.06	-0.261721823709895	1.77027780492945	612.184955031513	12.8560276570794	2.31395701897888	0.794482082530809	-0.806666139998566	-0.00242242945615712	-0.00501256967921759
1.07	-0.326208075335365	1.74564169028046	612.876170603552	12.8676514114166	2.3529058541859	0.800349607802563	-0.813876419532997	-0.00242459965582309	-0.00495183765147217
1.08	-0.428683808808427	1.69878950102479	613.396017180836	12.8665737072414	2.38933207137522	0.806398745988092	-0.82196774255501	-0.00244173296695449	-0.00489435500649343
1.09	-0.560661411200822	1.63607470931294	613.69972455947	12.8524226190357	2.42018147483496	0.812710489232355	-0.830861027724129	-0.00247293215175104	-0.00484482654471474
1.1	-0.703322237091452	1.5651017517326	613.778057954323	12.8276686643171	2.44221530992725	0.819375477432658	-0.840277283437026	-0.00251385904292512	-0.00480844597296182
1.11	-0.831727158817013	1.4942909082663	613.653495563895	12.7970726813006	2.45252323893384	0.826268181333691	-0.849598371389515	-0.00255750131537935	-0.00479004512496223
1.12	-0.920900738133335	1.43233921369565	613.373091781029	12.7668802790064	2.44888306716811	0.832922275389023	-0.857866699169814	-0.00259524418649659	-0.00479347447073625
1.13	-0.952117524873006	1.38739750861289	612.999576182325	12.7438888049106	2.4299059888896	0.838579149172533	-0.863960733268784	-0.00261809404127611	-0.00482132234588067
1.14	-0.917622562285118	1.36591400421959	612.601577959088	12.7344724013267	2.39499817306093	0.842413335699335	-0.866913803341927	-0.00261794316650754	-0.00487492698647946
1.15	-0.822476509885395	1.37130100675871	612.243471346971	12.7436372603531	2.34423128729689	0.843865941824772	-0.866281220539268	-0.00258877276668956	-0.00495453307042132
1.16	-0.683082152948847	1.40276513673868	611.975493567868	12.7742032939939	2.27822444833051	0.842967898377791	-0.862429802151728	-0.00252765759881335	-0.00505942965543954
