Time [s]	GRFml [N]	GRFap [N]	GRFv [N]	Mml [N.m]	Map [N.m]	Mv [N.m]	Mfree [N.m]	COPml [m]	COPap [m]
0.01	-2.19284554804539	0.682670874392944	618.773516520323	-5.1432955246701	39.4993356014745	0.294992225106469	-0.320346818447171	-0.000529124828160366	0.0052120848304007
0.02	-2.18983622483503	0.714369252059182	618.748520754134	-5.10435368660291	39.5180565340577	0.289728567301945	-0.317293527437777	-0.000466216229541128	0.00524599261902958
0.03	-2.17847297654274	0.737613723877184	618.721275195853	-5.06236179094906	39.5272160753129	0.288611662934693	-0.317911439243565	-0.000398581852902535	0.00526467957062354
0.04	-2.1518928258816	0.744577193209163	618.681909775083	-5.01359375457409	39.5204158545701	0.29511524957289	-0.325232198853915	-0.000320451827873991	0.0052588041883575
0.05	-2.10594380188236	0.72944111089219	618.61678039215	-4.95474592757946	39.4931748259018	0.311235039920753	-0.340918410432966	-0.000226709162912897	0.00522250546656511
0.06	-2.03959836908841	0.689378132804637	618.512559828105	-4.88364487830798	39.4429270808605	0.337179026342899	-0.365011647592551	-0.000113977879755089	0.00515298522650914
0.07	-1.95478582069538	0.625308584914717	618.362953674514	-4.80017156853878	39.3687051426585	0.3714127823821	-0.396024007366679	1.79466542910012e-05	0.00504931675246273
0.08	-1.85589480202372	0.54215996810942	618.175084225839	-4.70709140795506	39.2707230866833	0.410994858703619	-0.431290240011459	0.000164799813157313	0.00491112617834105
0.09	-1.74918360462283	0.448419053785969	617.972181264803	-4.61041139719035	39.1500914451884	0.452092072506489	-0.46745648867509	0.000317266880122236	0.00473786162259743
0.1	-1.64218484920509	0.354958613047798	617.790437774364	-4.51898707967549	39.0088047467144	0.490562560067009	-0.50099287968363	0.000461553610308973	0.00452909325413509
0.11	-1.5430240140035	0.273364403071184	617.670212170933	-4.44333059037722	38.8499889418452	0.52251857880845	-0.528657364736347	0.000581195639750232	0.0042858034073015
0.12	-1.4595096801826	0.214168656720179	617.644178356503	-4.39383462762746	38.6782498066958	0.544809114462907	-0.547877382875564	0.00065979040276265	0.00401214532907884
0.13	-1.39795165005323	0.185424313964874	617.726510527094	-4.37882758650084	38.4998855904631	0.555380712467937	-0.557034637337237	0.000684023814182311	0.00371687478291632
0.14	-1.36187774189061	0.191912166883932	617.907115683227	-4.40294413373548	38.3227463451365	0.553483705174827	-0.555636090074437	0.000646249693980527	0.00341369930911628
0.15	-1.35102875169921	0.235027868275113	618.153296024307	-4.46621430710222	38.155627987667	0.539699778815832	-0.54434600814527	0.000545993323520566	0.00312012683251178
0.16	-1.36107429784952	0.313165390463599	618.418634996157	-4.56407466362618	38.0072403626666	0.515785351387711	-0.524857732179729	0.000390045681439855	0.00285490094766477
0.17	-1.3843313220459	0.422304562610396	618.656306152175	-4.68825512762439	37.8849328128558	0.484355537168172	-0.499608987593946	0.000191191020129211	0.0026346033169628
0.18	-1.41141830577875	0.556560776696487	618.832356821918	-4.82827467203235	37.7934529763821	0.448467987077606	-0.4713854298199	-3.40514547538806e-05	0.00247031593478453
0.19	-1.43338944742086	0.708615353996448	618.934438019581	-4.97315283871775	37.7340301845896	0.411191378424328	-0.442896106164031	-0.000268088922946497	0.00236526694227257
0.2	-1.44365542327841	0.870108432145807	618.973000969177	-5.11294259928536	37.7040137813938	0.375247511848949	-0.416421086270304	-0.000494717392215738	0.00231412812253023
0.21	-1.43904572454663	1.03214104532299	618.974629155378	-5.23980030022712	37.6971789996725	0.342793599201779	-0.393612944245657	-0.000700931356332202	0.0023041766899789
0.22	-1.41970261185976	1.18596347049694	618.969974025914	-5.34848111839167	37.7046702270401	0.31536737846889	-0.375482780596335	-0.000877872425451787	0.00231802449736029
0.23	-1.38797577361851	1.32377414555284	618.980687413923	-5.43631826767035	37.7164168350084	0.293966532273445	-0.362536740793248	-0.00102095861596085	0.00233720977213103
0.24	-1.34689029044722	1.43942402697783	619.010084144322	-5.50285610705137	37.7227575462319	0.279194139820923	-0.354977570318036	-0.00112941068130468	0.00234575387692898
0.25	-1.29890024636804	1.52880937631099	619.040906843557	-5.54933671777715	37.7159629108439	0.271388722005657	-0.352870272336475	-0.00120545428336438	0.00233284711626863
0.26	-1.24545200307382	1.58986219959818	619.04102137944	-5.57819714109741	37.691358920557	0.270675651112937	-0.356198141077162	-0.00125343891296792	0.00229410249301659
0.27	-1.18745457297941	1.62224272003905	618.975091122008	-5.59265500163972	37.6478266304416	0.276918261342459	-0.364792422152232	-0.0012790210976642	0.00223120817926226
0.28	-1.12628950315472	1.62698353802775	618.818260233665	-5.59638328508417	37.5875738161851	0.289594511832401	-0.378179292797332	-0.00128846188784704	0.00215020478509098
0.29	-1.06470566098365	1.60633497880178	618.567294622609	-5.59322900293704	37.5152272293397	0.307659611242222	-0.395425143352164	-0.00128802361253599	0.00205891684658205
0.3	-1.00697088859677	1.56390431457857	618.245598453723	-5.5869256231343	37.4364492991236	0.32946454997422	-0.415061265276961	-0.00128343269334419	0.0019642221041512
0.31	-0.957988033498483	1.50495213741681	617.900593834173	-5.58077895936958	37.3564035526104	0.352784392304282	-0.435136423734304	-0.00127939834089652	0.00186983120343009
0.32	-0.921583867194308	1.43653976732399	617.594321240193	-5.57735276418537	37.2784403853541	0.374977866171644	-0.453399014055917	-0.00127922203848641	0.0017750920376613
0.33	-0.898623922854863	1.3672162552357	617.389973666342	-5.57822059251014	37.2033246567256	0.393264356852727	-0.467570863562335	-0.00128457311833829	0.00167506819399055
0.34	-0.885788769224301	1.30610713352809	617.33789676627	-5.58386381557214	37.1291827100855	0.405075835384037	-0.475654918712118	-0.00129551487954094	0.00156182766281965
0.35	-0.875669154524302	1.26153757783207	617.464296828911	-5.59377137492588	37.0521471762352	0.408423587489816	-0.476219061061685	-0.00131082792942194	0.0014265855712105
0.36	-0.858354725994351	1.23955835359481	617.764828121526	-5.60674065934369	36.9674877029105	0.402213141383214	-0.468610033037506	-0.00132859827169074	0.0012621449326381
0.37	-0.824095548491841	1.2428332095149	618.203909528783	-5.62131252933341	36.870901443474	0.386445816111785	-0.453066924874011	-0.00134694598416452	0.0010650280981721
0.38	-0.766156612763691	1.27025411301752	618.719513158496	-5.63622591560603	36.7596382419946	0.362263105942503	-0.430719780350505	-0.00136470723501569	0.0008368058869338
0.39	-0.682863060236323	1.31742031351248	619.232480959591	-5.65077020871432	36.6332430301933	0.331819974270456	-0.403475865294661	-0.00138188045517718	0.000584374943971788
0.4	-0.57811081258369	1.37784270696186	619.6590683098	-5.66494981377187	36.4938560673253	0.298008853097023	-0.373812935351064	-0.00139971283220697	0.000319223543205627
0.41	-0.460188493080481	1.44451351463883	619.925133665287	-5.67943811721699	36.3461441604517	0.264086538257332	-0.344511016215585	-0.00142041209877775	5.59626668378277e-05
0.42	-0.339390008506914	1.51137886966244	619.980004336995	-5.69536077037341	36.1969857030382	0.233270574159132	-0.318357097779551	-0.00144657908370405	-0.000189490531625203
0.43	-0.225331873092482	1.57429256407948	619.807606639934	-5.71398676198654	36.0549908704574	0.208366789402878	-0.297851097016319	-0.0014805281687047	-0.000401722215545075
0.44	-0.124947747314987	1.63119967751367	619.432262749036	-5.7364097451807	35.9298494972284	0.191471744534821	-0.284933534345335	-0.00152367324030922	-0.000567400457473333
0.45	-0.0417983508433595	1.68155462134794	618.917012287463	-5.76327779666907	35.8314341076103	0.183774545566568	-0.280754564230497	-0.00157610993990032	-0.000676548151658907
0.46	0.0232406430523408	1.72524724260546	618.353616385519	-5.79459598625212	35.7686029437025	0.185470298146525	-0.285513138331738	-0.00163644849234201	-0.000723526897701832
0.47	0.0704166650905886	1.7615032407326	617.845374552716	-5.82960378208369	35.7477609120466	0.195792255871612	-0.298406389957244	-0.00170188238981217	-0.000707746113490726
0.48	0.0994892228538276	1.78825939987555	617.485981991152	-5.8667297124113	35.7714032440176	0.213163674509538	-0.317728066192388	-0.0017684444517273	-0.000634033873944839
0.49	0.108850291633069	1.8023535814796	617.339149706876	-5.90364335484579	35.8370081240507	0.235455298864262	-0.341129564210851	-0.00183140653879921	-0.000512514785234064
0.5	0.0957887325349389	1.80055191338045	617.423999243975	-5.93743986247801	35.9366805053833	0.26030963822134	-0.366009864652658	-0.0018858002291563	-0.000357809704560452
0.51	0.0577939686123866	1.7810718091873	617.710110397742	-5.96498269534101	36.0578366043653	0.28546857003834	-0.389949406560393	-0.00192704021256862	-0.000187451475930744
0.52	-0.00565279431086578	1.74499516092756	618.12380881719	-5.98338616701406	36.1849728388611	0.309031774064956	-0.411073826271841	-0.00195159893259578	-1.95979578939132e-05
0.53	-0.0915588759756341	1.69692269637709	618.564478669106	-5.99055233059065	36.3022558599582	0.329590968112616	-0.428246220009691	-0.00195761734374655	0.000129638762320694
0.54	-0.19284214646785	1.64444014395542	618.927168245797	-5.98561736216741	36.3964034681123	0.346226700913205	-0.441042085838688	-0.00194527906734088	0.000248731621083742
0.55	-0.299039497064787	1.59638682580762	619.126203307437	-5.96914777467892	36.4591936049629	0.358404163599791	-0.449538768770361	-0.00191677276336544	0.000332564676980507
0.56	-0.398217080562913	1.56038707753964	619.114308012658	-5.9429799381385	36.4889920705527	0.36583916672913	-0.454018018907088	-0.00187575328345646	0.00038307646159691
0.57	-0.479610272747087	1.54044123444034	618.892854556331	-5.90971051071295	36.4909202794486	0.368407778858673	-0.454706622711369	-0.00182637641882821	0.00040852549970527
0.58	-0.536288573395526	1.53543293648223	618.510987426935	-5.87197925902331	36.4756261901889	0.36614115951693	-0.451654395365192	-0.00177216463232155	0.000421542056209923
0.59	-0.567119092464864	1.53915197222647	618.053954099801	-5.83177958615703	36.4569739775637	0.359295910596752	-0.444783071881101	-0.00171507431493856	0.000436460050630583
0.6	-0.577487502539837	1.54193923641875	617.623415354526	-5.79003726484908	36.4492286971837	0.3484447332236	-0.434063473230195	-0.00165510901498855	0.000466613531413029
0.61	-0.578566742821744	1.53350883624488	617.314269531635	-5.74660399653969	36.4644084921367	0.334514823166125	-0.419725129972309	-0.00159064789680907	0.000522265771928487
0.62	-0.585298870840957	1.50609227029469	617.193240989583	-5.70065502288329	36.5103873513662	0.318721326192741	-0.40239416587383	-0.00151939605606466	0.000609616878615049
0.63	-0.61355940656513	1.45692676918663	617.284022884165	-5.6513242827912	36.5900913238281	0.302391481705849	-0.383092675173418	-0.00143961975291018	0.000730979934481402
0.64	-0.677119871226055	1.38931227365002	617.562252609612	-5.59832144376026	36.7018203034385	0.286729277016358	-0.363096840757528	-0.00135120808200584	0.000885847162059139
0.65	-0.784990423845023	1.31191126070785	617.96138501472	-5.54228929380971	36.8404433998586	0.272604978478297	-0.343712010660809	-0.00125615769904985	0.00107231408648722
0.66	-0.939560378159653	1.23650502767972	618.388107983874	-5.4847711731813	36.9990399198172	0.260452198709041	-0.326054728755402	-0.00115829197798489	0.00128827805197435
0.67	-1.13575390008528	1.17487296599632	618.743839883319	-5.42781953292294	37.1705283110036	0.25031693535089	-0.31092280646975	-0.00106231716363081	0.00153198968807444
0.68	-1.36126638071909	1.13569385655135	618.947497573727	-5.37342008434808	37.3489270362345	0.242043993843226	-0.298791751895345	-0.000972568728828227	0.00180184352264401
0.69	-1.59787136253308	1.12232638772469	618.954402331212	-5.32297101774804	37.530067189566	0.23553073499008	-0.289919759755685	-0.000891909357742637	0.00209562421693515
0.7	-1.82374527100471	1.1320417947879	618.766970215928	-5.2770179721842	37.7117545277803	0.230948741264738	-0.284498402014274	-0.000821163576102513	0.00240964949513822
0.71	-2.01666850715927	1.15685127584196	618.434573186733	-5.23532336915406	37.8935014102341	0.228842713063035	-0.282770169434386	-0.00075924890287693	0.00273828677862581
0.72	-2.15777589114858	1.18562254644944	618.04232691399	-5.19719946841476	38.0759950344192	0.23005982423786	-0.285052199308706	-0.000703886164538314	0.00307416192378207
0.73	-2.2352767447727	1.20683964853756	617.691086833451	-5.16192347492521	38.2604518339663	0.235525734349703	-0.291649199738181	-0.000652556135369964	0.00340909479459961
0.74	-2.24735766934848	1.21122252364186	617.473072147795	-5.12902638748578	38.4479638300576	0.24594223250539	-0.30268960811731	-0.000603298989192091	0.0037354997273546
0.75	-2.20345920045311	1.19352437821204	617.448774457441	-5.09831383345097	38.6389037397035	0.261514251381841	-0.317957028321895	-0.000555048170746697	0.00404778720329785
0.76	-2.12336571190325	1.15312670743095	617.630777178926	-5.06960682569244	38.8324367079299	0.281808124184224	-0.336798647180798	-0.000507406113571252	0.00434326216833103
0.77	-2.03403632538759	1.09344579963146	617.978711074245	-5.04232823972475	39.0261840216138	0.30579946174024	-0.358168500426429	-0.000460016071315184	0.00462214359780411
0.78	-1.96468897468304	1.02051013428453	618.407035658917	-5.01514947858461	39.2160859063173	0.332102240999629	-0.380813152925482	-0.000411864259704076	0.00488658854232954
0.79	-1.94113350049702	0.941250119097414	618.80422886143	-4.9859135091348	39.3965065399788	0.359303673794373	-0.403548140508383	-0.000360889870130832	0.00513891916005882
0.8	-1.98057240348924	0.862018552885668	619.059060649159	-4.95196077831088	39.5606106589635	0.386286522069743	-0.425528360436942	-0.000304170090483891	0.00537953573933614
0.81	-2.08799252803115	0.787675287005725	619.08769996027	-4.91083380998941	39.7010161807296	0.412419155366092	-0.446404786906141	-0.000238723211548608	0.00560516675757472
0.82	-2.25491384700804	0.72132027196633	618.855017207394	-4.86117918246818	39.8106889011123	0.437537331925749	-0.466292172793163	-0.00016271820659286	0.00580809364299484
0.83	-2.4607664508636	0.664546292649253	618.384757139605	-4.80356183161707	39.8839923684036	0.461717000469042	-0.48553922477052	-7.66902872678665e-05	0.00597677163258992
0.84	-2.67665797682424	0.617968906752947	617.755962517821	-4.74089899273485	39.9177446886905	0.484917238482817	-0.504369599759249	1.56866899395647e-05	0.00609788925702626
0.85	-2.87085197108734	0.581786836691253	617.086427009459	-4.67831813628616	39.9120823008888	0.506625818414921	-0.522517972372929	0.000107605248325315	0.00615946972268666
0.86	-3.01494254702363	0.556200395244222	616.507146044814	-4.62241430726656	39.8709149649001	0.525645059807756	-0.538996584666009	0.000190001363460146	0.00615425556315585
0.87	-3.08951423199807	0.541619462322822	616.133876465819	-4.58006824314979	39.8017988450941	0.54010990312333	-0.55208855874221	0.000253119876001517	0.00608245958476977
0.88	-3.08807142726576	0.538681923957813	616.042467681824	-4.55712280167738	39.7151603322546	0.547751377069315	-0.559589989862037	0.000288366906522119	0.00595307627575531
0.89	-3.01827468545684	0.548153117877306	616.253494234136	-4.55725638894992	39.6229517824823	0.546337213801795	-0.559242103037671	0.000289964230242079	0.00578330618544493
0.9	-2.90005759283639	0.57078308653564	616.729271630352	-4.58132890192156	39.5369707851608	0.534167116650116	-0.549237039154613	0.000255991303302894	0.0055961460804404
0.91	-2.76094609392531	0.607173273062948	617.3832847199	-4.62733544146191	39.4671797117682	0.510490528322302	-0.528664699155555	0.000188590667386412	0.00541668802412243
0.92	-2.62966949220823	0.657665967732876	618.099227622738	-4.69093585764512	39.4203853468266	0.475748900275268	-0.497795008603342	9.33504378981542e-05	0.00526800367146996
0.93	-2.52967813312717	0.722235134485821	618.754938761392	-4.7663863014501	39.3995652681228	0.431605192509512	-0.458145423108647	-2.19133147836281e-05	0.00516757035860205
0.94	-2.47424716342102	0.800338003489462	619.245887044469	-4.84761846964533	39.4039721634135	0.380784942924622	-0.412343951700341	-0.000148626003120489	0.00512500697345586
0.95	-2.46438419517611	0.890690527931531	619.503519252965	-4.92920475243252	39.4299494321957	0.326792535853325	-0.363841126323648	-0.000278805336953902	0.00514149683030457
0.96	-2.48991314783593	0.990961477076588	619.50538785047	-5.00700340100239	39.4722083061856	0.273572123948263	-0.316538368330075	-0.000405993219392942	0.0052108096501684
0.97	-2.53317758599411	1.09743949778712	619.276027728248	-5.07837636658778	39.5252058613643	0.225160052545431	-0.274388003836881	-0.000525603746943326	0.00532144279928043
0.98	-2.57412567493687	1.20480158088341	618.879486976214	-5.14199037468724	39.5842617618871	0.185342623026394	-0.240996567836547	-0.000634691669256116	0.00545920042694814
0.99	-2.59532230779172	1.30616694724058	618.405793913795	-5.19732522808058	39.6461593377632	0.157311398414732	-0.219246152023431	-0.000731315158944423	0.00560956329554191
1	-2.58569670180488	1.39361187200747	617.954241914888	-5.2440956091753	39.7091538493545	0.143312493286856	-0.210949942703583	-0.000813794973003712	0.00575942869957513
1.01	-2.54240091048434	1.45921534276561	617.616269808751	-5.28181601877257	39.7724930919559	0.144315868363309	-0.216576503405946	-0.000880212332350361	0.00589810584654554
1.02	-2.47076217522473	1.49651216783611	617.460227256265	-5.30968484220529	39.8356804424697	0.159769466287083	-0.235099314865074	-0.000928406391250691	0.00601770334054819
1.03	-2.38273689040711	1.50201379664021	617.519821146719	-5.32683978228819	39.8977432178228	0.187526803233288	-0.264035097007255	-0.000956535627740673	0.00611314714744832
1.04	-2.2944259778811	1.47631748426181	617.787746274344	-5.33288240871789	39.9567147999647	0.224025083075609	-0.299713160094559	-0.000964017790984095	0.0061820077820342
1.05	-2.2231460106895	1.42434979496291	618.215802611585	-5.32844538713806	40.0094356732862	0.264738806602807	-0.337768304994896	-0.00095246150419015	0.00622416876633286
1.06	-2.18440909906181	1.35450902296884	618.722339786002	-5.31553789289379	40.0516765462277	0.304855301303168	-0.373786308914114	-0.000926145133056777	0.00624125272456383
1.07	-2.18908410564392	1.27682796218878	619.206816014546	-5.29747482756831	40.0785233339156	0.340041881681369	-0.403977499240859	-0.000891725578066493	0.00623573060437338
1.08	-2.24104917133528	1.20064952762703	619.569604509276	-5.27834904557026	40.0849475469428	0.367129855269184	-0.425732459412477	-0.000857131320788018	0.0062097869172808
1.09	-2.33575255040467	1.1325449458215	619.733368298613	-5.2621821886343	40.0664974949874	0.384547709381067	-0.437935005623852	-0.000829905811014608	0.00616422151042939
1.1	-2.4601531689587	1.07519394096807	619.661104574993	-5.25201997238076	40.0200546468505	0.392395071411549	-0.440965599953045	-0.000815496904281066	0.00609780776188062
1.11	-2.59438872594313	1.0276601028489	619.36602987659	-5.24927372318132	39.9445833694778	0.392142627893416	-0.43640477722636	-0.000816047643876439	0.00600749069985018
1.12	-2.71516533827181	0.987012394656798	618.910108211211	-5.25354087587593	39.8417621791699	0.386042544552265	-0.42651789986723	-0.000830111642383891	0.00588957153307201
1.13	-2.80034546334268	0.950735267861891	618.390874822109	-5.26298894476072	39.7163449138016	0.376409992827079	-0.413650769826613	-0.000853438802660866	0.0057416637634351
1.14	-2.83370759599748	0.919034116407071	617.919423496953	-5.27520937761942	39.5760948188274	0.364968293109132	-0.399680588444855	-0.000880645103063848	0.005564864989267
1.15	-2.80858629735152	0.896126220452448	617.594959575252	-5.28829446232397	39.4311875876894	0.352430024132579	-0.385647925557828	-0.000907296499694565	0.00536541501230287
1.16	-2.72924793685607	0.889936726771689	617.48233567106	-5.30180697512118	39.2930907234077	0.338420081895715	-0.371648766107599	-0.000931786058135375	0.0051551902635868
