Time [s]	GRFml [N]	GRFap [N]	GRFv [N]	Mml [N.m]	Map [N.m]	Mv [N.m]	Mfree [N.m]	COPml [m]	COPap [m]
0.01	30.8266196782647	-3.72510490332246	670.390038103393	-72.8361321047155	9.44947978900214	-3.0386332370387	0.36370535438289	0.00488881941996445	0.0270591622376913
0.02	30.4922702127428	-3.56345241767275	672.500736977848	-72.5808751982134	9.52169065334488	-3.02032927478189	0.322026041608596	0.00495178541402226	0.0263513803216117
0.03	30.1627834796902	-3.40556781406618	674.580362194709	-72.3292864902709	9.59238570956943	-3.00199151248594	0.281731854997046	0.00501324273173488	0.0256544764040079
0.04	29.843692208074	-3.25477474012331	676.595440659394	-72.0850183634904	9.66020254877375	-2.98379276252687	0.243580480598598	0.00507186193123401	0.0249790803642308
0.05	29.5402875192806	-3.11418041177422	678.512262697453	-71.851200809039	9.72395016567989	-2.96593569150745	0.20822282029014	0.00512656929536618	0.0243350437265053
0.06	29.2574426781264	-2.98654478931893	680.297849549152	-71.6303211251195	9.7826632197111	-2.9486533304762	0.176176855207618	0.00517660682684271	0.0237311108945595
0.07	28.9994512098717	-2.87416540737876	681.921069546547	-71.4241543875622	9.83563949066863	-2.93220574265731	0.147810332555803	0.00522156453999742	0.0231746465943314
0.08	28.7698857488304	-2.77878342927973	683.353869452378	-71.2337496116671	9.88245815503387	-2.9168726128834	0.123332942443078	0.00526138245083155	0.0226714320807304
0.09	28.5714831873343	-2.70151514274702	684.572563633395	-71.0594716633577	9.92297821656106	-2.90294199780865	0.10279787813263	0.0052963226155978	0.0222255384892407
0.1	28.4060606597613	-2.64281162168774	685.559103248165	-70.9010941086429	9.95731813748739	-2.89069593015175	0.0861119749428737	0.00532691439012306	0.0218392810210081
0.11	28.2744656662833	-2.60244775647552	686.302233168167	-70.7579337632008	9.98581927409872	-2.88039395529687	0.0730530603332245	0.00535387850912807	0.0215132528363294
0.12	28.1765622689049	-2.57954039163606	686.798437942841	-70.6290141160455	10.008996987353	-2.87225595702553	0.0632927579049959	0.0053780374173023	0.0212464329988218
0.13	28.1112538389202	-2.57259397252174	687.052580971895	-70.5132423680409	10.0274841741625	-2.86644577595703	0.0564227846804074	0.00540022039688469	0.0210363589130017
0.14	28.0765413625937	-2.57957093719122	687.078153483868	-70.4095837570009	10.0419723856838	-2.86305712781655	0.0519827560907402	0.00542117237682463	0.0208793506889386
0.15	28.0696148813447	-2.59798312295662	686.897071362082	-70.3172172243749	10.0531556459211	-2.86210319060207	0.0494876418360758	0.00544147488530736	0.0207707728878506
0.16	28.0869743105216	-2.62499970080564	686.538986880412	-70.2356582747722	10.0616815796373	-2.86351096408631	0.0484532627537018	0.00546148647923159	0.0207053181698666
0.17	28.1245746980495	-2.65756660728951	686.040116846376	-70.1648379264799	10.0681135640606	-2.8671211364256	0.0484185442761212	0.00548130824780504	0.0206772973941863
0.18	28.177989995724	-2.69253210979351	685.441625765154	-70.1051306777992	10.0729064273558	-2.87269375362492	0.0489636073802898	0.00550077776951244	0.0206809215558419
0.19	28.2425886599768	-2.72677301371995	684.787639355247	-70.0573290646796	10.0763968445209	-2.87991951611651	0.0497231498727911	0.00551949235597301	0.0207105623942
0.2	28.3137139068449	-2.75731609662774	684.12299689088	-70.0225672499682	10.0788081568937	-2.88843606268856	0.0503949239895602	0.00553685972359568	0.0207609803962598
0.21	28.3868612412946	-2.78144963393281	683.490877418612	-70.0022007352876	10.0802679941942	-2.89784818426056	0.0507434337636789	0.00555217160297013	0.0208275111011587
0.22	28.4578459791875	-2.79682036245018	682.930452332398	-69.9976533133978	10.0808359268154	-2.90775057322228	0.0505992483294076	0.0055646934579623	0.0209062030023687
0.23	28.5229538865818	-2.80151190779975	682.474723196681	-70.0102454263552	10.0805375188679	-2.91775148616084	0.0498545517983216	0.00557376168144386	0.0209939028995252
0.24	28.5790687701887	-2.79410156853652	682.148698035035	-70.0410198924046	10.0794006583268	-2.92749559788985	0.0484557257515281	0.00557887858497427	0.021088287254309
0.25	28.6237718465076	-2.77369338222906	681.96804147214	-70.0905813505319	10.0774899442365	-2.936684361618	0.0463938855678573	0.00557979537509913	0.0211878409228309
0.26	28.6554089633109	-2.73992656166615	681.938305052212	-70.1589647069705	10.0749352106516	-2.94509236181078	0.0436943629813897	0.00557657418788466	0.0212917874901221
0.27	28.6731231988603	-2.69295963352114	682.054805637075	-70.2455454400282	10.0719509259471	-2.9525784400299	0.0404061374791493	0.00556962209419798	0.0213999781699173
0.28	28.6768519600543	-2.63343187428609	682.303174721517	-70.3490010346198	10.0688441565404	-2.95909076721254	0.0365921598470951	0.00555969261903502	0.0215127486377507
0.29	28.6672893661545	-2.56240484599143	682.660553132149	-70.4673283833112	10.0660099340843	-2.96466549779521	0.0323213757460143	0.00554785345284623	0.0216307549859439
0.3	28.6458163554133	-2.48128790896067	683.097357611612	-70.5979170888233	10.0639141075941	-2.96941913530114	0.0276630456123014	0.00553542231313394	0.0217548009924609
0.31	28.6144024981547	-2.39175245385616	683.579502024719	-70.7376736582161	10.0630649839709	-2.97353522596566	0.0226836800558132	0.00552387596867301	0.0218856689260119
0.32	28.5754848525163	-2.29564018229779	684.070919920211	-70.8831870216139	10.0639761534165	-2.97724643719758	0.0174465904848987	0.00551473994109219	0.0220239651337228
0.33	28.5318302760401	-2.19487102143597	684.536209979353	-71.030922037622	10.0671237652197	-2.98081343494414	0.0120137274135731	0.0055094681171583	0.0221699897815939
0.34	28.4863883390066	-2.09135615118358	684.943213733211	-71.1774249977264	10.0729020904015	-2.98450221844617	0.00644918487658665	0.00550932232446529	0.0223236375730025
0.35	28.4421423245163	-1.98692114683097	685.265337099151	-71.3195238533187	10.0815814337279	-2.98856168153748	0.000823529234859392	0.00551526184173001	0.02248433336939
0.36	28.4019657204049	-1.88324341552118	685.483443925321	-71.4545060871368	10.0932723219083	-2.9932031366587	-0.00478200304036899	0.00552785192132001	0.0226510037164432
0.37	28.3684911104469	-1.78180698120102	685.587179839499	-71.58025883523	10.107899411786	-2.99858336330813	-0.0102723830961229	0.00554719884122102	0.0228220826412228
0.38	28.3439974859943	-1.68387632322563	685.575626180038	-71.695358908275	10.1251877758793	-3.0047924410304	-0.0155375516460217	0.00557291694460131	0.0229955479558556
0.39	28.3303207798271	-1.59048949377634	685.457233596359	-71.799104517059	10.1446632020069	-3.01184722352729	-0.0204536308964198	0.00560413073403558	0.0231689828059222
0.4	28.3287909504757	-1.50246923821917	685.249039277733	-71.8914854334054	10.1656669775941	-3.0196908391865	-0.0248868345118827	0.00563951251756932	0.0233396563590887
0.41	28.3401973146435	-1.42044943661865	684.975226504174	-71.9730936024505	10.1873844179493	-3.02819810424604	-0.0286999727916621	0.00567735349577161	0.0235046172798622
0.42	28.3647821459136	-1.34491298746316	684.665136016204	-72.0449814174334	10.2088852449098	-3.03718625026679	-0.0317611102062198	0.00571566366982856	0.0236607938621058
0.43	28.402260941304	-1.27623636788538	684.350881522593	-72.1084795288619	10.2291729257337	-3.04642993851695	-0.0339536434875561	0.00575229368536869	0.0238050952522824
0.44	28.4518663100299	-1.21473560877003	684.064753038092	-72.1649897809383	10.2472393261768	-3.05567919628814	-0.0351868618877614	0.0057850698642395	0.0239345089613183
0.45	28.5124112544889	-1.16070836956054	683.836609066381	-72.2157713191168	10.2621205797054	-3.064678692054	-0.0354059463927323	0.0058119323866629	0.0240461907286534
0.46	28.582366765241	-1.11446720280949	683.691460407333	-72.2617388666205	10.2729499641798	-3.07318668537543	-0.0346003681820712	0.00583106603243168	0.0241375437035237
0.47	28.6599481871529	-1.0763599410601	683.647434288927	-72.3032915212362	10.27900381654	-3.08099204938788	-0.0328097533125412	0.00584101319981013	0.0242062848142036
0.48	28.7432047513343	-1.04677435917357	683.714278581858	-72.340188206703	10.2797370840208	-3.08792796220209	-0.0301264760118982	0.00584076015167375	0.0242504970926543
0.49	28.8301069951719	-1.02612577020284	683.89252422464	-72.3714822877398	10.2748059586101	-3.09388118063285	-0.0266945063522302	0.00582978954593032	0.0242686675956856
0.5	28.918627469766	-1.01482788148614	684.173372875627	-72.3955231063288	10.2640760978801	-3.09879621732083	-0.0227043452699273	0.00580809513073424	0.0242597113833365
0.51	29.0068110938444	-1.01324893113087	684.539320204031	-72.4100266990023	10.2476161106852	-3.10267420485376	-0.0183842055749933	0.00577615775611257	0.0242229827268726
0.52	29.0928326689874	-1.02165669845297	684.965467588406	-72.4122121571814	10.2256771814827	-3.10556670761267	-0.0139879166221881	0.00573488523053632	0.024158275253149
0.53	29.1750403226486	-1.04015729606811	685.421420871716	-72.3989944723173	10.1986608216721	-3.10756519224023	-0.00978031855207375	0.00568552167112245	0.0240658130226824
0.54	29.2519848876236	-1.06863358481637	685.873628533574	-72.3672197333258	10.1670776768363	-3.1087872516571	-0.00602114685976054	0.00562953453439758	0.0239462345451324
0.55	29.3224363570583	-1.10668951246112	686.287976883552	-72.3139246368947	10.1315010064961	-3.10936096195202	-0.00294856936411246	0.00556848923178302	0.023800571462403
0.56	29.3853894819491	-1.15360660664898	686.632439449256	-72.2365997704571	10.092518830932	-3.10940891138335	-0.000763609206877503	0.00550392200470894	0.0236302231325321
0.57	29.4400612312011	-1.20831823751993	686.879573288073	-72.1334352603312	10.0506887772925	-3.10903346210851	0.000383340983670474	0.00543722154926274	0.0234369277276807
0.58	29.4858831651205	-1.26940613550896	687.008666877781	-72.0035282397473	10.0064993532398	-3.1083046861496	0.000402839431290346	0.00536952882763745	0.0232227298417004
0.59	29.5224917626554	-1.33512207841346	687.00737161602	-71.8470341383666	9.9603407587471	-3.10725216787191	-0.000727298530280418	0.00530166273792997	0.0229899441092485
0.6	29.5497194018839	-1.40343576062613	686.872689622292	-71.6652478427928	9.91248747013804	-3.10586150774084	-0.00296025354812757	0.00523407702354981	0.022741114063512
0.61	29.5675880627489	-1.4721077696215	686.611241263506	-71.4606060175383	9.86309377185796	-3.10407592780802	-0.0061832053602011	0.00516685118546123	0.0224789654520883
0.62	29.5763069678214	-1.53878448417444	686.238792582511	-71.2366078978001	9.8122022628074	-3.1018029066496	-0.0102249031906756	0.00509971540517302	0.0222063534879234
0.63	29.5762743890236	-1.60110974747941	685.779081081155	-70.9976581906884	9.75976422446445	-3.09892530228203	-0.0148672632692626	0.00503210677377687	0.0219262039865963
0.64	29.5680828278653	-1.65684652291357	685.262033456011	-70.748841842163	9.70566970498128	-3.09531599768317	-0.0198601445707878	0.0049632516242981	0.0216414489545288
0.65	29.5525258314134	-1.70400055772176	684.721516515967	-70.4956458469744	9.6497843343914	-3.09085476280789	-0.0249382204117002	0.00489226664835364	0.0213549578555457
0.66	29.5306039395586	-1.74093747492693	684.192798838157	-70.2436475556908	9.59198931089929	-3.08544579994181	-0.0298387229322233	0.00481826990500536	0.021069466412978
0.67	29.5035267613444	-1.7664847573838	683.709922857991	-69.9981917138739	9.53222073351677	-3.07903434636342	-0.0343187969967027	0.00474049194596904	0.0207875053373932
0.68	29.4727080169434	-1.78001080014203	683.303193291833	-69.7640795208733	9.47050452168922	-3.0716207582061	-0.0381712570755383	0.0046583771997536	0.0205113317650239
0.69	29.4397505952848	-1.78147455368662	682.996977583932	-69.5452922263181	9.40698354949851	-3.06327068819926	-0.0412376846837135	0.00457166653300145	0.0202428664266683
0.7	29.4064192682958	-1.77144117337669	682.807988293219	-69.3447692457816	9.34193429509531	-3.05412028159328	-0.0434180190605681	0.00448045351439033	0.0199836396284762
0.71	29.3745996369967	-1.75106139437702	682.744178079335	-69.1642566716169	9.27577120631459	-3.044375722424	-0.0446760613229725	0.0043852092237328	0.0197347490023276
0.72	29.3462430920079	-1.72201489449642	682.804328381852	-69.0042367066891	9.20903803396092	-3.03430693157667	-0.0450406127029317	0.00428677326227875	0.0194968316585004
0.73	29.3232989498899	-1.68642049451536	682.97835701342	-68.8639423848487	9.14238649658633	-3.02423570900042	-0.0446022809661821	0.00418631164524869	0.0192700528311436
0.74	29.3076363524845	-1.64671847488343	683.248312218954	-68.7414554557851	9.07654372228686	-3.01451908339237	-0.0435062958893921	0.00408524517940729	0.0190541123429506
0.75	29.3009598520837	-1.60553236728294	683.589965950377	-68.6338790222854	9.01227087522272	-3.00552904407401	-0.0419419546686002	0.00398515445004737	0.0188482692497143
0.76	29.3047237142389	-1.56551914386182	683.9748716047	-68.5375709269253	8.95031613895091	-2.99763014715	-0.0401295512704457	0.00388766942865494	0.0186513839143205
0.77	29.3200507293402	-1.52921765020081	684.372715119917	-68.4484194369357	8.89136573368372	-2.99115668488278	-0.0383058111648042	0.0037943528225348	0.0184619755968851
0.78	29.3476616369063	-1.49890533463036	684.753766062652	-68.3621398203539	8.83599685009158	-2.98639116714073	-0.0367089390804011	0.00370658657924236	0.018278292554497
0.79	29.3878210725193	-1.47647279664968	685.091228969555	-68.2745691709893	8.78463627246905	-2.98354578172891	-0.0355643828268192	0.00362547047891976	0.0180983907495836
0.8	29.4403052300176	-1.46332444847922	685.36330521451	-68.1819374108595	8.73752804866169	-2.98274828296888	-0.0350723194903612	0.00355174060658923	0.0179202166829725
0.81	29.5043952213912	-1.46031174778103	685.554801209556	-68.081094715851	8.6947128773646	-2.98403342262027	-0.035397689614438	0.00348571383708145	0.0177416896702581
0.82	29.578898490093	-1.46770315450239	685.658157666808	-67.969679470878	8.65602098128919	-2.98734061114827	-0.0366633577665411	0.00342726243831558	0.0175607790892386
0.83	29.6621987067726	-1.4851923644518	685.673823696075	-67.8462159376042	8.62107919053501	-2.99251801466928	-0.0389466890597388	0.00337582064771396	0.0173755727073972
0.84	29.7523324974041	-1.51194367231478	685.609954586389	-67.7101366865591	8.58933185889408	-2.99933279231607	-0.042279529939766	0.00333042273451831	0.0171843330700105
0.85	29.8470892888704	-1.5466707195464	685.481468612053	-67.5617310202582	8.56007416576078	-3.00748670029394	-0.0466512975726596	0.00328976975480053	0.0169855399799374
0.86	29.944128677577	-1.5877425807084	685.308551388406	-67.4020265874679	8.53249540394798	-3.01663587082525	-0.0520146418663083	0.00325232006575387	0.0167779182096066
0.87	30.0411081939943	-1.63330930361023	685.114741731823	-67.2326166746547	8.505729095186	-3.02641325004598	-0.0582929674811926	0.0032163968296925	0.0165604506465346
0.88	30.1358132876663	-1.68143777477124	684.924766861577	-67.0554498334343	8.47890627038543	-3.03645197493087	-0.0653890016823826	0.00318030435161378	0.0163323780057882
0.89	30.2262808945029	-1.73024821553457	684.762314306271	-66.8726012328033	8.45120803980333	-3.04640790227639	-0.0731935702102067	0.00314244429866151	0.0160931870002523
0.9	30.3109081269662	-1.77804175570763	684.647931452803	-66.6860462047129	8.42191367388609	-3.05597957865669	-0.0815937921895385	0.00310142276191775	0.0158425894278609
0.91	30.3885384528859	-1.82341035654506	684.597231065349	-66.4974558121803	8.39044080845245	-3.064924153695	-0.0904800152281905	0.00305613980582634	0.0155804950200731
0.92	30.4585191525452	-1.86532178793918	684.61955344628	-66.3080319844897	8.35637504364939	-3.0730680734668	-0.0997509687262718	0.00300585459700968	0.0153069811094741
0.93	30.5207257694999	-1.90317428724336	684.717195628778	-66.118396043127	8.3194870693535	-3.08031181995842	-0.109316801630111	0.00295022130944468	0.0150222622203317
0.94	30.5755515593176	-1.93681778820342	684.885268569699	-65.9285396103682	8.27973644865873	-3.08662845192005	-0.119099875882525	0.00288929357391172	0.0147266625536142
0.95	30.6238624216496	-1.96654103747248	685.112189006994	-65.7378413635111	8.23726224364708	-3.09205621264633	-0.129033395616752	0.00282349801414812	0.014420594005167
0.96	30.6669202863998	-1.99302633666052	685.380758116174	-65.5451473382742	8.1923616879221	-3.09668595963826	-0.13905815282423	0.00275358009634379	0.0141045418007417
0.97	30.7062802230228	-2.01727589043601	685.66972900285	-65.3489069755919	8.14545901572542	-3.10064459956008	-0.149117851140882	0.00268052783234703	0.0137790590501146
0.98	30.7436684746135	-2.04051565505712	685.955723662382	-65.1473523019266	8.09706727499888	-3.10407604387913	-0.159153618358077	0.00260548059589951	0.0134447705432447
0.99	30.7808500341444	-2.06408404394976	686.215330818248	-64.9387039266575	8.04774642434459	-3.10712140812028	-0.169098422545163	0.0025296312956881	0.0131023850034908
1	30.8194951673388	-2.08931376932319	686.427201452417	-64.7213852292596	7.99806120470679	-3.10990024271866	-0.178872154026909	0.00245413035366662	0.0127527138825156
1.01	30.8610543823139	-2.1174154318934	686.573960032931	-64.4942253745759	7.94854217251654	-3.11249449935484	-0.188378116051731	0.00237999940240431	0.0123966937573032
1.02	30.9066507410572	-2.14937120555644	686.643766235485	-64.2566326862382	7.89965289356702	-3.11493670877797	-0.197501575680265	0.00230806144603222	0.0120354086013581
1.03	30.9569971469472	-2.18584613089913	686.631392821129	-64.0087223423777	7.85176566162336	-3.11720349158307	-0.206110864791606	0.00223889256915918	0.0116701077576923
1.04	31.0123444210519	-2.22712319789156	686.538727549082	-63.7513861250397	7.80514727952872	-3.11921506990012	-0.214061298532122	0.002172798286222	0.0113022154091252
1.05	31.0724637353427	-2.27306666269163	686.374656895892	-63.4862967390094	7.75995549664449	-3.12084093172651	-0.221201912073963	0.00210981546019711	0.0109333277411026
1.06	31.1366644719794	-2.32311602984325	686.154342612175	-63.2158446206134	7.71624571837018	-3.12191126277865	-0.227384729505232	0.00204973853875628	0.0105651947941142
1.07	31.2038460110936	-2.37631097978522	685.897954210833	-62.9430107385281	7.67398667765198	-3.1222332478745	-0.232475998126364	0.00199216680598022	0.0101996851366514
1.08	31.2725795050956	-2.43134538082767	685.628966915834	-62.6711841915571	7.6330829664777	-3.12161089849884	-0.236368575199121	0.00193656757213519	0.00983873285811258
1.09	31.3412135545449	-2.48664654099878	685.372171488952	-62.403938003141	7.59340173698194	-3.11986672403798	-0.238994467710944	0.00188234886029046	0.00948426787397223
1.1	31.4079960138463	-2.54047416305995	685.15156661304	-62.144780029433	7.55480054829009	-3.11686336162101	-0.240336419263529	0.00182893432107671	0.0091381320419366
1.11	31.471203043753	-2.59103217909465	684.988314155137	-61.8968980567883	7.51715328516531	-3.11252323287987	-0.2404374249221	0.00177583291294789	0.00880198500311125
1.12	31.5292660673031	-2.63658584375585	684.898931919711	-61.6629187964198	7.48037131125519	-3.10684441150378	-0.239407139712786	0.00172269637663101	0.00847720489023238
1.13	31.5808875030187	-2.67557620648234	684.893877988404	-61.4446995439098	7.44441752135824	-3.09991115564448	-0.237424325980493	0.00166935869701577	0.00816478999692619
1.14	31.6251370205801	-2.70672437267643	684.976647223422	-61.2431688413866	7.40931167862614	-3.09189796310625	-0.234734747696227	0.00161585349626552	0.0078652680951489
1.15	31.6615215189336	-2.72911877210961	685.143456861353	-61.0582287623296	7.37512630000171	-3.08306651228221	-0.231644247779058	0.00156240747669627	0.00757862024856962
1.16	31.6900239527067	-2.74227991241626	685.383548047767	-60.8887267376095	7.34197330915642	-3.07375541664057	-0.228507113542221	0.0015094104107322	0.00730422564060983
1.17	31.7111083853687	-2.74619870709899	685.68007788381	-60.7324995383544	7.30998262672022	-3.06436329872926	-0.225710216960571	0.00145736450860026	0.00704083308976096
1.18	31.725691061141	-2.74134630741426	686.011526464727	-60.5864865543024	7.2792747289167	-3.05532623359419	-0.223653779125204	0.00140681804034301	0.00678656357818125
