Time [s]	GRFml [N]	GRFap [N]	GRFv [N]	Mml [N.m]	Map [N.m]	Mv [N.m]	Mfree [N.m]	COPml [m]	COPap [m]
0.01	9.71851203331445	2.32839241875981	709.801953398968	-33.5584329737427	-0.96481729535531	-0.494393441287181	-0.031930774009188	-0.0022961887343365	-0.00322984126156044
0.02	9.56214144468296	2.08479628336879	710.092072171546	-32.8942319820434	-0.866071426354068	-0.485898333980972	-0.0405146571700567	-0.00215974825087086	-0.00417958418749274
0.03	9.40910924708026	1.84028199361521	710.350844549066	-32.2348851461657	-0.76978114178765	-0.477344202441389	-0.0484374258208925	-0.00202682982894957	-0.00512070253412446
0.04	9.26273989225166	1.59669840981244	710.565957369081	-31.5887279300738	-0.678046334526346	-0.46890977278695	-0.0556246557322903	-0.00190036993087907	-0.00604082813861063
0.05	9.12618392602837	1.35599041169926	710.727448590683	-30.9637758978186	-0.59281053976083	-0.460802429004566	-0.0620663291791841	-0.00178308226814646	-0.00692817470873772
0.06	9.00229172086739	1.12021488560826	710.828478868896	-30.3675380411001	-0.515777327371946	-0.453255145367555	-0.0678185746254683	-0.00167734092629886	-0.00777184099215005
0.07	8.89350117058866	0.891543346343114	710.865926892131	-29.8068475259446	-0.448339397722755	-0.446520805691288	-0.0730003078521626	-0.00158508143441101	-0.00856207973158891
0.08	8.80174457677118	0.672247685456695	710.840760636759	-29.2877136227256	-0.391524128468909	-0.440863880172481	-0.0777850062924274	-0.00150772501700973	-0.00929052460147958
0.09	8.72837867677322	0.464667492040432	710.758151295805	-28.8151981940019	-0.345958191077251	-0.436549690348704	-0.0823882624509043	-0.00144612968310801	-0.00995036865864873
0.1	8.67414035837311	0.271159406745397	710.627313675063	-28.39331958087	-0.311852613005442	-0.433831736399204	-0.087052091262329	-0.00140057006171917	-0.0105364895091632
0.11	8.63912918472908	0.094030840498026	710.461075168423	-28.0249860329756	-0.289008398464393	-0.432937765463385	-0.0920271835534907	-0.00137074611712633	-0.0110455183568188
0.12	8.6228165082918	-0.0645380427069353	710.275193822956	-27.7119599896357	-0.276841622733244	-0.434055408855056	-0.0975543938249716	-0.00135581919103017	-0.0114758522634059
0.13	8.6240797542428	-0.202579025194506	710.087463285638	-27.4548535836205	-0.274425854935533	-0.437318300921685	-0.103846731235577	-0.00135447232624774	-0.0118276111895018
0.14	8.64125944953813	-0.318421485000043	709.916657454091	-27.253154761122	-0.280548899039402	-0.442793610076212	-0.111073006088388	-0.00136499060968982	-0.0121025435572223
0.15	8.67223578544926	-0.410773077269093	709.781379427224	-27.1052824495092	-0.293780211899698	-0.450471865760353	-0.119344096316852	-0.00138535638755374	-0.0123038860480298
0.16	8.71452093136943	-0.478789812771528	709.698887050834	-27.008668311537	-0.312544981292454	-0.460259860397679	-0.128702568552565	-0.00141335368318642	-0.0124361850028625
0.17	8.76536295107501	-0.522130593790851	709.683970405259	-26.959861843533	-0.335200729100773	-0.471977252147232	-0.139116143942422	-0.00144667599201603	-0.012505088039832
0.18	8.82185698464226	-0.540992293460923	709.747954703244	-26.9546549362677	-0.36011243178887	-0.485357303442785	-0.150475262507571	-0.00148303181852671	-0.012517115290509
0.19	8.88105932055398	-0.536122724324196	709.897895290908	-26.9882215387148	-0.385722494865973	-0.500051973508963	-0.16259478675559	-0.00152024281729455	-0.0124794199571619
0.2	8.9401000652401	-0.508810232353418	710.136020134943	-27.0552677535168	-0.410612442168432	-0.515641351902795	-0.175219702831446	-0.00155633014771077	-0.0123995477200733
0.21	8.99629029918693	-0.460850072555951	710.459460011465	-27.1501875463895	-0.433553839010312	-0.53164718593235	-0.18803452605351	-0.00158958558388497	-0.0122852039143634
0.22	9.04721987610425	-0.394489078688957	710.860288540405	-27.2672192610671	-0.453546711182685	-0.547550028405388	-0.200675992519915	-0.00161862496621536	-0.0121440364109144
0.23	9.09084236997674	-0.312351353127553	711.325874407262	-27.400598283795	-0.469844499539711	-0.562809323951128	-0.212748512449354	-0.00164242266866812	-0.0119834408546792
0.24	9.12554410761704	-0.217348710716206	711.839527896177	-27.5447014819577	-0.48196535524572	-0.576885572020388	-0.223841767143013	-0.00166032682063079	-0.0118103934256317
0.25	9.15019474989526	-0.112580367703041	712.381404590092	-27.694179435001	-0.489690291704793	-0.589263561817213	-0.233549745505625	-0.00167205600799819	-0.0116313146873708
0.26	9.16417751180029	-0.00122684686716501	712.929612093865	-27.8440729678494	-0.493049331113671	-0.599475577076433	-0.24149043745509	-0.00167767904003889	-0.0114519664688699
0.27	9.16739784369483	0.113556737034259	713.461452081067	-27.9899110739432	-0.492297290516593	-0.607123423559763	-0.247325334182702	-0.00167758007426779	-0.0112773821716385
0.28	9.16027022752977	0.228742935797906	713.954720801561	-28.1277879639427	-0.487881227567588	-0.611898144193851	-0.250777836868875	-0.00167241192119554	-0.0111118294807548
0.29	9.1436836527206	0.341525045655123	714.388987062402	-28.2544176840269	-0.480401802581788	-0.613596358176018	-0.251649656392451	-0.00166304069610363	-0.0109588032407773
0.3	9.11894729182046	0.449396863662014	714.746767908134	-28.3671655002969	-0.470570912188375	-0.612132290387692	-0.249834307671233	-0.00165048514744383	-0.0108210452749907
0.31	9.08771884651375	0.550215759284579	715.014528706624	-28.4640560264392	-0.459167919821319	-0.607544742052439	-0.245326872877303	-0.00163585398064829	-0.0107005871985367
0.32	9.05191891932962	0.642246623130717	715.183445655499	-28.5437588605742	-0.446996664314032	-0.599998485374838	-0.238229333695619	-0.00162028432782928	-0.0105988118048985
0.33	9.01363552027135	0.72418527688568	715.249884089828	-28.6055532705029	-0.434845189362278	-0.589779833361585	-0.228750954781666	-0.00160488420846929	-0.0105165283781188
0.34	8.97502337687322	0.795160993881125	715.215564343214	-28.6492741973995	-0.423449825723303	-0.577286427901979	-0.21720343343209	-0.00159068140761113	-0.010454057275578
0.35	8.93820302737913	0.854718834507549	715.087407038077	-28.6752425070879	-0.41346489806341	-0.563011589153696	-0.203990803019851	-0.00157858069269331	-0.0104113193058175
0.36	8.90516470271615	0.902783493129821	714.877070189454	-28.6841829755271	-0.405438942479957	-0.547523860797997	-0.189594373516245	-0.00156933072644922	-0.0103879257562201
0.37	8.87768172832186	0.939607235985776	714.600210016548	-28.6771339226694	-0.399797930671909	-0.53144265200345	-0.1745532911856	-0.00156350144106909	-0.0103832653688894
0.38	8.85723761071073	0.965705241920076	714.275514565169	-28.6553526819906	-0.396835622010663	-0.515411101985014	-0.159441579231394	-0.00156147204882049	-0.0103965850840874
0.39	8.84497014941555	0.981782207086097	713.923573021757	-28.6202211932014	-0.396710821941241	-0.500067462747064	-0.144842760115286	-0.00156342930713297	-0.0104270619372409
0.4	8.8416348878887	0.988654417785749	713.565653065514	-28.5731559221652	-0.399451027413004	-0.486016398662	-0.13132333930171	-0.00156937516084391	-0.0104738640810847
0.41	8.84758905914532	0.987171619698121	713.222463187737	-28.5155260429627	-0.40496169693408	-0.473801630277451	-0.119406534452938	-0.00157914247647769	-0.0105361994880444
0.42	8.86279597548237	0.97814291515842	712.912976380423	-28.4485833699466	-0.413040200120431	-0.463881300650717	-0.109547654355052	-0.00159241728298842	-0.0106133514540954
0.43	8.88684864111371	0.962270612278336	712.653386088161	-28.3734069195596	-0.423393381300958	-0.456607316557525	-0.102112465105785	-0.00160876575231375	-0.0107047005634431
0.44	8.91901031164467	0.940095450596817	712.456255296863	-28.2908642386234	-0.435657612390838	-0.452209719673073	-0.0973597307160496	-0.00162766409375302	-0.0108097332761842
0.45	8.9582688530408	0.911955967247332	712.329905867968	-28.2015907916018	-0.449420207349636	-0.450786884262288	-0.0954288905829281	-0.0016485295907685	-0.0109280377632353
0.46	9.00340111657419	0.87796398280695	712.278078724547	-28.1059877942387	-0.464241117137853	-0.45230203203592	-0.0963335516875873	-0.00167075115998785	-0.0110592880293802
0.47	9.05304317674129	0.837997320090931	712.299877426842	-28.0042379596374	-0.479673911486387	-0.456586218926946	-0.0999611471856508	-0.00169371803531817	-0.0112032177311229
0.48	9.10576218679056	0.791709968090369	712.38998928745	-27.8963377320351	-0.495285172365858	-0.463347602243169	-0.106078766174544	-0.00171684544653384	-0.0113595854054725
0.49	9.16012578122448	0.738559013031811	712.539160709169	-27.7821437695104	-0.510671564011318	-0.472186460699096	-0.11434481382097	-0.0017395964428063	-0.0115281330730048
0.5	9.21476536820677	0.677846822656741	712.734888024937	-27.6614307427297	-0.525473996541677	-0.482615134710333	-0.124325838322146	-0.00176149928253567	-0.0117085403582236
0.51	9.26843026439278	0.60877622701378	712.962272752017	-27.5339569798853	-0.539388456658934	-0.494081798846721	-0.135517581212075	-0.00178216005345397	-0.0119003763782905
0.52	9.32003037733551	0.530515821595399	713.204981581912	-27.3995341373765	-0.552173233344885	-0.505996788220175	-0.147369087163328	-0.00180127039165111	-0.0121030516852464
0.53	9.36866597790813	0.442272051154623	713.446247076483	-27.2580969306027	-0.563652414534783	-0.517760087300359	-0.159308561485178	-0.00181861033374317	-0.0123157725065873
0.54	9.41364396791242	0.343364431316472	713.669845091246	-27.1097690270054	-0.573715669973662	-0.528788559514612	-0.170769595962343	-0.00183404646869013	-0.0125374994162563
0.55	9.45448088031112	0.233300137960992	713.860989256067	-26.9549214794092	-0.582314465011468	-0.538541549641714	-0.181216399198507	-0.00184752566515009	-0.0127669123866194
0.56	9.49089360218356	0.111844240834085	714.007090980998	-26.7942205445077	-0.589454970277718	-0.546543623380957	-0.190166763487927	-0.00185906474868547	-0.0130023839277363
0.57	9.52277944380217	-0.0209179301960339	714.098344739146	-26.6286623600151	-0.595188043840015	-0.552403409195197	-0.197211668517449	-0.0018687366013147	-0.0132419617211919
0.58	9.55018766257886	-0.164529435270928	714.128111927939	-26.4595927053517	-0.59959676632727	-0.555827761756561	-0.202030650390782	-0.00187665326102166	-0.0134833618120299
0.59	9.57328487153809	-0.318124047486681	714.093091409562	-26.2887108976606	-0.602782105597488	-0.55663075597304	-0.204402336378384	-0.00188294671316832	-0.013723973046036
0.6	9.59231691409796	-0.480404307286134	713.993279803777	-26.118057725586	-0.604847374653072	-0.554737325736245	-0.204209842735406	-0.00188774818618908	-0.0139608730446518
0.61	9.60756977731538	-0.649636691876215	713.831738690249	-25.9499881444177	-0.605882221949496	-0.550181662042243	-0.201441035043574	-0.00189116688237774	-0.0141908556113404
0.62	9.61933196121961	-0.823664560547522	713.614198101894	-25.7871301973465	-0.605946952723091	-0.543100762098146	-0.196183938222116	-0.00189326917903404	-0.0144104690769831
0.63	9.62786044680557	-0.99993879654077	713.348535242846	-25.6323322443998	-0.605058017822365	-0.533723758139557	-0.188617838641323	-0.00189405941149288	-0.0146160647331686
0.64	9.63335203889071	-1.17556533786037	713.044173646812	-25.4886010386004	-0.60317551618725	-0.522357839310899	-0.179000828527056	-0.00189346338305587	-0.0148038541849098
0.65	9.6359214334733	-1.3473681012163	712.711450661228	-25.3590334658782	-0.600193531800766	-0.5093717038382	-0.167654691774665	-0.00189131572465865	-0.0149699741896747
0.66	9.63558690278163	-1.51196518092423	712.361000133863	-25.2467448533899	-0.595934059551116	-0.495177538300165	-0.15494811365798	-0.00188735213975033	-0.0151105573455089
0.67	9.6322640321491	-1.66585567118728	712.003192702369	-25.1547966570357	-0.590145162605957	-0.480212517199252	-0.141279212907322	-0.00188120741270456	-0.0152218068511417
0.68	9.62576750389881	-1.80551403552915	711.647668611463	-25.0861260841158	-0.582503844915969	-0.46492075463913	-0.127058346335578	-0.00187241983321527	-0.0153000734846477
0.69	9.61582052194898	-1.92748864729318	711.302988191619	-25.0434798242619	-0.572623918140572	-0.449736529658324	-0.112692031216038	-0.00186044240155449	-0.0153419329296889
0.7	9.60207111886294	-2.02850096179845	710.976413873047	-25.0293535929253	-0.560068898458681	-0.435069459144355	-0.0985686802983643	-0.0018446608427208	-0.0153442616114056
0.71	9.58411429176276	-2.10554176079078	710.673825817955	-25.0459386835543	-0.54436969536582	-0.421292120191903	-0.0850466626977884	-0.0018244180881974	-0.0153043092772288
0.72	9.56151867830089	-2.15596103460655	710.399761890109	-25.0950762242976	-0.525046565445926	-0.40873044051205	-0.0724450063373785	-0.00179904450205152	-0.0152197666599137
0.73	9.533856309597	-2.17754833239079	710.157562644409	-25.1782193858063	-0.501634516062648	-0.397656993570545	-0.0610368597163594	-0.00176789275466944	-0.0150888266801186
0.74	9.50073386333969	-2.16860080495111	709.949594085693	-25.296403423819	-0.473711075688126	-0.388287165527375	-0.0510456469712127	-0.0017303759038345	-0.0149102377748603
0.75	9.46182378670747	-2.1279766713042	709.777515704936	-25.4502231882285	-0.440925118490973	-0.380778012690285	-0.0426436927964437	-0.00168600694941344	-0.0146833480700023
0.76	9.41689366567843	-2.05513243568155	709.642559112991	-25.6398176010745	-0.403025259258541	-0.375229507650103	-0.0359529721559384	-0.00163443790319115	-0.0144081392469695
0.77	9.36583228591679	-1.95014283850615	709.545783562251	-25.8648605979117	-0.359886236790246	-0.371687783695522	-0.0310475597254037	-0.00157549627579223	-0.0140852490873999
0.78	9.30867096254446	-1.8137032103947	709.488278618749	-26.1245581260595	-0.311531691926366	-0.370149932360598	-0.0279573178152172	-0.00150921684205683	-0.0137159818193636
0.79	9.24559891310975	-1.64711457788662	709.471290818084	-26.4176509742006	-0.258151827876294	-0.370569887763406	-0.0266723675636035	-0.00143586661567581	-0.0133023055430378
0.8	9.17697170954811	-1.45225250820014	709.496259691657	-26.7424234372564	-0.200114617257377	-0.372864941549573	-0.0271479314208244	-0.00135596115067978	-0.0128468361920577
0.81	9.1033121671429	-1.23152124456964	709.564758306579	-27.0967180602051	-0.137969487758184	-0.37692246984376	-0.0293092073325839	-0.00127027059414636	-0.0123528076991471
0.82	9.02530340292013	-0.987795144678634	709.678343547862	-27.4779569152443	-0.0724427656862936	-0.382606513236707	-0.0330560262744758	-0.00117981433774825	-0.011824028289459
0.83	8.94377420824977	-0.724349770190949	709.838330886218	-27.8831700119078	-0.00442456682899106	-0.389763925926388	-0.0382671432931518	-0.00108584364434468	-0.0112648231273946
0.84	8.85967731029048	-0.444785172084464	710.045516473912	-28.3090314890826	0.0650527252989832	-0.398229893392296	-0.0448041062701611	-0.000989812239548594	-0.0106799638927262
0.85	8.77406151844989	-0.152943971401275	710.299875376334	-28.7519041700074	0.134843789006542	-0.407832701963336	-0.0525147257335543	-0.000893335527206306	-0.0100745862540626
0.86	8.68803913555112	0.147173243979664	710.600268050384	-29.20789286587	0.203726446838619	-0.418397721399352	-0.0612362251388857	-0.000798139772859972	-0.00945409663049662
0.87	8.6027503279423	0.451492880575195	710.944187531631	-29.6729064921091	0.270443039410271	-0.429750627344673	-0.0707981794950163	-0.000706003253960704	-0.00882407006855944
0.88	8.51932636535163	0.755951615637827	711.327577162981	-30.1427286274804	0.333745293466428	-0.441719940082988	-0.0810253503542794	-0.0006186919493277	-0.00819014149002763
0.89	8.43885373624351	1.05657628360976	711.744743326046	-30.6130956239682	0.392440645081429	-0.454138987239429	-0.0917405002862297	-0.000537892783408172	-0.00755789296272253
0.9	8.36234110269975	1.34955902360107	712.18838000352	-31.0797807997912	0.445437848156025	-0.466847410782126	-0.102767226607026	-0.000465147710070901	-0.00693273998667367
0.91	8.29069087634859	1.63132667627514	712.649712785994	-31.5386826593795	0.491789688750377	-0.47969233459866	-0.113932801205912	-0.000401791984904336	-0.00631982004862146
0.92	8.22467688182995	1.89860370525553	713.11875995462	-31.9859145291699	0.53073073923429	-0.492529291343871	-0.12507095056793	-0.000348899820061721	-0.00572388685839634
0.93	8.16492914724514	2.14846812939818	713.584698396306	-32.417892523787	0.56170831642412	-0.505222980553784	-0.136024466788334	-0.000307240247026854	-0.00514921372467839
0.94	8.11192635338565	2.37840007358598	714.036313194342	-32.8314184093947	0.584405140759291	-0.517647899143639	-0.146647513953846	-0.000277245455636528	-0.00459950944282499
0.95	8.06599592485287	2.58632257484644	714.462502539783	-33.2237537504369	0.598752608463396	-0.52968885532028	-0.156807489409289	-0.000258993175227269	-0.00407784984614675
0.96	8.02732120061431	2.77063422803367	714.852804717565	-33.5926817449979	0.604934059803302	-0.54124135209039	-0.166386317532744	-0.000252203871632003	-0.00358662781099467
0.97	7.9959546236618	2.93023314340498	715.19791171225	-33.9365533935654	0.603377925139696	-0.552211810408252	-0.175281092785747	-0.000256252714176455	-0.00312752400675097
0.98	7.97183548007605	3.06453154916511	715.49013458603	-34.2543151129362	0.59474112655661	-0.562517596717547	-0.183404044155357	-0.000270195481612194	-0.00270150005093411
0.99	7.95481043040889	3.17346024367753	715.723789096253	-34.5455155923197	0.57988357762985	-0.572086825799075	-0.190681857689438	-0.00029280687997152	-0.00230881497985409
1	7.94465493416051	3.25746202470301	715.895475706664	-34.810290566591	0.559835031525154	-0.580857926464358	-0.197054459520846	-0.000322629181518011	-0.00194906509643
1.01	7.94109368270643	3.31747323409689	716.004235686114	-35.0493252100777	0.535755856964904	-0.588778982325983	-0.202473420361831	-0.000358028689968131	-0.00162124633678438
1.02	7.94381832628794	3.35489268590816	716.051573730503	-35.2637949768372	0.508893557448399	-0.595806889081274	-0.206900186592906	-0.000397257304370565	-0.00132383734232373
1.03	7.95250109338525	3.37153751254179	716.041346769704	-35.4552868626334	0.480536982904418	-0.601906399189691	-0.210304367111171	-0.000438516388511729	-0.00105490047827817
1.04	7.96680333152628	3.36958587224469	715.979527609364	-35.6257041657619	0.451970213005872	-0.607049149995027	-0.212662305596729	-0.000480020237782042	-0.000812197153266511
1.05	7.9863785134183	3.35150700078682	715.873860141319	-35.7771588034352	0.424428022487202	-0.611212788031377	-0.213956143845552	-0.000520056645311521	-0.000593313020673385
1.06	8.01086981003983	3.31997973450306	715.733429475789	-35.9118560274141	0.399054681413816	-0.61438030707853	-0.214173534855333	-0.000557042373177109	-0.000395788033912631
1.07	8.03990288733565	3.27780134064513	715.568175085557	-36.0319769175271	0.376867612288112	-0.61653970840525	-0.213308098294854	-0.000589571701045188	-0.000217245930966115
1.08	8.07307508849956	3.22778921317854	715.388377653572	-36.1395642712674	0.358727138884245	-0.61768406806459	-0.211360631604887	-0.000616456624761034	-5.55175756827564e-05
1.09	8.10994257488372	3.17267866986556	715.20415069882	-36.2364174286162	0.345313237916542	-0.617812059308363	-0.208341004402546	-0.000636757687142819	9.12472933922784e-05
1.1	8.15000727669531	3.11502065990695	715.024966303624	-36.3240011730361	0.337109863154364	-0.616928931018021	-0.204270579948086	-0.000649804824767346	0.000224484956311319
1.11	8.19270562075487	3.05708360412877	714.85924060915	-36.4033731547703	0.334397070242787	-0.615047889696013	-0.199184933078785	-0.000655207996192095	0.000345143634452247
1.12	8.23740094031703	3.00076379375308	714.713999536624	-36.475133335157	0.337250844958675	-0.612191778124872	-0.19313657648	-0.000652857712280278	0.00045363393651883
1.13	8.28338122990887	2.94750873432643	714.59463887189	-36.539397812498	0.345550240870466	-0.60839489377917	-0.186197372459181	-0.000642915914901285	0.000549806244488346
1.14	8.32986350098334	2.89825752018474	714.504785918449	-36.595798135562	0.358991174298392	-0.603704749837712	-0.178460299756579	-0.000625797944528717	0.000632956254813903
1.15	8.37600545214278	2.85340176255945	714.44626289712	-36.6435059208863	0.37710601197832	-0.59818355594315	-0.170040266455053	-0.00060214659815147	0.000701858631386207
