Time [s]	GRFml [N]	GRFap [N]	GRFv [N]	Mml [N.m]	Map [N.m]	Mv [N.m]	Mfree [N.m]	COPml [m]	COPap [m]
0.01	8.04307392303643	8.41541107626387	705.399316551312	-49.3818415005146	10.6618016082684	-0.830347533064833	-0.394445661772664	0.0023628722917003	0.00601232418131505
0.02	8.25614372198633	7.94165408899816	705.879726225122	-49.1780456659791	10.5839560206009	-0.810108123702786	-0.353925752601548	0.00224437647059447	0.00568201861358203
0.03	8.46582549143291	7.47620369374475	706.351673937954	-48.9764471263057	10.5074569056826	-0.790254236629712	-0.314388034646674	0.00212720779140822	0.0053547576679409
0.04	8.66860832114438	7.02712758390276	706.805939141485	-48.7797628925626	10.4338289572334	-0.771164035639066	-0.276537470375061	0.00201375947094607	0.00503533150668213
0.05	8.86121667021434	6.60192651351341	707.233963197461	-48.5905324408942	10.36452508345	-0.753203795949456	-0.241028671279761	0.00190635189345503	0.0047282631530729
0.06	9.04072906291819	6.20725741747409	707.628185986013	-48.4110444187526	10.3008738284958	-0.736715205178933	-0.208444477801212	0.00180714149823048	0.0044376607295049
0.07	9.20467946032907	5.84869949841583	707.982320596818	-48.243275614539	10.2440332658217	-0.72200308325458	-0.179277746120101	0.00171803765225241	0.0041670904069499
0.08	9.35113681391378	5.53057457990226	708.291552790643	-48.0888444504742	10.1949534549815	-0.70932404973044	-0.153916823652676	0.0016406322335095	0.0039194762378752
0.09	9.47875970762805	5.25582968005038	708.55265811764	-47.9489804692636	10.1543489775516	-0.698876688870402	-0.132635033905262	0.00157614571907391	0.00369703131720781
0.1	9.58682449008855	5.02598600599714	708.764035919027	-47.824510424445	10.1226824323329	-0.690793750068661	-0.115584364490699	0.00152539234854189	0.00350122265086901
0.11	9.67522677497615	4.841154669001	708.92566533099	-47.7158607079615	10.1001591235924	-0.685136867334867	-0.102793453361132	0.00148876554340389	0.00333276989735252
0.12	9.74445754837827	4.70011563473538	709.038993357087	-47.6230750147325	10.0867325638629	-0.681894185010303	-0.0941698837393524	0.00146624334698616	0.00319167599043045
0.13	9.79555629061852	4.60045299670187	709.106768714127	-47.5458454068855	10.0821198732489	-0.680981140777477	-0.0895067107055197	0.00145741234516834	0.00307728574510965
0.14	9.83004444664052	4.5387367993303	709.132837279817	-47.4835543445611	10.0858257195504	-0.682244489072901	-0.0884930368041995	0.00146150745140579	0.00298836705364913
0.15	9.84984323795766	4.51073949819054	709.121915537826	-47.4353248276274	10.0971731262632	-0.685469459718589	-0.0907283217963085	0.00147746417217229	0.00292320829956781
0.16	9.85718019836339	4.51167382678574	709.079357542725	-47.4000755603871	10.115339285945	-0.690389752192064	-0.0957399534584703	0.00150397954974265	0.00287972519840687
0.17	9.85448895172508	4.53643838047011	709.010928860524	-47.3765780118237	10.1393944512587	-0.696699881077257	-0.103003432422168	0.00153957790365765	0.00285557039576262
0.18	9.84430666363401	4.57985760657172	708.922598021102	-47.3635123858897	10.1683420229121	-0.704069228392037	-0.111964352499319	0.00158267771745061	0.0028482397437192
0.19	9.82917332804661	4.63690403081279	708.82035263738	-47.3595198172543	10.2011580935568	-0.712157037608992	-0.122061211071212	0.00163165647255362	0.00285517012607785
0.2	9.81153663714352	4.70289233453001	708.710043896604	-47.3632485367785	10.2368289161474	-0.720627513329422	-0.132747984267058	0.00168491083126077	0.00287382488069104
0.21	9.79366566844095	4.7736371734856	708.597259966584	-47.3733922715388	10.2743850194699	-0.729164176869946	-0.143515367165778	0.00174091022856509	0.00290176414237242
0.22	9.77757604498041	4.84556922606803	708.487226265851	-47.388719718127	10.3129309688032	-0.737482673985209	-0.153909621343457	0.00179824257267052	0.00293669868515031
0.23	9.76496861403983	4.91580669850266	708.384728707466	-47.4080945176818	10.3516700454066	-0.745341334138371	-0.163548093104623	0.00185565131926177	0.00297652698609632
0.24	9.75718307298786	4.98218222470671	708.294055022349	-47.4304857322318	10.3899233788201	-0.752548933843523	-0.172130658848335	0.00191206364185746	0.00301935620304798
0.25	9.75516736737983	5.04322762171093	708.218949079124	-47.4549693449572	10.4271433002431	-0.758969308003971	-0.179446604253641	0.00196660975980866	0.00306350852395515
0.26	9.75946311053253	5.09812116518709	708.162573636495	-47.4807217584198	10.4629208883508	-0.764522667830905	-0.185376730244124	0.00201863371653995	0.0031075149008624
0.27	9.77020673555412	5.14660383035757	708.127478021143	-47.5070066277948	10.4969878503702	-0.769183704744089	-0.189890776490084	0.00206769604705937	0.00315009854009941
0.28	9.78714559674699	5.18887223115234	708.115568613326	-47.5331566304383	10.5292130243415	-0.772976769006715	-0.193040537443816	0.00211356886599024	0.00319015070662795
0.29	9.80966779187586	5.22545674834391	708.128081530878	-47.5585519348525	10.5595939088119	-0.775968593230082	-0.194949293633068	0.00215622397590207	0.00322670144345616
0.3	9.83684408339487	5.25709356134661	708.165558334386	-47.5825971930828	10.5882437301714	-0.778259170461708	-0.195798373602365	0.00219581466570949	0.00325888773449881
0.31	9.86747995877682	5.28459901368895	708.227826772854	-47.6046988474405	10.6153746513516	-0.779971484432362	-0.195811786909228	0.00223265195666035	0.0032859214755103
0.32	9.90017559188929	5.30875399956584	708.313989438881	-47.6242444256613	10.6412778128524	-0.781240820561666	-0.195239920171327	0.00226717616489107	0.00330705938264461
0.33	9.93339125464342	5.33020492975219	708.42242364566	-47.6405853113971	10.6663009796681	-0.782204360551387	-0.1943432673997	0.00229992478071574	0.00332157667814387
0.34	9.96551558810071	5.34938640650041	708.550795864358	-47.6530242341496	10.6908246442951	-0.782991685906449	-0.193377080042294	0.00233149780374767	0.00332874606191985
0.35	9.99493408302013	5.36646910612219	708.696093699267	-47.660808439858	10.7152375022198	-0.783716696010032	-0.192577683620725	0.00236252180244985	0.00332782312009446
0.36	10.0200951494921	5.38133463695736	708.854677688839	-47.6631291955015	10.739912265175	-0.784471297319985	-0.192151032316139	0.00239361406756463	0.00331803895085871
0.37	10.0395712802232	5.3935774111012	709.022354280084	-47.6591279622892	10.765182800324	-0.785321056765065	-0.192263877721932	0.00242534828284453	0.00329860041836845
0.38	10.0521130352524	5.40253193667075	709.194470215585	-47.6479092546253	10.791323571183	-0.786302849926736	-0.19303773044346	0.002458223128761	0.00326869809007654
0.39	10.0566938955105	5.40732248906916	709.366027378687	-47.628559896317	10.8185323001242	-0.787424387491242	-0.194545608741228	0.00249263515569214	0.00322752158296571
0.4	10.0525444407265	5.40693092538091	709.531815938559	-47.6001740995803	10.8469166666014	-0.788665383734909	-0.196811409444351	0.00252885710877013	0.00317428174718241
0.41	10.0391747891351	5.40027751831783	709.686562488556	-47.5618835324818	10.8764856972143	-0.789980046980478	-0.199811611605337	0.00256702265959564	0.00310823885500339
0.42	10.0163847712879	5.38630913745773	709.82508883461	-47.5128913112091	10.9071462953678	-0.791300528438902	-0.203478937491118	0.00260711820873092	0.00302873573838795
0.43	9.98426187166477	5.36408890738935	709.942476213453	-47.4525086587142	10.9387051066451	-0.792540962746531	-0.207707549312446	0.00264898208069822	0.00293523462631154
0.44	9.94316752972654	5.33288161604719	710.03422904556	-47.3801928142087	10.9708756332459	-0.793601766918529	-0.21235935103465	0.00269231105772746	0.00282735626945994
0.45	9.89371291517995	5.29222960481672	710.096431893859	-47.2955846622514	11.0032902135583	-0.794373927084306	-0.217270987495142	0.0027366738104005	0.00270491980164919
0.46	9.83672575034531	5.24201460210668	710.125893142968	-47.1985444796628	11.0355161910427	-0.794743084508339	-0.222261180829103	0.00278153040529892	0.00256798167435462
0.47	9.7732101191637	5.18250190903528	710.120269067792	-47.0891841775068	11.0670753317418	-0.794593322914606	-0.22713810873954	0.00282625672527743	0.00241687191666388
0.48	9.70430145712256	5.11436444635632	710.078162450685	-46.9678944480578	11.0974653333091	-0.793810646685631	-0.231706601920723	0.00287017235015094	0.00225222592533331
0.49	9.63121904653811	5.03868535814359	709.999190745855	-46.8353653165871	11.1261821197362	-0.792286213651814	-0.235775010666553	0.0029125702357294	0.0020750099888924
0.5	9.55521834331874	4.95693907207387	709.884019971333	-46.6925987470972	11.1527415501076	-0.789919438362048	-0.239161655850455	0.00295274641531545	0.00188653880770523
0.51	9.47754533961172	4.87095187370756	709.734361998982	-46.5409121599374	11.1766991961364	-0.786621106039432	-0.241700830773342	0.00299002794315843	0.00168848339977816
0.52	9.39939493494208	4.78284410476197	709.552934646694	-46.3819319850759	11.1976669643981	-0.782316631163289	-0.243248353209387	0.00302379741061701	0.00148286798863619
0.53	9.3218749667097	4.69495699390967	709.343385857171	-46.217576692296	11.2153255499205	-0.776949558453184	-0.243686678693806	0.00305351259175548	0.00127205475943404
0.54	9.24597716400732	4.60976783501585	709.110185149236	-46.0500291003462	11.2294319954054	-0.770485341911143	-0.242929576303829	0.00307872010589642	0.00105871574209809
0.55	9.17255586364366	4.52979771599629	708.858487306511	-45.8816981598292	11.2398219753085	-0.762915356324779	-0.240926338893024	0.00309906240148008	0.000845791529399606
0.56	9.10231489066908	4.45751625817647	708.593974775064	-45.7151708155581	11.2464068013454	-0.75426100427604	-0.237665455330516	0.00311427784144162	0.000636437051208916
0.57	9.03580258177946	4.39524784986895	708.322686338231	-45.5531549673321	11.2491655273624	-0.744577690618639	-0.233177619270692	0.00312419417163507	0.000433955185877036
0.58	8.97341453883269	4.3450836588015	708.050840213075	-45.3984149462006	11.2481328874573	-0.733958356338381	-0.227537895450613	0.00312871614294136	0.00024171957272387
0.59	8.91540335666249	4.30880330587198	707.784659702419	-45.2537012881028	11.2433841037702	-0.722536204819451	-0.220866819460199	0.00312780849597694	6.3088568709041e-05
0.6	8.8618942849988	4.28780950569022	707.530208926446	-45.1216769001602	11.2350178253903	-0.710486224350282	-0.213330179252524	0.00312147586869951	-9.86871628583241e-05
0.61	8.81290556517695	4.28307826242892	707.293244995188	-45.0048419596883	11.2231385892668	-0.698025117362288	-0.205137224132215	0.00310974142161606	-0.000240560465268422
0.62	8.76837203206444	4.29512639264976	707.079091370927	-44.90546004703	11.2078402174435	-0.685409292535584	-0.196537075208822	0.00309262607169134	-0.000359783556447571
0.63	8.72817049194563	4.32399727336002	706.892535258618	-44.825488078505	11.1891914804901	-0.672930660268169	-0.187813172955181	0.00307013017462686	-0.000454000353028158
0.64	8.69214537838527	4.36926482852859	706.737749835878	-44.7665125671021	11.1672251715554	-0.660910091331841	-0.179275691615932	0.00304221929849911	-0.000521331551835036
0.65	8.66013324955562	4.43005491524937	706.618240188301	-44.7296945928945	11.1419314640261	-0.649688545749597	-0.171251972043183	0.00300881540468166	-0.000560448842020583
0.66	8.63198481970971	4.50508249392169	706.536810139307	-44.7157256148425	11.1132560901929	-0.639616044070953	-0.164075165827041	0.00296979432041526	-0.000570634874260539
0.67	8.60758340945464	4.59270230300713	706.495545917463	-44.724795908534	11.0811035053962	-0.631038824163717	-0.158071433180331	0.00292498988589766	-0.000551826047818255
0.68	8.58685894584466	4.69097023943701	706.495811904721	-44.7565769836926	11.0453448212767	-0.624285189993596	-0.153546181897122	0.00287420462745221	-0.000504635780857465
0.69	8.56979693168626	4.79771229364599	706.538253616818	-44.8102188387737	11.0058299325866	-0.61965070104943	-0.150769961201722	0.00281722628928703	-0.000430356681956637
0.7	8.55644211750477	4.91059771690297	706.62280358031	-44.8843623692261	10.9624029517289	-0.617383459477393	-0.149964719593533	0.00275384908997382	-0.000330940908513697
0.71	8.5468969300283	5.02721311098367	706.748686825802	-44.9771666850354	10.9149198264171	-0.617670316080991	-0.151291189146756	0.00268389819142595	-0.0002089589384075
0.72	8.54131501717193	5.14513431835155	706.914424194544	-45.0863505372268	10.8632668648454	-0.620624828656633	-0.154838162646695	0.00260725560541795	-6.75379453175806e-05
0.73	8.5398905416468	5.26199333649745	707.117833392164	-45.2092465271205	10.8073788382601	-0.626277762988382	-0.160614380938555	0.00252388563341675	8.9718098623251e-05
0.74	8.54284407689596	5.37553795507965	707.356029526336	-45.3428662998882	10.7472553736753	-0.634570828729319	-0.168543646776371	0.00243385794682685	0.000258823621888726
0.75	8.55040611833843	5.48368238334282	707.625428531045	-45.4839745263151	10.6829744829185	-0.645354194069336	-0.178463633391018	0.00233736656303555	0.000435518274509231
0.76	8.5627993138717	5.58454775684853	707.92175821262	-45.6291691709765	10.6147022848987	-0.658388133107655	-0.190128669822488	0.00223474324420269	0.00061538116620527
0.77	8.58022053990514	5.67649204318719	708.240082482158	-45.7749653443247	10.5426982474952	-0.673348939968329	-0.20321657263389	0.0021264642183011	0.000793948010981871
0.78	8.60282390740177	5.75812946335465	708.574844537826	-45.9178799485592	10.4673155819523	-0.689839007915883	-0.217339368759158	0.00201314956652186	0.000966826601324133
0.79	8.63070568457686	5.82834007064716	708.919934257995	-46.0545143555464	10.3889967427945	-0.707400735186271	-0.232057531595708	0.00189555510441307	0.00112980621384133
0.8	8.66389197919956	5.88627055176457	709.268783856349	-46.181632497012	10.308264296963	-0.725533697063955	-0.246897146413889	0.00177455707060969	0.00127895695985453
0.81	8.70232984472247	5.93132761498675	709.614493996593	-46.296231995002	10.2257077058874	-0.743714329873438	-0.261369244751091	0.00165113039185243	0.00141071571093326
0.82	8.74588227117749	5.96316549892385	709.949990197412	-46.3956063014556	10.141966795513	-0.761417218824952	-0.274990411481193	0.00152632168434373	0.00152195600872786
0.83	8.79432730332713	5.98166917500679	710.268206666181	-46.4773962324468	10.0577128581538	-0.778136976950765	-0.287303680581883	0.00140121845291204	0.00161004025816133
0.84	8.84736130312543	5.98693474041419	710.562291914428	-46.5396297543823	9.97362842769716	-0.793409652199003	-0.297898700857244	0.00127691614193454	0.00167285344470147
0.85	8.90460614838303	5.97924832652834	710.825827884421	-46.5807493827962	9.89038679294397	-0.806832606111566	-0.306430172243182	0.00115448476540237	0.00170881855041022
0.86	8.96561994163203	5.95906460778885	711.053052110778	-46.5996270646635	9.80863226509523	-0.818081869066343	-0.312633624903523	0.00103493679748735	0.00171689471356988
0.87	9.02991060002012	5.92698571614666	711.2390708864	-46.5955669077193	9.72896210233955	-0.826926089569637	-0.316337732454866	0.00091919784869797	0.00169655993399147
0.88	9.09695151720949	5.88374107631139	711.380050685413	-46.5682965719042	9.65191082963865	-0.833236351965526	-0.317472510499416	0.000808081404093344	0.0016477807317871
0.89	9.16619834164956	5.83016840327574	711.473375338772	-46.5179485280632	9.57793749131283	-0.836991329888254	-0.316072943779735	0.000702268583834965	0.00157097159424988
0.9	9.23710581326686	5.76719586848558	711.51775770386	-46.445032700321	9.50741615637826	-0.838277462379054	-0.312277800266657	0.000602293531808948	0.00146694727848175
0.91	9.30914355392053	5.69582526112519	711.513296775518	-46.3504022283062	9.44062978087288	-0.837284075706474	-0.306323618383053	0.000508534675866482	0.00133687107325924
0.92	9.38180972634161	5.6171158564547	711.461474225396	-46.2352142056686	9.37776733550754	-0.8342936161446	-0.298534084209108	0.000421211762630744	0.00118220196996716
0.93	9.45464156968688	5.53216865736109	711.365088026378	-46.1008872694014	9.31892394580402	-0.829667396800014	-0.289305238858947	0.000340388275760993	0.00100464336681681
0.94	9.52722199114554	5.44211069508047	711.228124854402	-45.9490578331198	9.26410367589387	-0.823827484703404	-0.279087162504591	0.000265978617527134	0.000806095459458728
0.95	9.59918164035616	5.34807915132629	711.055577055936	-45.7815365849796	9.21322452138529	-0.817235552784313	-0.268362961466975	0.000197759280139841	0.000588612888858406
0.96	9.67019620780902	5.25120518298383	710.853213803313	-45.600266621058	9.1661251604089	-0.810369685545813	-0.25762602979519	0.00013538315776585	0.000354368565009172
0.97	9.73997905324182	5.15259747512269	710.627319319383	-45.4072842764596	9.12257303892552	-0.803700248575812	-0.247356659175287	7.83961469213029e-05	0.000105623908955549
0.98	9.808269660946	5.05332570010095	710.384413460959	-45.204683372004	9.082273425947	-0.797666002986237	-0.237999124530018	2.6255239777704e-05	-0.000155294895056779
0.99	9.87481880504736	4.95440420245538	710.130971291029	-44.9945832399278	9.04487915285105	-0.792651660647542	-0.229940372727767	-2.16525850182045e-05	-0.000426015621273618
1	9.93937165420702	4.85677634603926	709.873158407245	-44.7791005548024	9.01000083370016	-0.788968031113283	-0.223491386080418	-6.59912452958718e-05	-0.000704135136702491
1.01	10.0016503160368	4.76130004022405	709.616597688132	-44.5603247024025	8.9772174364324	-0.786835805665083	-0.218872181121166	-0.000107456654295708	-0.000987232681406672
1.02	10.0613374844507	4.66873499921749	709.366180829514	-44.340296193317	8.94608712654042	-0.786373860536284	-0.216201239867988	-0.000146758360553131	-0.00127288313487249
1.03	10.1180628835078	4.57973228065667	709.125934732213	-44.1209874882857	8.91615832782912	-0.787592746297038	-0.215489961886493	-0.000184601961013728	-0.00155867201332327
1.04	10.1713940859111	4.49482659895207	708.898948717442	-43.9042855599873	8.88698093612792	-0.79039377340793	-0.216642480451046	-0.000221672459159928	-0.00184221364905959
1.05	10.2208330242802	4.41443182135425	708.687364008448	-43.6919755739099	8.85811758331353	-0.794573818079223	-0.219460917012883	-0.000258618713749374	-0.0021211735315521
1.06	10.2658191247979	4.33883993902356	708.492422290259	-43.485725221999	8.82915478690904	-0.799835673256794	-0.223655868947104	-0.000296039128933801	-0.00239329517942755
1.07	10.3057395061223	4.26822367170606	708.314565822893	-43.2870694704625	8.79971374452654	-0.805803473644274	-0.228861651128978	-0.000334468765843882	-0.00265643121590105
1.08	10.3399461429585	4.20264272361247	708.153577897333	-43.0973957625082	8.76946045432959	-0.812042448229877	-0.234655557368764	-0.000374368099054145	-0.00290857760173161
1.09	10.3677793414734	4.14205356982002	708.008749697761	-42.917930016683	8.73811477505631	-0.818082014910535	-0.240580187439272	-0.000416113687040722	-0.00314790930910089
1.1	10.3885963621847	4.08632252555482	707.87905809883	-42.7497240472897	8.70545799379602	-0.823441043552988	-0.246167712130929	-0.000459991062106835	-0.00337281516599229
1.11	10.401803600273	4.03524174150341	707.763338713681	-42.5936452704894	8.671338456461	-0.827653987364842	-0.250964832984374	-0.000506190161763363	-0.00358192922562419
1.12	10.4068904296401	3.9885476807193	707.660439633542	-42.4503697171246	8.63567484145508	-0.830296525424018	-0.25455714275887	-0.000554803611910218	-0.00377415586787928
1.13	10.4034626590499	3.94594156785338	707.569343663552	-42.3203794267629	8.5984567242993	-0.831009375413526	-0.256591611642136	-0.000605828126973554	-0.00394868594949945
1.14	10.3912735453201	3.90711125776527	707.489250252812	-42.2039652321051	8.55974218864298	-0.829519024788267	-0.256796013321965	-0.000659169211323585	-0.00410500169474814
1.15	10.3702504540307	3.87175394409515	707.419612439077	-42.1012357548939	8.51965238177541	-0.825654286529879	-0.254994260980877	-0.000714649231151098	-0.00424286864181366
1.16	10.3405155335171	3.83959911329881	707.360128613271	-42.012133131532	8.47836308143875	-0.819357804288536	-0.25111683865886	-0.000772018781124836	-0.00436231379232875
1.17	10.3023991436371	3.81043113920616	707.31069335568	-41.9364555874783	8.43609352357959	-0.810691899555777	-0.245205776995801	-0.00083097110316953	-0.0044635900911103
