Time [s]	GRFml [N]	GRFap [N]	GRFv [N]	Mml [N.m]	Map [N.m]	Mv [N.m]	Mfree [N.m]	COPml [m]	COPap [m]
0.01	-2.08581090736651	1.03605000485035	599.116406509634	21.8024649328915	39.2455923052958	0.424331296304809	-0.568061097490648	-0.00266388036485699	0.00119312518258269
0.02	-1.85260250281751	0.950811238213491	596.623379168268	21.7482290126422	39.073861487571	0.419737687064978	-0.549477513059734	-0.00259970629500705	0.00117658821170835
0.03	-1.61681232501912	0.890802312845002	594.379727386467	21.6889641519428	38.9110893338933	0.415455945786281	-0.532727440994898	-0.00255923865303531	0.00114755725220023
0.04	-1.37680888847988	0.873688719990468	592.586767125937	21.62239786952	38.7656368310068	0.411929195942202	-0.519327024055209	-0.00255861452655659	0.00109787599321937
0.05	-1.13840943386169	0.904223491922845	591.374540881473	21.5509814866372	38.6476216255279	0.409205999338968	-0.509845617236514	-0.00260166742475876	0.00103024157134329
0.06	-0.916148019409839	0.972657815189971	590.789277123745	21.4820158690861	38.5685512441506	0.406883262516359	-0.503791840962515	-0.00267894732205909	0.00095895583437533
0.07	-0.73156611789792	1.05759263419376	590.798160667396	21.425887059617	38.5395994402734	0.404188087047539	-0.49981300806979	-0.00277097730327991	0.00090646953474488
0.08	-0.608947200933064	1.13242551706452	591.307766144079	21.3929895104309	38.5690464307144	0.400141338586899	-0.49611349040773	-0.00285455248912481	0.000897013188864981
0.09	-0.569524672488259	1.17342344453326	592.188780687462	21.3903536030281	38.6596545232157	0.393730126326036	-0.490932133801908	-0.00290992165376303	0.000949442342581153
0.1	-0.625524573864502	1.16692753832843	593.298906880691	21.4190865642515	38.8067236764733	0.38403779231903	-0.482917807723752	-0.00292649196753603	0.00107145365312122
0.11	-0.775466292101587	1.11344321894918	594.498336842162	21.4734731339017	38.9973659797258	0.370323608066253	-0.471302607077086	-0.00290529157996722	0.00125669467679845
0.12	-1.00195000303823	1.02732767273136	595.656674636362	21.5420584296654	39.2112685525582	0.352085672518742	-0.455866890162662	-0.0028575789475348	0.00148533061309869
0.13	-1.27272182416674	0.932167751059367	596.654558967299	21.6104180623265	39.4229517938236	0.329156607540741	-0.436778862780169	-0.00280029217679589	0.00172770121867838
0.14	-1.54516091475444	0.853310439198256	597.385526802352	21.6648033122697	39.6052879224907	0.301861308732507	-0.414436005293713	-0.00275004048885408	0.00195004405696003
0.15	-1.77356324819652	0.809919753121156	597.762874490852	21.6955926735243	39.7338092511329	0.271215385675609	-0.389416695886507	-0.00271772329646858	0.002120960363858
0.16	-1.91785714331362	0.809083850628519	597.732823833812	21.6995604619079	39.7911107591395	0.239084827447926	-0.362576142780937	-0.00270551893759952	0.00221731512037471
0.17	-1.95187512290761	0.843829245805712	597.29079159978	21.6803529785084	39.7704882018173	0.208193070880752	-0.335225555558483	-0.0027070723132615	0.00222849678271031
0.18	-1.86921389917167	0.895634149547365	596.49409587524	21.6471104725489	39.6779381754088	0.181876660029505	-0.309263599342922	-0.00271057926425078	0.00215832446000741
0.19	-1.68513971061509	0.940590202008422	595.463709999797	21.6117083820538	39.5318568346987	0.163560984600351	-0.287121230374351	-0.0027035222218732	0.00202432086652926
0.2	-1.43388834860137	0.957217741320426	594.37025866356	21.5854502976133	39.3602203554981	0.156032845992563	-0.271443864845644	-0.00267736601176471	0.00185452581274298
0.21	-1.16185106716739	0.933461967956262	593.404518853334	21.5761352280258	39.1956279418939	0.160686426920291	-0.264544425700998	-0.00263068020056101	0.0016824590627571
0.22	-0.918201448045317	0.870719505902747	592.73835614004	21.5862449505589	39.06917133026	0.176970219524069	-0.267770887825064	-0.00256979709853389	0.00154118632550809
0.23	-0.745175597638538	0.783728259383528	592.486108073396	21.6126359048847	39.0044731456412	0.202237760082942	-0.280994970089392	-0.00250697074174344	0.00145762254277609
0.24	-0.670261362430425	0.696449146570477	592.677309171822	21.647697300357	39.0132693854921	0.232106455229488	-0.302416239629245	-0.00245676662874217	0.00144816481908322
0.25	-0.701975805367309	0.635251658085117	593.248923515838	21.6815714592277	39.0935650714878	0.261285879562098	-0.3287896122932	-0.00243185991132211	0.00151647128336685
0.26	-0.829911642263677	0.621435318208943	594.059822528735	21.7048059154482	39.2307566800459	0.284694935183414	-0.356053382541457	-0.00243946867764844	0.0016537404377629
0.27	-1.0286351629599	0.665203738241388	594.923947838569	21.7107532520242	39.4013733111715	0.298591110283515	-0.380204673638415	-0.00247935376641828	0.00184130152456352
0.28	-1.26414569422196	0.762692694930562	595.653458535128	21.6971448388594	39.5784535437617	0.301415602613665	-0.398184431754999	-0.00254381671905857	0.00205483279005292
0.29	-1.50117679197494	0.896740272870448	596.100683774736	21.6664986568471	39.7372198139111	0.294123855840807	-0.408524410709363	-0.00261958238599835	0.00226920554202692
0.3	-1.70968301665337	1.04106057706875	596.188437321946	21.625320615087	39.8597203074783	0.279906039983211	-0.411578501103359	-0.00269099503070092	0.0024628862803715
0.31	-1.86930916457057	1.16662223426946	595.921762443407	21.5823547269489	39.9374568218216	0.263368817071108	-0.409287454398319	-0.00274367491578142	0.0026210260898194
0.32	-1.97128497332535	1.24854324012626	595.37931390299	21.5463612353112	39.9715931172115	0.249398886096196	-0.404566376471527	-0.00276772161086081	0.00273676292443842
0.33	-2.01782199537281	1.27178597895222	594.687898161962	21.523997461591	39.9709775469409	0.242013295095628	-0.400509869235602	-0.00275971512063522	0.00281074243866963
0.34	-2.01956382526108	1.23434155741277	593.987815673457	21.5183182537739	39.9487454808952	0.243493392323905	-0.399645241073509	-0.00272311517199286	0.00284929218275948
0.35	-1.99189868855316	1.14729905798594	593.398582971292	21.5282192292965	39.9185563890719	0.254001814754758	-0.403422341311089	-0.00266710164151651	0.00286194860550804
0.36	-1.95100362643252	1.03200268731808	592.993926426947	21.5488771804721	39.891501388075	0.271730494610081	-0.412032317626535	-0.00260430741940354	0.00285907611922653
0.37	-1.91040689501892	0.915188287532772	592.791878286992	21.5729829340659	39.8744099676011	0.29347692098433	-0.424539163052226	-0.00254814206693632	0.00285014186013116
0.38	-1.87867872542253	0.823379981442062	592.761261124976	21.5923910256669	39.8697922347251	0.315447325740341	-0.439228749037525	-0.00251041394335705	0.00284289264413246
0.39	-1.85861496856487	0.777833872264667	592.841142694207	21.5997700932435	39.8771313001905	0.334065902852839	-0.454052305378257	-0.00249974004078257	0.00284333526523201
0.4	-1.84797399173422	0.790982751081526	592.966348687134	21.5899197242122	39.8948503534834	0.346620681167601	-0.467060286810808	-0.00252088363817482	0.00285616288834684
0.41	-1.84148734916585	0.864819767591629	593.090818843244	21.5605724436627	39.9221344857977	0.351663366915466	-0.476763398559263	-0.00257482527862296	0.00288517785635345
0.42	-1.83354575668373	0.991161925280108	593.20177068731	21.5126551027291	39.9599189325344	0.349158849650536	-0.482391991038312	-0.00265918431488354	0.00293335185462645
0.43	-1.82075315571235	1.15341367619414	593.320827143959	21.4500876094042	40.0107035427402	0.34042185820235	-0.484038323744309	-0.00276862870881533	0.00300238966210786
0.44	-1.80353704217339	1.3293527570661	593.492431627034	21.3792301207597	40.0772927862453	0.327882692205476	-0.482663881145026	-0.00289510766636025	0.00309192925616586
0.45	-1.78625466448094	1.49451320060436	593.763752508409	21.308072022423	40.1609455534204	0.314712452095797	-0.479954499351005	-0.00302800547040827	0.00319871697777546
0.46	-1.77570895782721	1.62581398622491	594.162752339522	21.2452281483325	40.2596303424005	0.304336222873806	-0.478025258999247	-0.00315450970700126	0.0033161689906519
0.47	-1.77855248975891	1.70507538141175	594.68150180684	21.1988063052873	40.3670614784421	0.299881784866319	-0.479015222164174	-0.00326051221335488	0.00343464888947875
0.48	-1.79851154419636	1.72197179798373	595.270107005798	21.1752468139432	40.4729566516407	0.303642930331924	-0.484653054684374	-0.00333219519627992	0.00354258917013017
0.49	-1.83451147158224	1.67587918923258	595.843355870357	21.178290608797	40.5645839426468	0.316659062739881	-0.495896287365562	-0.00335816447737158	0.0036283300552592
0.5	-1.88052934395916	1.57611281289379	596.298380507263	21.2082700451792	40.6292719393171	0.33850695381204	-0.512734875423877	-0.00333170022779528	0.00368232066297625
0.51	-1.92739612605436	1.44029677406704	596.538426153208	21.2619019333482	40.6572559088115	0.367360169576459	-0.534204823832405	-0.00325252869999948	0.00369918881070225
0.52	-1.96602380915626	1.29103417027638	596.496165887509	21.3326840004846	40.6441132953226	0.400307170891146	-0.558595779821051	-0.00312755201514348	0.00367917377965737
0.53	-1.99092633428157	1.15152523220643	596.150361876018	21.4118707584533	40.5921371526178	0.433852463592293	-0.583780798229241	-0.00297020570566808	0.00362853540453378
0.54	-2.00268437821506	1.0411306747291	595.531858546571	21.4898690192311	40.5102765341505	0.464480365455463	-0.607567528815478	-0.00279847263938815	0.0035587741293866
0.55	-2.00828263427678	0.971948558535057	594.71811163641	21.5577876905747	40.4126509150911	0.48915400570427	-0.627977691896537	-0.0026319517627118	0.00348476374515466
0.56	-2.0189474884547	0.947211768054308	593.818592533099	21.6088323279884	40.3160035387969	0.505654894112753	-0.643401467999445	-0.00248864161163931	0.00342214146774267
0.57	-2.04599804722247	0.961790613924525	592.955432628047	21.6392660295385	40.2366895215194	0.51272770920896	-0.652628789060208	-0.00238216728952045	0.00338445724423403
0.58	-2.09598842328536	1.00447545493813	592.244047783865	21.6487577404826	40.1878426473309	0.510057925733695	-0.654808528019504	-0.00232003488931198	0.00338062308059484
0.59	-2.1667944752864	1.06123120940426	591.777347734085	21.6400809902972	40.1772427284506	0.49815273004691	-0.649410283036332	-0.00230319084273867	0.00341312860451232
0.6	-2.24613780774885	1.11842751940739	591.615197808359	21.6182728593367	40.2061820454655	0.47820325260502	-0.636252825105986	-0.00232680098343885	0.00347733525465355
0.61	-2.31336535830808	1.16520836096379	591.778982696338	21.5894764330948	40.2693939686075	0.451978372173063	-0.615622438523952	-0.00238186455954126	0.00356197301293609
0.62	-2.34430023773392	1.19458826543247	592.250140319457	21.5597425868512	40.3559295586186	0.421752376998899	-0.588449255400838	-0.00245713149927917	0.00365077699379396
0.63	-2.31795209643363	1.20336386598021	592.97161714177	21.5340485290497	40.4507759174437	0.390224696103608	-0.556462617124624	-0.00254082795188804	0.00372503666786711
0.64	-2.22316081573666	1.19130630633964	593.852047081622	21.5157100000633	40.5369873054724	0.360371997861356	-0.522228148304869	-0.00262188285536158	0.00376669557303033
0.65	-2.06311153513921	1.1602201916542	594.773432713171	21.5062462578753	40.598106228592	0.335190893536995	-0.488990042419712	-0.00269060640403207	0.00376153945081087
0.66	-1.85619468525224	1.11330863814787	595.603515852459	21.505636218223	40.6206475506289	0.317335198500818	-0.460296822997479	-0.00273899987723825	0.0037019583054409
0.67	-1.63275487826086	1.0549757399241	596.213405813762	21.512814580545	40.5963858833733	0.308703211647542	-0.439457877386262	-0.00276098930255697	0.00358878353072073
0.68	-1.42853470228716	0.99088718134678	596.499365234544	21.5262225464784	40.5241355377887	0.310063550257184	-0.428935716474182	-0.00275283038328922	0.00343180454171926
0.69	-1.27663948652693	0.927937404615233	596.405415396243	21.5442548787673	40.4106777066019	0.32080927133287	-0.429805591415377	-0.0027137478369923	0.00324876377468652
0.7	-1.20026775536301	0.873802378685389	595.941486839952	21.565519018622	40.2705156737037	0.33890297110008	-0.441404735251507	-0.00264662674351701	0.00306289079840316
0.71	-1.2081324210515	0.835960802091742	595.191176575242	21.5889121086659	40.124261194631	0.361036610428171	-0.461257260333765	-0.00255837841305362	0.00289931614375699
0.72	-1.29358119265683	0.820340106406607	594.304447866673	21.6135919843054	39.995682078296	0.382996102347692	-0.485312684515393	-0.0024595612779682	0.00278094221553887
0.73	-1.43726612557896	0.829958287449105	593.473838486966	21.6389409044342	39.9077413834565	0.400199123012903	-0.508487090756247	-0.00236299671248752	0.00272448830967231
0.74	-1.61222747187143	0.863991409660676	592.897173448912	21.6645888446478	39.8782621006026	0.408359157210934	-0.525448506236426	-0.00228144664126828	0.00273743589225273
0.75	-1.78975651164737	0.917577175573659	592.734085186452	21.6904942908602	39.9160642455032	0.404207867311734	-0.531540449273095	-0.00222480302837225	0.00281647088740589
0.76	-1.94448528314256	0.982427846114268	593.066393473062	21.7170106020049	40.0184579130205	0.386176220645538	-0.523692358149177	-0.00219752936607298	0.0029477691469329
0.77	-2.05769782573236	1.0480820497258	593.872564033084	21.7448332681449	40.17079138415	0.354901493918453	-0.501135199865953	-0.00219716275530024	0.00310914078826846
0.78	-2.11860355210874	1.10347817796126	595.023801042191	21.7747498459632	40.3483666899378	0.313413805325368	-0.465744040343041	-0.00221447855403223	0.00327369931427191
0.79	-2.12396702768238	1.13852673140113	596.304442047145	21.8071947705499	40.5205278335326	0.266884656146975	-0.421881678320843	-0.00223548340521973	0.00341442205520964
0.8	-2.07683882508589	1.14546395134099	597.453467849183	21.841714259173	40.6562210065017	0.221899915963627	-0.375717604728798	-0.00224486678220559	0.00350878303359409
0.81	-1.98511376461626	1.11990259396688	598.218629565372	21.8765277073868	40.7299486730625	0.18533707208541	-0.334122818225004	-0.00223007485546156	0.00354260957959107
0.82	-1.86034131226646	1.06157523137156	598.411295530971	21.9083925181914	40.7268884001542	0.16304752496549	-0.303356903218793	-0.00218492399028547	0.00351244888752711
0.83	-1.71681384569717	0.974752916578309	597.949518946045	21.9329219607706	40.6460678187059	0.158627916575868	-0.287831947934628	-0.00211172909325286	0.00342600376709085
0.84	-1.57066110201783	0.868241849798038	596.879231630605	21.9453817918095	40.5008609772179	0.172577533040503	-0.289234749960435	-0.00202127838154231	0.00330055279870767
0.85	-1.43860952669934	0.754784262322171	595.368351253225	21.9418374073397	40.3166211688045	0.202070512446187	-0.306212515369815	-0.00193054680369631	0.00315963860251123
0.86	-1.3362287804534	0.649696626356983	593.674782431129	21.9203887730142	40.1258709993304	0.241435608283222	-0.334697246146266	-0.00185864940905089	0.00302862035991941
0.87	-1.27578161894167	0.568712979934684	592.095262364278	21.8821614754477	39.9619963495681	0.283266695142772	-0.368793734097579	-0.00182202068215676	0.00292989045888831
0.88	-1.26406949131366	0.525245504221446	590.906255459536	21.8317455342391	39.8527179624737	0.319928835881076	-0.402023876317135	-0.00183002924195763	0.00287862073811423
0.89	-1.30080571697979	0.527548742847232	590.309619790068	21.7768864511898	39.8146695770608	0.345121092572356	-0.428639864345644	-0.00188214121871877	0.00287982441474127
0.9	-1.37800774081151	0.576465897719166	590.394305435432	21.7274053127669	39.8501851389186	0.355138499780354	-0.444711727830378	-0.00196736581657209	0.0029273066122083
0.91	-1.48070998296688	0.664446063210096	591.121457623242	21.6935116552284	39.946943278029	0.349548692982724	-0.44876202856201	-0.00206616326083509	0.0030047557303563
0.92	-1.58902727102355	0.776305646903572	592.335097200083	21.6838294859806	40.0805352503352	0.33114380170196	-0.441841729995228	-0.00215441227042013	0.00308884163334983
0.93	-1.68131418367383	0.891799549715356	593.795301567678	21.7035483402173	40.2194335814262	0.305204403007381	-0.427080019419876	-0.00220855776376849	0.00315379381842024
0.94	-1.73791979025881	0.989576332876599	595.226568269717	21.7531152626084	40.3313578921017	0.278270967872038	-0.408857543640443	-0.00221079167895133	0.00317660669641157
0.95	-1.74486920984875	1.05166761551804	596.371479048028	21.8277920939055	40.3897527518805	0.256719041343115	-0.391818381538656	-0.00215311464814738	0.00314183658695466
0.96	-1.69674675805188	1.06744800850553	597.039170398476	21.9182263509529	40.3790653146784	0.245457162405763	-0.37994181209935	-0.00203938223910993	0.00304497758047123
0.97	-1.59813672939732	1.03607932775239	597.139422908348	22.0119587433886	40.2977499191056	0.24701450993938	-0.375850452597537	-0.00188489541312165	0.0028936551636729
0.98	-1.46320519656404	0.966808438576085	596.69612854658	22.095573280625	40.158394280758	0.261180468609708	-0.380458318514762	-0.0017136385500085	0.00270632484595307
0.99	-1.31335670508009	0.877017261273619	595.83798400318	22.1570494293538	39.9849664925232	0.285231687270128	-0.392984060299726	-0.00155376562726006	0.00250871295832195
1	-1.17331345374918	0.788469857739166	594.768778820928	22.1878421145461	39.8077924962354	0.31466302188915	-0.411287650170921	-0.0014322720963803	0.00232874947826539
1.01	-1.06634980992924	0.722615501989875	593.723733569573	22.1842973611236	39.6573483449533	0.344247343293112	-0.432439878016502	-0.00136990832516759	0.00219107893755649
1.02	-1.00966766749369	0.695995256826022	592.921116770314	22.1481724084723	39.5581786773251	0.369195403396313	-0.45340269903595	-0.00137729611049731	0.00211230660822809
1.03	-1.01093269905417	0.716745979690856	592.519159810186	22.0862128997943	39.5241844107997	0.386173604126094	-0.471683075554753	-0.00145295385235622	0.00209793715349599
1.04	-1.06677407744449	0.782944248466662	592.586868508996	22.0088975610493	39.5561873494431	0.393964961047389	-0.485825492757413	-0.0015835843890335	0.00214156391804365
1.05	-1.1636183257948	0.883154809573279	593.094043178981	21.9285701851128	39.6421694518888	0.393626278416093	-0.49563455142579	-0.00174659056055304	0.00222638357778293
1.06	-1.28068635099855	0.99911272533077	593.92152087281	21.857244649871	39.7600247354148	0.388098098500543	-0.50207316865821	-0.00191440265879594	0.00232865548638189
1.07	-1.39447389918662	1.11003401884868	594.888443715968	21.8044090605975	39.8821740047743	0.381349513971249	-0.506859466400961	-0.00205986880266162	0.00242237855242888
1.08	-1.48369558022013	1.19767597607578	595.790218288637	21.7751809891843	39.9810679892368	0.377261222628613	-0.511869268894153	-0.00216171822277234	0.0024842641755517
1.09	-1.53358790583742	1.25102844047634	596.439331232316	21.7691678849168	40.0344901705791	0.378532541488092	-0.51851457485121	-0.00220901061389189	0.00249805786424728
1.1	-1.53864941235725	1.26949066745994	596.70137219172	21.7803365672316	40.0296687412251	0.385909674035232	-0.527285187060231	-0.00220358298481171	0.00245740391121096
1.11	-1.50328397916528	1.26362845556411	596.520117133703	21.7980624602507	39.9654814111737	0.397959079995039	-0.537597730808791	-0.00215982666545245	0.00236673801447906
1.12	-1.44029654597441	1.25310356591387	595.92779045701	21.8093043806524	39.8524223616356	0.411464756053491	-0.548002127322221	-0.00210164973631	0.00224008542208198
1.13	-1.36764827739425	1.26203077525563	595.039150742802	21.8015669222731	39.7104175493133	0.422351774837409	-0.556679835126246	-0.00205711643832218	0.00209805905338051
1.14	-1.3042157631958	1.31269233135828	594.030509570779	21.7660445847008	39.5649449551973	0.426884691691967	-0.562071244626004	-0.00205185826307042	0.00196369833695065
1.15	-1.26546485572986	1.41905062964611	593.107040532409	21.700185702638	39.4421826564466	0.422807205951586	-0.563427017469478	-0.00210275025529449	0.00185798552689997
1.16	-1.25993556017755	1.5817018328754	592.463662756204	21.608951153646	39.3640433852951	0.410104619525155	-0.561106019712153	-0.00221339829858636	0.00179588904017536
1.17	-1.2872599481334	1.78572335642768	592.246203554519	21.5043025900131	39.3439610234124	0.391177293111748	-0.556530383332757	-0.00237262862559418	0.00178363619406463
1.18	-1.33813514126194	2.00228672256818	592.520134862974	21.4028937181495	39.3841858913685	0.370376787987869	-0.551822788089441	-0.00255646523334174	0.00181766977319753
