Time [s]	GRFml [N]	GRFap [N]	GRFv [N]	Mml [N.m]	Map [N.m]	Mv [N.m]	Mfree [N.m]	COPml [m]	COPap [m]
0.01	-4.13064312601982	1.37938573682459	728.174860558437	-5.95678241731492	39.231878139242	0.271895246578755	-0.312435889384	0.000743861658093037	0.00855834065044503
0.02	-4.06081224609937	1.57143299232763	728.023542364461	-6.02615807454569	39.27079795524	0.245896445068159	-0.297102071817642	0.000646808521419406	0.00862835377637416
0.03	-3.99499954559886	1.74558879220589	727.867757127466	-6.08877417312377	39.2929209761694	0.223033094250679	-0.283899196447717	0.000558944963221619	0.00867536621379644
0.04	-3.93566037170463	1.88794427800656	727.69862789105	-6.13866420075921	39.2859823067158	0.205852477737416	-0.274604482860347	0.000488322266405605	0.00868297286896236
0.05	-3.88227783231886	1.99066698080858	727.508782276918	-6.1719563439135	39.2436986855781	0.195969156463893	-0.270418686044244	0.000440142059987991	0.00864296727320868
0.06	-3.83194994532952	2.05273070443793	727.29630715053	-6.18738883709831	39.1667898467302	0.193843665077299	-0.271779150008924	0.000416098576935253	0.00855647279167077
0.07	-3.78113836892918	2.07889354021521	727.069008173069	-6.18633494559622	39.0622941073293	0.198791217977127	-0.278297131041047	0.000414396883054446	0.0084326821752681
0.08	-3.72761198084982	2.07744569864394	726.846813313827	-6.17240437858996	38.9413608019256	0.209212081894917	-0.28884735346982	0.000430329774426363	0.00828561867154631
0.09	-3.6715390533831	2.05761131381969	726.660142298645	-6.15076837029546	38.8161074898706	0.222986561263255	-0.301809790818681	0.000457185035981134	0.00812989505374639
0.1	-3.6151326871236	2.0274856946346	726.543290546834	-6.12737174517969	38.6963738875902	0.237944066018977	-0.315426743091157	0.000487246805736641	0.00797669406162971
0.11	-3.56099195962251	1.99305218428234	726.523961995092	-6.10816029563125	38.5872233755426	0.252302407363784	-0.32820081194029	0.000512727467982921	0.00783106565012454
0.12	-3.50994468919279	1.95832034632249	726.61211008946	-6.09840025295632	38.487836529213	0.264980594445692	-0.339233667349249	0.000526561801527325	0.00769120154658226
0.13	-3.45947924390737	1.92617923050785	726.792209269504	-6.10212890957845	38.3920657069706	0.275714943517358	-0.348404908096458	0.000523059457559705	0.00754975784620404
0.14	-3.40363017676592	1.89933886814945	727.022408092035	-6.12176136236239	38.2904716771622	0.284952368340484	-0.356323445489721	0.000498424624782112	0.00739672680596115
0.15	-3.33456233354044	1.88080131613338	727.241860189324	-6.15787774438967	38.1732590336318	0.293550965746093	-0.364048049247615	0.000451128042411986	0.00722295876900142
0.16	-3.24535877742837	1.87359830940249	727.384706356455	-6.20921134022243	38.0332786889035	0.30237460905389	-0.372651826019151	0.000382088498858013	0.00702329828532156
0.17	-3.13297983273422	1.87991161159011	727.396801479996	-6.27284142750213	37.8682501054048	0.311907264035962	-0.382769258340054	0.000294614076852384	0.00679844959054671
0.18	-3.00024568565198	1.89999372908249	727.250256008011	-6.34456932665983	37.6815860448197	0.322016140659801	-0.394285529553391	0.000194073534871664	0.0065550769718371
0.19	-2.85603867242302	1.93141723405576	726.951526880787	-6.4194328167082	37.4816142842771	0.331952142886611	-0.406291201474201	8.7305235132118e-05	0.00630416296743963
0.2	-2.71357111896028	1.96907159594516	726.540810065714	-6.4923002577227	37.279458241912	0.340599682410062	-0.417338667311775	-1.81881612102419e-05	0.00605814395680632
0.21	-2.58725640088992	2.00605367428474	726.083062723215	-6.55848000707722	37.086216689566	0.346900228225366	-0.425929604392001	-0.000115172839064148	0.00582767706330273
0.22	-2.48919118203634	2.03527244421561	725.653245784887	-6.61427631400711	36.9102579398471	0.350306767767364	-0.431074642921714	-0.000197623651529755	0.00561897139155193
0.23	-2.426341364925	2.05132719764934	725.319710166827	-6.65741678551348	36.755370837792	0.351106118130851	-0.432731664798209	-0.000261521746846016	0.00543242268825223
0.24	-2.39921222784852	2.05210311378118	725.129835499198	-6.68727513661425	36.620227793922	0.350483044492511	-0.431962298293654	-0.000305353059610103	0.00526288546707471
0.25	-2.40221352658139	2.03958512717169	725.101201602773	-6.7048290004602	36.4992120676099	0.350283795678972	-0.430736943145772	-0.000330179644273176	0.00510142458329294
0.26	-2.42533577314633	2.01959551322141	725.220059241867	-6.71233507728018	36.3842708019501	0.35253840478043	-0.431435294664033	-0.000339231252985184	0.00493796056632534
0.27	-2.45636987332554	2.00045379453486	725.44705637917	-6.71276866678709	36.2671945744724	0.358884486515957	-0.436190422084261	-0.000337076454126728	0.00476399283256296
0.28	-2.48287144519691	1.99086474062539	725.728450455122	-6.70914260038526	36.1416640684176	0.370069807005906	-0.446274539826943	-0.00032854975049823	0.00457462216451465
0.29	-2.49338125655621	1.997583380727	726.009755520857	-6.7038654335861	36.0045471952375	0.385684385315296	-0.461707691890245	-0.000317692050602725	0.0043693772414119
0.3	-2.47789932710005	2.02351463274817	726.248248036036	-6.69829919638828	35.8562114147134	0.404196537081368	-0.481195799216019	-0.000306972214514589	0.00415177078680795
0.31	-2.4280273800721	2.06683133734849	726.421172985925	-6.69262722840696	35.6999309619262	0.423270933433918	-0.502401445212886	-0.000296985934365557	0.00392791290287825
0.32	-2.33733295126023	2.12143204802376	726.527799682033	-6.68605595894786	35.540711298775	0.44026604722621	-0.522456452736311	-0.000286693252542936	0.0037047512805452
0.33	-2.2022790518194	2.17866168981583	726.585318855142	-6.6772785051556	35.3839556893827	0.452769811164562	-0.538569358268463	-0.000274099811471973	0.00348852181216147
0.34	-2.02361600340275	2.22979770631186	726.620362773792	-6.66505338464833	35.2343534517695	0.459043324236892	-0.548575261711418	-0.000257159474012281	0.00328380782512638
0.35	-1.80768599240043	2.26851040999638	726.659065840513	-6.64872067277766	35.0952229118502	0.458290494291011	-0.551312893608861	-0.00023461614336584	0.00309332686277675
0.36	-1.56689449427454	2.29246954782964	726.718706789035	-6.62849799416582	34.9683673832068	0.450732073187292	-0.546773830230714	-0.000206526154696407	0.00291831529120135
0.37	-1.31878488465098	2.30353795945766	726.803127184146	-6.60546333455025	34.8543623604866	0.437511295108232	-0.53602857079827	-0.000174301013848188	0.00275924639104025
0.38	-1.08365172442706	2.30649303000737	726.902704385808	-6.5812246280322	34.7531143208639	0.420481567239317	-0.52097693829929	-0.000140256803458749	0.00261660790139018
0.39	-0.881219231203544	2.30676355130935	726.998221684096	-6.55737476979158	34.6645084456727	0.401925407740335	-0.503990087369137	-0.000106812979143056	0.00249153201291641
0.4	-0.727317234260671	2.30804271559856	727.06698395685	-6.53490807544239	34.5889710908901	0.384240403790767	-0.487512398495688	-7.56055143856793e-05	0.00238615117741564
0.41	-0.631517016298012	2.3106790413556	727.089191863642	-6.51380324711919	34.5277977452783	0.369617452798688	-0.473682873188486	-4.68260165840118e-05	0.00230361083054792
0.42	-0.596333451477533	2.31143584529516	727.052872830298	-6.49294061724847	34.4831406495083	0.35973787224617	-0.464025422265161	-1.90439618383831e-05	0.00224771069954832
0.43	-0.618027735504495	2.3046746994451	726.956363181368	-6.47041950054042	34.4576219364997	0.355527268554003	-0.459248513220971	1.03818450771787e-05	0.00222219755667691
0.44	-0.688516854246486	2.28447762947575	726.808172455299	-6.44420182880231	34.453636800687	0.357014512625342	-0.459184322201354	4.44028024356724e-05	0.00222981086556551
0.45	-0.797629622969871	2.24688940131611	726.624788677067	-6.41287802800142	34.4725133944917	0.363340731290478	-0.462880891730218	8.51831733673647e-05	0.00227127358924162
0.46	-0.935016947247821	2.19145514119468	726.427416617588	-6.37628206946848	34.5137625854161	0.372938450643641	-0.468835285895535	0.000133200319531568	0.00234448197367737
0.47	-1.09133291317593	2.1215350990818	726.238684857633	-6.33571038823008	34.5746468351429	0.383857993306709	-0.475324394816933	0.000186898582659856	0.00244413918178743
0.48	-1.25866450556351	2.04336251341662	726.080033389772	-6.29362579813732	34.6502150030331	0.394170442162566	-0.480761575891081	0.000243071857996768	0.00256198534619245
0.49	-1.43042930942715	1.96427583470463	725.969953071486	-6.25291439155374	34.7338149700408	0.402343059234644	-0.483993160269794	0.000297882031182195	0.00268762681816254
0.5	-1.60101509701376	1.89082448745982	725.92274157997	-6.21594191210314	34.8179586070724	0.407481088980997	-0.484458472646385	0.000348165080317875	0.00280981234025829
0.51	-1.76535376595372	1.82742700559577	725.947222935248	-6.18375196350013	34.8953243731741	0.409366584283087	-0.482173133216836	0.000392540318541967	0.00291789631773909
0.52	-1.91851707674863	1.77598128297678	726.045083978239	-6.15571411061405	34.9596702503433	0.408292286682067	-0.477550635056297	0.000431888448915285	0.00300319960253304
0.53	-2.05538338520841	1.73641986891375	726.209035394115	-6.12976966192883	35.0064897200107	0.404763639386976	-0.471133887229496	0.000468993681232099	0.0030600254386336
0.54	-2.17046567410246	1.70783955895238	726.421627858355	-6.10319632512126	35.0333443640617	0.399193976464351	-0.46334361656987	0.000507467781315385	0.0030861868932297
0.55	-2.25804882748006	1.68965020292807	726.655881424894	-6.073611850033	35.0399049558066	0.391721531677062	-0.45434561889188	0.000550357783210664	0.00308301599659888
0.56	-2.31277174471455	1.68223290569651	726.878644754174	-6.03984475052488	35.0277917105538	0.382225664354758	-0.444090194666672	0.000598965122786677	0.00305492095732252
0.57	-2.33066240807618	1.68682986756892	727.056756231182	-6.0023545172003	35.0003072327948	0.370531957957531	-0.432501276783813	0.000652319952228586	0.00300861590061258
0.58	-2.31042523989522	1.70470405416755	727.164888465546	-5.96305932194984	34.9621119218904	0.356708747961053	-0.419721822742561	0.00070749787881097	0.00295216397933662
0.59	-2.25459004322151	1.73589259585378	727.192894091675	-5.9246518760645	34.9188316663821	0.341310582142818	-0.406289417024785	0.000760645382301472	0.00289396098248418
0.6	-2.17007119216866	1.77804665570157	727.150043837311	-5.88966495011214	34.8765499254188	0.32543986434633	-0.393139746812986	0.00080832363504213	0.00284176255138302
0.61	-2.0678105860109	1.82585851808632	727.064082738712	-5.85962151387024	34.841149175404	0.310571248374461	-0.381408107949088	0.000848683118158111	0.00280184162043601
0.62	-1.9614538053322	1.87142097476258	726.974493764591	-5.83455248443443	34.817533579982	0.298183159983808	-0.37208947421338	0.00088206826202919	0.0027783601161302
0.63	-1.86532606394995	1.90557922977035	726.921317110632	-5.81301882772554	34.8088591930161	0.289324644682971	-0.365685821893793	0.000910874754255664	0.00277304154680419
0.64	-1.79220331284981	1.9199936537374	726.932628121859	-5.79259631267899	34.8159730719139	0.284278752028486	-0.361984769126723	0.000938748674711443	0.00278521956717875
0.65	-1.75142781213992	1.90933809377241	727.014626406729	-5.77063619590454	34.8372716688592	0.28245321931607	-0.360069005036955	0.000969427631612896	0.00281229349551382
0.66	-1.74778887960313	1.87292783511583	727.147819182805	-5.74504844272263	34.8691087729861	0.282548697287357	-0.358570265611656	0.0010056125890735	0.00285054106377541
0.67	-1.78134199334188	1.81518231347195	727.29104924494	-5.71487708451151	34.9067294054803	0.28295628715379	-0.356090165895933	0.00104820962764263	0.00289613957227891
0.68	-1.84807034352071	1.74467469812295	727.392651822667	-5.68052858370441	34.94552945686	0.282256474558432	-0.351648874509379	0.00109612843377882	0.00294616523358826
0.69	-1.94109094209455	1.67199486783237	727.405649996317	-5.64363205218829	34.9823082439098	0.279657759199691	-0.345012811091662	0.00114663516354918	0.00299931470200243
0.7	-2.05202484179918	1.60707421082754	727.302442052594	-5.60661149255321	35.0161471170786	0.275234258651941	-0.336794243405993	0.00119610051985619	0.00305614304377566
0.71	-2.17219582162047	1.55681494845292	727.084424198386	-5.57210638797761	35.048631862803	0.269887514037753	-0.328290645477725	0.00124090495150719	0.00311873100865273
0.72	-2.29346281446994	1.52374674879296	726.783463177424	-5.54238225391504	35.0833180009932	0.265046169107235	-0.321113508105538	0.00127827055699103	0.00318984827986823
0.73	-2.40866985997307	1.50604726593349	726.45461265248	-5.5188411909487	35.124560726553	0.262201168737816	-0.316720637923877	0.00130685945212117	0.00327182271667154
0.74	-2.51184493724281	1.49877393541423	726.162142183402	-5.50169701611052	35.1760255958087	0.26242899607832	-0.315996436049263	0.00132707063097015	0.00336541600449181
0.75	-2.59834009281993	1.49576272656952	725.962951579051	-5.48984029057627	35.2393011651306	0.266063733690861	-0.3190136959828	0.00134104439363714	0.00346901699821139
0.76	-2.66506050799934	1.49150088186184	725.892151844904	-5.48089524749278	35.3130172836705	0.272634301265942	-0.325059122997584	0.001352424549385	0.00357839117944714
0.77	-2.71080790901905	1.48240397319334	725.954825754302	-5.47146156530724	35.392736611416	0.281095541677238	-0.33292372855941	0.00136593360814352	0.00368708627037995
0.78	-2.7366283941814	1.46723484787245	726.126038704527	-5.45752987689426	35.4716718731602	0.290276981513785	-0.341369939822249	0.00138680063515528	0.00378742559762779
0.79	-2.74597390111035	1.44674172405722	726.358712940643	-5.43504988625246	35.5420504917619	0.299387999851498	-0.349618903106142	0.00142006756416091	0.00387186609120788
0.8	-2.7444959205482	1.42282589325598	726.596781569903	-5.4006066334349	35.5967687041003	0.308387454718139	-0.357681839264763	0.00146980650559325	0.0039343978610723
0.81	-2.73937933356341	1.39760962728742	726.789736539526	-5.35212368937985	35.630899487798	0.318066438294655	-0.366402256122722	0.00153831570610297	0.00397164402006867
0.82	-2.73825133326798	1.3726848396966	726.904581019772	-5.28947054940252	35.6426616528542	0.329794067022807	-0.377172066381808	0.0016254173466268	0.00398338793500697
0.83	-2.74782122847918	1.34866643105391	726.932210437492	-5.21482182260059	35.6336056216564	0.345001751014843	-0.391402177411733	0.00172803285412459	0.0039723932283604
0.84	-2.77249661253944	1.32504189544831	726.886986034663	-5.13261855195438	35.6079822732288	0.364583163685107	-0.409923272470587	0.00184022800515249	0.00394355649707767
0.85	-2.81327250286361	1.30025164568964	726.800183012431	-5.04903430537205	35.5714792396601	0.388425123644125	-0.432527603081771	0.00195387057478147	0.00390260368435436
0.86	-2.86719547846567	1.27194648864334	726.70955833401	-4.97095459490093	35.5296788185501	0.415243514007429	-0.457821972180137	0.00205991552998719	0.00385466814116348
0.87	-2.92764556915949	1.23740344905643	726.648105802702	-4.90462024245583	35.4866678903745	0.442793712147416	-0.483459074193222	0.00215014620014653	0.00380313599169246
0.88	-2.98553255985988	1.19408843103237	726.634994308908	-4.85422311908802	35.4441864217747	0.468396277707407	-0.506686298330914	0.00221900844931577	0.00374908741199015
0.89	-3.03127182706219	1.14031242783843	726.670823474946	-4.82082293396884	35.4015395921297	0.489613043189268	-0.525044379354609	0.00226505356329787	0.00369149774536343
0.9	-3.05713611382721	1.07585593165139	726.738003250899	-4.8019305885193	35.3562586988519	0.504862767567295	-0.537000259388764	0.00229152154203183	0.00362812253505451
0.91	-3.05936702716913	1.00237997663783	726.805705292258	-4.79196136311146	35.3052521259428	0.513791980373627	-0.542323843653334	0.00230577651310349	0.00355674802893341
0.92	-3.03937840109355	0.923447735082493	726.837835601152	-4.7835279206801	35.246028368684	0.517301732531542	-0.542104705859629	0.00231761595610425	0.00347633812182585
0.93	-3.00355875241694	0.844067218105799	726.802047181524	-4.769286663629	35.1775646286668	0.517241448211498	-0.538419311160257	0.0023368243012124	0.00338762644813578
0.94	-2.9615656560229	0.769813755566905	726.677915838941	-4.7438576417676	35.1005458636976	0.515878122336566	-0.533761974594738	0.00237061015044759	0.00329290273674443
0.95	-2.92349181571737	0.705747012738803	726.462831923239	-4.70528134114408	35.0169511083045	0.515302927377012	-0.53041151501504	0.00242165144218365	0.00319505841766399
0.96	-2.89670013108598	0.655434816207081	726.17467113666	-4.65558637645769	34.9292118639102	0.51693671843278	-0.52990688767505	0.00248732839659771	0.00309626119857126
0.97	-2.88330626093479	0.620384823935389	725.850756098692	-4.60029367321111	34.839309538743	0.52124962814145	-0.532756302609972	0.00256038439778006	0.00299679217881221
0.98	-2.87914184394377	0.600057138540175	725.543020036983	-4.54699660631947	34.7481633546583	0.527739714760254	-0.538427698657154	0.00263082741688614	0.00289453037354626
0.99	-2.87459150629889	0.592429555702858	725.309747662773	-4.50342943028868	34.655506189517	0.535145885766793	-0.545590653502084	0.00268851203321019	0.00278532764842815
1	-2.85710927164353	0.594891123006694	725.204885540388	-4.47557835714789	34.5602302074249	0.541819176443406	-0.552522243289656	0.00272564939119746	0.00266418146118086
1.01	-2.81468943150499	0.605128954709397	725.266636106995	-4.46635778435687	34.4610016196553	0.546151773910825	-0.557562654814175	0.00273853933726309	0.00252681665165777
1.02	-2.73927395175504	0.621692809869483	725.507654354932	-4.47518599834608	34.3568646200613	0.5469636534543	-0.559510208229841	0.00272808065752372	0.00237114128746818
1.03	-2.62911391000761	0.644063039745098	725.909338477663	-4.49851758679463	34.2475977820571	0.543765902827833	-0.557872198540606	0.00269899727002187	0.00219809197841631
1.04	-2.48944150416746	0.67225277399746	726.42219383432	-4.53111350326627	34.1337193806034	0.536850382984309	-0.552927297438889	0.00265809513021298	0.00201160214941487
1.05	-2.33132899191135	0.706162430194344	726.973019815043	-4.56763560147091	34.0161966273639	0.527191471745184	-0.54559784866381	0.00261212381837694	0.00181772530760332
1.06	-2.16913796926592	0.744998434079389	727.47797268447	-4.60409048099728	33.8960308956944	0.516183070701696	-0.537169337094643	0.00256589060988277	0.00162321572709945
1.07	-2.01733149840191	0.787029582557263	727.858872218203	-4.63872536356605	33.773924287602	0.505268856874026	-0.528924787383999	0.00252115551357246	0.00143402178544511
1.08	-1.88752963991821	0.82979972465796	728.058994303584	-4.67216348021956	33.6501779386922	0.49555076761219	-0.521780203126267	0.00247657241196664	0.00125414123477918
1.09	-1.78652721908628	0.870712315289307	728.054451019375	-4.70679746605134	33.5248598872785	0.487473426393758	-0.516010392306824	0.00242862090328966	0.00108513854091608
1.1	-1.71564480051202	0.907742510257503	727.858242984372	-4.74566855702593	33.3981602823339	0.480674288437536	-0.51114035272013	0.00237319104626998	0.000926393296903028
1.11	-1.67138703101002	0.93998690723509	727.515952137053	-4.79119191014019	33.2707732363741	0.474057155272685	-0.506044998418043	0.00230731388960459	0.000775918598189484
1.12	-1.64706730584889	0.967844105990371	727.094286712076	-4.84411511988913	33.1441372027741	0.466092740342814	-0.499251774366896	0.00223051085668602	0.000631434898657135
1.13	-1.63489555497299	0.99278268217727	726.665606870932	-4.90301848177128	33.0204282278447	0.455284679513796	-0.489384460047103	0.00214535894713863	0.000491350536679536
1.14	-1.62801196085946	1.01681476020548	726.292550906624	-4.96450757417759	32.9023018425299	0.440680964540124	-0.475636453167279	0.00205709586063985	0.000355379687813295
1.15	-1.62202900788741	1.04188269083831	726.016650299364	-5.02405379907401	32.7924728892349	0.422280507434143	-0.458136123967461	0.00197235812792051	0.000224675364256799
1.16	-1.61576334386856	1.06935939467215	725.853470774092	-5.07725551171605	32.6932677312873	0.401198612039077	-0.438080548049551	0.00189738893884284	0.000101505727308937
1.17	-1.61098167007716	1.09978656626633	725.794803887808	-5.12116670480289	32.6062656171047	0.37951614351016	-0.417570765140892	0.00183621088532748	-1.13934647211211e-05
