Time [s]	GRFml [N]	GRFap [N]	GRFv [N]	Mml [N.m]	Map [N.m]	Mv [N.m]	Mfree [N.m]	COPml [m]	COPap [m]
0.01	0.0910216353949614	-2.42990621443017	721.151718490707	-3.13995466651854	28.8617469316412	0.712336842838058	-0.615488993657782	0.0107403970135369	-0.00453694463865234
0.02	-0.0111259284285357	-2.38539218843483	720.219661743872	-3.10289662538432	28.7327841066778	0.655840848627848	-0.560596281507736	0.0107858849689839	-0.00465993075141929
0.03	-0.0887754744411768	-2.33865424742497	719.308909002918	-3.08567644692503	28.6018423824306	0.602545567843075	-0.509118708796239	0.0108036259788483	-0.00478701893314781
0.04	-0.123664512529451	-2.28985993636398	718.438414084067	-3.10328415763559	28.4673923676444	0.555197852861591	-0.463890132914543	0.0107726293742676	-0.0049215252803978
0.05	-0.108464332263581	-2.24039921570085	717.631571885466	-3.16631852153305	28.330186074142	0.515685217660524	-0.426777279888438	0.0106781300628495	-0.00506376469097997
0.06	-0.0482921351558443	-2.19218557549494	716.915348866709	-3.27981982060471	28.1936773605631	0.484858532618996	-0.398520753527311	0.0105132340273115	-0.00521039933613915
0.07	0.0412594377705014	-2.14643304319726	716.316974443925	-3.44283480714351	28.0637191915418	0.462567217444167	-0.378828219672357	0.010279510105093	-0.00535467962864344
0.08	0.138859656279644	-2.10246091692444	715.859696793522	-3.64892786456524	27.9476513216693	0.44786047847852	-0.366648532795197	0.00998623940833021	-0.00548750347557503
0.09	0.223433349351268	-2.05713167494303	715.559109688002	-3.88765437366187	27.8530142023569	0.439269957300452	-0.360510754899627	0.00964831227465357	-0.00559904371064113
0.1	0.279617309591764	-2.00528138015812	715.420881100846	-4.14673707518598	27.7861824164752	0.435090649650635	-0.358820923976711	0.00928314290995813	-0.0056805708125956
0.11	0.30116426545207	-1.94106374243459	715.439873461536	-4.41445267829913	27.751203797627	0.433608613469197	-0.360058920789968	0.00890729220961195	-0.00572605904701928
0.12	0.291485859152273	-1.85969782533876	715.600112426194	-4.68165251715385	27.749065114048	0.433263031176664	-0.362877046837824	0.00853360285982807	-0.00573322745844845
0.13	0.261414573641201	-1.75888670263215	715.875082774223	-4.94295183201991	27.7775004135931	0.43275653704627	-0.366142023802893	0.00816949871583483	-0.00570382005670111
0.14	0.225063203080261	-1.63927351195491	716.228344387187	-5.19688650074179	27.8313430729069	0.431133986427823	-0.368969801570809	0.00781673853196396	-0.00564312588248178
0.15	0.195149180981615	-1.50369465505878	716.615123419543	-5.44514969632156	27.9033268831552	0.427841102079804	-0.370782414968409	0.00747248316021865	-0.00555891618999466
0.16	0.179212028741419	-1.35551682469905	716.985864728003	-5.69126688067329	27.9851828381923	0.42276091800427	-0.371383413230926	0.00713119276231644	-0.00546007908219309
0.17	0.177789966398949	-1.19677735456432	717.292362628358	-5.93916772619515	28.0688566694931	0.416215664877317	-0.371019454887713	0.00678672107528733	-0.0053552401205148
0.18	0.184955950193678	-1.02698734918865	717.495999152622	-6.19205707891333	28.1476744890576	0.408917949175171	-0.370381926372207	0.00643403330774817	-0.00525158874652287
0.19	0.190848285373183	-0.84322211839231	717.576234307861	-6.45182293787197	28.2172958376248	0.401858288287322	-0.370509003433153	0.00607018122359526	-0.00515403040229129
0.2	0.185205371316415	-0.641589888058315	717.536523012972	-6.71902335269237	28.2763104836302	0.396126571316463	-0.372574775844315	0.00569442825060029	-0.00506470138570136
0.21	0.160635126373496	-0.419547432836822	717.404925847562	-6.9933312877572	28.3263652659834	0.392682626241011	-0.377591532674401	0.00530764745159473	-0.00498284464488635
0.22	0.114520268296383	-0.178081937952515	717.228047280702	-7.27422011302541	28.3717624784387	0.392112804201663	-0.38609203042849	0.00491127246188106	-0.00490504485449694
0.23	0.0490272263180112	0.0772894495190285	717.059180008461	-7.56164522121713	28.4185563579859	0.394428299751716	-0.397885018782881	0.00450615617017247	-0.00482583089555461
0.24	-0.0305614345301408	0.337370387914733	716.943790441781	-7.8565069364993	28.4732780287417	0.398967489164632	-0.411975590627131	0.00409168806163585	-0.00473863896348309
0.25	-0.118330255648184	0.591939485444647	716.906791525637	-8.16075266369528	28.5415165712449	0.404451546064875	-0.426706288266849	0.00366544271521752	-0.00463707027627841
0.26	-0.209900637645181	0.83337853837859	716.945801266715	-8.4770798385041	28.6266446719887	0.409209013914097	-0.440112268521977	0.0032234855057075	-0.00451628050214192
0.27	-0.303370323823097	1.05992156838242	717.032783488599	-8.80831833423309	28.7289771801646	0.411538266219229	-0.450413402697409	0.00276126994953452	-0.00437423756213234
0.28	-0.398699877530261	1.2771565542544	717.123737306682	-9.15667371898093	28.8455787754293	0.410130861589157	-0.456513027036741	0.0022748719792679	-0.00421253102723868
0.29	-0.495934821301147	1.49696305293091	717.173432431348	-9.52306702657803	28.9707992671827	0.404449341698971	-0.458358004587215	0.00176218303666265	-0.00403645672765657
0.3	-0.593169638791582	1.73400440773962	717.150534327773	-9.90678575622504	29.0974376518152	0.394951475458179	-0.457045500473059	0.00122368025186448	-0.00385425247253429
0.31	-0.685263657414827	2.00085316363519	717.048383272463	-10.3055606335758	29.2182628117539	0.38308256666344	-0.454629750008699	0.000662525157524407	-0.003675595633235
0.32	-0.763975360046789	2.3034206437865	716.888151879839	-10.716030086387	29.3275034554771	0.371012374163919	-0.453665854765373	8.39769988840722e-05	-0.00350971459392868
0.33	-0.819553949363102	2.63832925357829	716.71353696735	-11.1344026011436	29.4219096299752	0.361160282516449	-0.456601665989008	-0.000505639098334232	-0.00336361669829616
0.34	-0.843198387294651	2.993200693291	716.578691759408	-11.5570386210474	29.5011018580096	0.355614209905014	-0.465171702616307	-0.00109999623052826	-0.00324092128540876
0.35	-0.829440389401843	3.34978520091563	716.532973124441	-11.980695383693	29.5671368881719	0.35558740944358	-0.479947346697784	-0.00169343871140692	-0.00314159705341194
0.36	-0.777574825583599	3.68883568010417	716.606782049257	-12.402317545589	29.6234641817386	0.361058842206874	-0.50015595777177	-0.00228101360696753	-0.00306260380977308
0.37	-0.691702623901344	3.99503646192791	716.802248375873	-12.8184692587508	29.6736380594382	0.370702347353111	-0.52381022055451	-0.00285790948213105	-0.0029991455697404
0.38	-0.579554263305145	4.26035424644153	717.091044368839	-13.2247022911102	29.7202159481689	0.38213572351879	-0.548108626817207	-0.00341865197452118	-0.00294606925327673
0.39	-0.450745239807072	4.48484482933999	717.419696752012	-13.6152424004068	29.764188627601	0.392434312935245	-0.570002175419366	-0.00395656566290126	-0.00289895251444899
0.4	-0.315259683533573	4.67493436035539	717.720921519834	-13.9832915721103	29.8050863743482	0.39878242506679	-0.586790290099597	-0.00446393616489693	-0.00285459938536858
0.41	-0.182710446498709	4.84009304669665	717.928145307535	-14.3220010441928	29.8416621925728	0.399102855040497	-0.59661757931044	-0.00493300584843936	-0.002810920628526
0.42	-0.0624211314763515	4.98928751905318	717.989748237141	-14.6258643243658	29.8728596496388	0.392517911671697	-0.598783842619158	-0.00535753564895036	-0.00276640696918645
0.43	0.0361184656510581	5.12849163671294	717.879738927973	-14.8920492479659	29.8986951854459	0.379545474982743	-0.59383291205786	-0.00573435183055826	-0.00271951962667438
0.44	0.103098950702814	5.25995552750713	717.602480444168	-15.1211497002998	29.9207418533178	0.362000597030635	-0.58343127324558	-0.00606422926105632	-0.00266829433261079
0.45	0.129057073337733	5.38315986987115	717.190536412845	-15.3170238586994	29.9420593855708	0.342637185486208	-0.57007491737079	-0.0063516888019215	-0.00261031888920077
0.46	0.106419891804373	5.49674211466767	716.696400589829	-15.4857242027377	29.9666064037386	0.324613371090188	-0.556675985198383	-0.0066037108299839	-0.00254307732406839
0.47	0.0314721783497232	5.60040580613541	716.180414414029	-15.6338677454221	29.9983251086394	0.310894187389052	-0.546089879276817	-0.00682779595185135	-0.00246452898391458
0.48	-0.0940129980338571	5.69597125176875	715.6981324497	-15.7669898822828	30.0401648252134	0.30371489194432	-0.540654851384651	-0.00703003933641733	-0.00237374126869877
0.49	-0.262190305171704	5.78717956672247	715.290427131958	-15.888386966711	30.0933039436952	0.304214989168569	-0.541824666949114	-0.00721382182733854	-0.00227140613974747
0.5	-0.459953505159867	5.87840248218938	714.978649166494	-15.9987058842468	30.1567626680235	0.312314177635626	-0.549967589675511	-0.00737939935585652	-0.00216010665091976
0.51	-0.671009339031005	5.97281363269448	714.765448904788	-16.0962055622628	30.2275004033439	0.326840519516607	-0.564371317380716	-0.00752425643070975	-0.00204423640112633
0.52	-0.878694190592089	6.07070441285149	714.639998875563	-16.1773548962937	30.300982030168	0.345852682611904	-0.583437598489272	-0.00764378493643225	-0.00192951799232915
0.53	-1.06884375866148	6.16846917686515	714.585034826684	-16.2373631114644	30.3720889559286	0.367045942652996	-0.604992963307191	-0.0077318001247324	-0.0018221404962433
0.54	-1.23206242185107	6.2584501146671	714.582879925888	-16.2703845730956	30.436158348026	0.388118869465056	-0.626611799016646	-0.00778062456701922	-0.00172765135526437
0.55	-1.36489121851463	6.32949491314731	714.618543517979	-16.2694184534181	30.4898825585149	0.407013308189605	-0.645864110081967	-0.00778083727929146	-0.00164986618297502
0.56	-1.4695649361196	6.36789856803381	714.679688810131	-16.2261901861498	30.5318209455017	0.422010858319936	-0.660458554464338	-0.00772110761949463	-0.00159013386163437
0.57	-1.55227687703452	6.35844562868844	714.75495981686	-16.1314198715428	30.5623845708478	0.431741486628478	-0.668322441130444	-0.00758864388192237	-0.00154724436966008
0.58	-1.62018282523119	6.28549040805254	714.833014004509	-15.9757873648445	30.5833318373395	0.435196754778799	-0.66770362600633	-0.00737061914965209	-0.00151806936349924
0.59	-1.67778618294195	6.13426075834885	714.904137762395	-15.751627966725	30.5969998000147	0.431819814931608	-0.657365395215093	-0.0070565552632339	-0.00149873565882452
0.6	-1.72375222097071	5.89267046334982	714.964665423562	-15.4550507237874	30.6056092425164	0.421675039377389	-0.63687564625785	-0.00664120862592543	-0.0014858726020483
0.61	-1.74938916412214	5.55376739273208	715.022343995999	-15.0879070533766	30.6109569155704	0.405618498030577	-0.606900637518035	-0.006127190422624	-0.00147738206876086
0.62	-1.73979287275708	5.11855453842643	715.099367816561	-14.658963335401	30.6146382377146	0.385343878939615	-0.569353237664834	-0.00552649621908419	-0.00147232996922697
0.63	-1.67791486658037	4.59846375689267	715.229940095672	-14.1837849785694	30.6186927585465	0.363199740336618	-0.52725749530841	-0.00486034249665479	-0.00146991482217029
0.64	-1.55076078897119	4.01647671532271	715.451118227909	-13.683172330828	30.6263452503188	0.341762023414129	-0.484282293172964	-0.00415713346748958	-0.0014678892357079
0.65	-1.35594939325085	3.40597576530033	715.788709831558	-13.1803869748143	30.6424343171135	0.323262749617975	-0.444031866694101	-0.00344886640790665	-0.00146110617821821
0.66	-1.10639984506924	2.80692542066692	716.24279740105	-12.6977372671733	30.6732241145756	0.309064155452534	-0.409298007502712	-0.00276667427432198	-0.00144089052161889
0.67	-0.831242665741935	2.25979573009251	716.778699125421	-12.2532526860844	30.7255427805869	0.299378516274772	-0.381518960496927	-0.00213639359221962	-0.00139566954637044
0.68	-0.572127851503162	1.79845419391178	717.328038407558	-11.8581330693603	30.805474160673	0.293354208787213	-0.36062832083597	-0.00157500566998203	-0.00131283720455533
0.69	-0.375571665430038	1.44375288335278	717.80133303653	-11.5154487438766	30.9170211381739	0.289509406022276	-0.345336967535293	-0.00108857756807179	-0.00118136418563958
0.7	-0.283301232828436	1.19950849867518	718.109334072771	-11.2202738237817	31.0611756091653	0.28635792628865	-0.333733367005316	-0.000672013092903434	-0.000994387531067509
0.71	-0.323231543942028	1.05199936328122	718.18690503591	-10.9611438885572	31.2356684263776	0.282998437075959	-0.323980624497579	-0.00031059477421691	-0.000751025130910743
0.72	-0.503504699723477	0.973169720263985	718.011925398048	-10.7224986641048	31.4354090919405	0.279458798720697	-0.31487411697343	1.69956832848372e-05	-0.000456941261709365
0.73	-0.811041321561565	0.92674411122012	717.613069402859	-10.4876238851709	31.6533794084711	0.276688330347578	-0.306098914927936	0.000334726539101937	-0.000123608193409119
0.74	-1.21468634357241	0.875721177710808	717.063851724661	-10.2415486754997	31.8816245413182	0.276224909382535	-0.298150946584812	0.000665041149964907	0.000233410522610056
0.75	-1.67177113540497	0.789442286702556	716.464749843208	-9.97338712543216	32.1120329948064	0.279675088942934	-0.292004855570516	0.00102521437726455	0.000596625641331228
0.76	-2.13616257389559	0.648663111943552	715.918945445086	-9.67773638449405	32.3367749936719	0.288194384916951	-0.288681125041721	0.00142489937224044	0.000948721715754663
0.77	-2.56579469697646	0.447688049186749	715.50901714455	-9.35494775987353	32.5484758708442	0.302132095138459	-0.288868880640007	0.00186527236699274	0.00127424691762545
0.78	-2.92818391285489	0.193444908647849	715.281234848542	-9.01033710189613	32.7403272852816	0.320929520115323	-0.292710607766905	0.00233981666435512	0.00156076043477538
0.79	-3.20323457829444	-0.0978649574590358	715.241291898057	-8.65263707013035	32.9063233755263	0.343267503122568	-0.299780247573275	0.00283639786840584	0.00179945202131715
0.8	-3.3834253822243	-0.405411162745338	715.361415541968	-8.29214919021799	33.0416712367353	0.36738426597021	-0.309218882767741	0.00333998770730037	0.00198529669694025
0.81	-3.47199710337025	-0.70841435891786	715.59519080584	-7.93907719363271	33.1432536760993	0.391450113720471	-0.31995453293694	0.00383529157458451	0.00211679498566308
0.82	-3.47996878321822	-0.989818702445842	715.894325121675	-7.60240417415472	33.2099231484413	0.413894974301661	-0.330929960836033	0.00430866213888637	0.00219534652876641
0.83	-3.42276541935843	-1.23835284039806	716.221601083949	-7.28945344946318	33.242442688148	0.433623813860628	-0.341284907879967	0.00474899350207969	0.0022243594284948
0.84	-3.31708071032641	-1.44887366375468	716.556263481465	-7.0060251698794	33.2430472702279	0.450101097968121	-0.350468886495856	0.00514767313156472	0.00220829540207368
0.85	-3.17842683475698	-1.6213020275863	716.891223295741	-6.75681780222082	33.2147911716234	0.463319308510884	-0.358281961433852	0.00549798014748371	0.00215192346903625
0.86	-3.01966335183578	-1.75871255963232	717.224541742353	-6.54579184522859	33.1609637736095	0.473680766728683	-0.364848552699619	0.00579444517229766	0.00206002459136734
0.87	-2.85061175581038	-1.86521701210463	717.549588911174	-6.37622643485243	33.0848251314115	0.481822282515727	-0.370529151755842	0.00603259148409785	0.00193762458058194
0.88	-2.67861873370324	-1.94421031851243	717.848447166641	-6.25041165659002	32.9897393151073	0.488410063187329	-0.37577772094743	0.00620921498885307	0.00179057967418489
0.89	-2.50966336989844	-1.99737346509449	718.091602820027	-6.16912247955421	32.8795524386042	0.49393578650408	-0.380964735902649	0.00632305573637815	0.00162611302634147
0.9	-2.3494178175039	-2.02459098871422	718.244383089218	-6.13114321531034	32.7588953218372	0.498552399373002	-0.386203814433704	0.00637550363993844	0.00145283004063995
0.91	-2.20368792274559	-2.02468699560452	718.277917087834	-6.13310190842809	32.6330847706968	0.501991382556284	-0.391232593131571	0.0063709533392261	0.00127989950048335
0.92	-2.07792792617055	-1.99666085700755	718.180576938261	-6.16974281610296	32.5074718475523	0.503593184435727	-0.395394980370441	0.00631657656380569	0.0011154428156927
0.93	-1.97596228851081	-1.94096591869934	717.965502384366	-6.23457977263347	32.3863666128916	0.502457207820289	-0.397748468966442	0.00622152943188981	0.000964584498853949
0.94	-1.8984701681771	-1.86036758131966	717.671025565659	-6.32072403812969	32.2719216881109	0.497683714079827	-0.397282949471131	0.00609583276889347	0.00082789021683799
0.95	-1.84198671134368	-1.7600563140621	717.353160135954	-6.42163493208931	32.1634508992612	0.488649327841902	-0.39319945377476	0.00594925613171571	0.000700900914523905
0.96	-1.79903278858896	-1.64694268327495	717.071999962928	-6.53161248436696	32.0575350255707	0.47524231433687	-0.385172664138712	0.00579047345320838	0.000575131602363499
0.97	-1.75954292359813	-1.52834425361448	716.875990827793	-6.645991955924	31.9489702742538	0.457989992068938	-0.373519408081112	0.00562659318877123	0.000440361958263469
0.98	-1.71321007785697	-1.41048765790966	716.788898415976	-6.76113235930852	31.832278392509	0.438037164699648	-0.359217928472515	0.00546299752374513	0.000287529063478453
0.99	-1.65195644648279	-1.29731449083914	716.803622161659	-6.87434882267061	31.7032739692876	0.416972789856251	-0.343762034081078	0.00530334089072881	0.000111269360189681
1	-1.57166194681704	-1.18997369121809	716.88501179431	-6.98390220385657	31.5601743255677	0.396540422773007	-0.328877696883939	0.00514958609627958	-8.87297365050888e-05
1.01	-1.47257429121073	-1.08714678101373	716.981144593313	-7.08906261829513	31.4039388942117	0.378296193903239	-0.316165047806185	0.00500205613756388	-0.000307960611241331
1.02	-1.35835418229436	-0.986072358275148	717.039925864821	-7.19017033125345	31.2378392238962	0.36329114028195	-0.306748491873648	0.00485957245176993	-0.000538707428012153
1.03	-1.23424041330302	-0.883909166266629	717.026153306121	-7.28858331258773	31.0665431565667	0.351852210670297	-0.301019552483838	0.00471976951384356	-0.000772346618286346
1.04	-1.10512612927519	-0.778974311351868	716.933861474594	-7.38644260586217	30.8951279257717	0.343519597155806	-0.298541650089407	0.00457960681244052	-0.00100144868886165
1.05	-0.974303905424067	-0.671441031217463	716.789973597106	-7.48627689283524	30.7283762402403	0.337168301473997	-0.298154518188974	0.00443598528037303	-0.00122095811674494
1.06	-0.843301990834068	-0.563258897838836	716.647740417314	-7.59055316474878	30.5705068587494	0.331300958837868	-0.298270871275218	0.00428628841730738	-0.00142816019728736
1.07	-0.712758301472506	-0.457314393842127	716.571473965501	-7.70131393905888	30.4252555058443	0.32445316465282	-0.297306276968238	0.00412866632586828	-0.00162165131715031
1.08	-0.583865424537799	-0.356108695458159	716.616812929223	-7.82000616329184	30.2960646323052	0.315614255101008	-0.294138369116696	0.00396197420758304	-0.00179990566130711
1.09	-0.459724503780929	-0.260415252194902	716.812337341822	-7.94752200317564	30.186124260017	0.304550984989371	-0.288470483054615	0.00378542466637188	-0.00196014133617256
1.1	-0.346019104304989	-0.168427328406363	717.148218887639	-8.08437903126153	30.0981223091208	0.291939602095121	-0.280990382131645	0.00359814611781739	-0.0020980137628242
1.11	-0.250702104740022	-0.0757828928713181	717.575674625896	-8.23090983824352	30.0337442643691	0.279262495674746	-0.273267871477607	0.00339889427631179	-0.00220829531477806
1.12	-0.182749325778058	0.0234183706129086	718.017783805135	-8.38733414914422	29.9931203225431	0.268494263863576	-0.267411490428025	0.00318611068414443	-0.00228629106323724
1.13	-0.150335692364689	0.134835209379456	718.388701163921	-8.55364909532717	29.9744834928975	0.261665414888925	-0.265578912534996	0.0029583776846791	-0.00232944504175608
1.14	-0.158943219959479	0.261870372192191	718.61561729038	-8.72936960580041	29.9742487705368	0.260427502287005	-0.269481718383312	0.00271513817987501	-0.00233851226631915
1.15	-0.209895811931993	0.404091041350355	718.656926619198	-8.91324070927852	29.987574157103	0.265738647026588	-0.28002575401644	0.00245740394429472	-0.00231783120773565
1.16	-0.299673832903271	0.55667412280682	718.511326042687	-9.1030876679148	30.0092774894926	0.277745050552739	-0.297182412876594	0.00218813079091129	-0.00227456772785267
