Time [s]	GRFml [N]	GRFap [N]	GRFv [N]	Mml [N.m]	Map [N.m]	Mv [N.m]	Mfree [N.m]	COPml [m]	COPap [m]
0.01	-2.41310357373682	1.20896962037012	857.707008874276	2.13982444045687	59.5666647430448	0.612280607821784	-0.702232310751558	0.000461666450736864	0.00612418902897482
0.02	-2.46631417913248	1.42604704291389	857.78182870987	2.11166649223361	59.7360525644869	0.585432443630748	-0.690881774343857	0.000425563887429758	0.00631188612952938
0.03	-2.53609885665933	1.63053850396716	857.848910340055	2.07545356982419	59.9038083596647	0.561006973010608	-0.681093182709019	0.000380251934085418	0.00649833266002303
0.04	-2.6350209097401	1.81216728292515	857.899910963811	2.02520896470401	60.0676805758221	0.540848505447184	-0.674004793199612	0.000318920498012631	0.00668160111174904
0.05	-2.76720339718849	1.96459319268662	857.930384719051	1.95818463171205	60.225212356345	0.525763580787321	-0.669978234306084	0.000238462318008281	0.00685919216304443
0.06	-2.92690064143746	2.08598847533605	857.942664721876	1.87528721334123	60.3740403237779	0.515420444491768	-0.668536541489577	0.000139948926332067	0.00702814311496286
0.07	-3.09970883040153	2.17847412291581	857.947492737243	1.78062105851662	60.5122563899981	0.50858937566347	-0.66856826201326	2.80935528742532e-05	0.00718531753494656
0.08	-3.26601743793275	2.24673587417561	857.96298918268	1.68039132362229	60.6386514752813	0.503618672916615	-0.668713806558884	-9.00121010694033e-05	0.00732778094320202
0.09	-3.40573539953492	2.29636272550803	858.010359832567	1.58152919845803	60.7527160707135	0.498966190743932	-0.667789776191768	-0.00020646697697102	0.00745316493469944
0.1	-3.50303358359101	2.33243829358179	858.107155699932	1.49038148448667	60.8543881507091	0.493603713735245	-0.665102957436135	-0.000314044441792283	0.00755993857259657
0.11	-3.54988488149613	2.35871421957769	858.260226049199	1.4117034159371	60.9436536944479	0.487176906680055	-0.660557325847729	-0.0004073239193223	0.00764753019555353
0.12	-3.54754053729919	2.37742629612461	858.461019352628	1.3480740593417	61.0201708966825	0.479905347684636	-0.654541443473379	-0.000483343131399749	0.00771627776680661
0.13	-3.50566214314108	2.38959555946932	858.685273547562	1.29976172362661	61.0830831393818	0.472302276228533	-0.647665003607539	-0.000541747143179006	0.00776723103117233
0.14	-3.43947080762418	2.39555120423044	858.897630431765	1.26501014722679	61.131113883439	0.464846700172641	-0.640460364741247	-0.000584470160134742	0.00780187107885988
0.15	-3.365790445569	2.39542170927064	859.059960930395	1.24067617653025	61.1629292223721	0.457736633261576	-0.633162542040852	-0.000615025973655814	0.00782183356585869
0.16	-3.29910020103945	2.38942872031716	859.140925415325	1.22310448152249	61.1776534155371	0.450800590797659	-0.625635564228784	-0.000637530572400236	0.00782870983026612
0.17	-3.24861334441848	2.37793807735183	859.123973663736	1.20907108322621	61.1753664389595	0.44357142926794	-0.617447528377178	-0.000655641204488355	0.00782396067829638
0.18	-3.21702056770896	2.36133267069666	859.011626702796	1.19658655178574	61.1574174189398	0.435463516229162	-0.608039974591062	-0.000671645409153654	0.00780892922125642
0.19	-3.20101506177732	2.33984170929724	858.825112942538	1.18535547336458	61.1264459190893	0.425964825520728	-0.596911525618921	-0.000685931130064765	0.00778490313927543
0.2	-3.19322506105478	2.31347103225636	858.599739529761	1.17676276170172	61.0860889166112	0.414767606971666	-0.583747905766835	-0.00069698840502197	0.00775316654130587
0.21	-3.18485533165466	2.28212490818781	858.377352214443	1.17338864560946	61.0404350099821	0.401804580462084	-0.568470091447182	-0.000701945433022377	0.00771499743049492
0.22	-3.16825039562883	2.24590764760279	858.197698581261	1.17819817255678	60.9933460837145	0.38720918022652	-0.551217422421287	-0.000697477556477311	0.00767159712669435
0.23	-3.13872805726144	2.20548185271433	858.090512873072	1.193650754727	60.9477894171043	0.371252978929594	-0.532310086524182	-0.000680812604257008	0.00762396589439257
0.24	-3.09531880070589	2.16229119579513	858.069846416276	1.220990912424	60.9053103484473	0.354315082548636	-0.512232794479428	-0.00065053639082191	0.00757275092136794
0.25	-3.04038120452955	2.11847369306878	858.131710340431	1.2599103330553	60.8657356544933	0.33690764166926	-0.491652268285154	-0.000606981591237399	0.00751808646238489
0.26	-2.9783474917529	2.07640754816802	858.255520189297	1.30864688239972	60.8271448384172	0.319735457417153	-0.471442998534804	-0.000552123955106953	0.00745943315986758
0.27	-2.91402337860826	2.03800711234103	858.409125912486	1.36445789045157	60.7860970141756	0.303730785540995	-0.452670900094584	-0.000489055113848447	0.00739542373685215
0.28	-2.85090657927207	2.00404118643686	858.556419121224	1.42431451250817	60.7380690777143	0.289997747921437	-0.436488494416611	-0.000421203530226566	0.00732374844923489
0.29	-2.78992207404376	1.97379393467444	858.665808664036	1.48562907005277	60.6780518434831	0.279631010315743	-0.423928904201607	-0.000351514445546042	0.00724115852835755
0.3	-2.72884113979288	1.94528605881277	858.717520922378	1.54684104659901	60.6012576776574	0.273429666087251	-0.415635183881595	-0.000281784575681177	0.00714369927347025
0.31	-2.66249470320875	1.91604988057922	858.707931486824	1.60772965808802	60.5038982419766	0.271585882650333	-0.411604504350464	-0.0002123012104982	0.00702726857908303
0.32	-2.5837380014942	1.88420299256303	858.649956749928	1.66937399301827	60.3839754909438	0.273462976607345	-0.411044220721147	-0.000141877943296786	0.00688851099422444
0.33	-2.48499100113637	1.84940976885465	858.569630701755	1.73374056600089	60.2419863277021	0.277571976768403	-0.412419962906931	-6.83148421116719e-05	0.00672591843397208
0.34	-2.36008001575833	1.81333832276029	858.499923384493	1.80294805467375	60.0813863600601	0.28180694014001	-0.413727875961249	1.07683090723176e-05	0.00654086983830265
0.35	-2.20604868632677	1.77941057157191	858.473295144012	1.87834269529947	59.9086263792097	0.283919735110736	-0.412956513330556	9.68749852494621e-05	0.00633827111405533
0.36	-2.02459420950363	1.75191995624698	858.514403242149	1.95960175444112	59.7326070319913	0.282128243139013	-0.408636414913484	0.000189600752443564	0.0061265020832324
0.37	-1.82281691512183	1.73483015139378	858.634052057097	2.0441344689293	59.5635146588317	0.27568684923533	-0.400327272024766	0.000285941259867362	0.00591654204594327
0.38	-1.6130478356043	1.73066711430518	858.82523998595	2.12703223805411	59.4111876193579	0.265231253587556	-0.388883153151306	0.000380234067575036	0.00572038249560497
0.39	-1.41164330181266	1.73984534017587	859.06213764784	2.20171183415687	59.2833579555273	0.25275565567085	-0.376377860563837	0.000464902978564052	0.00554906392834104
0.4	-1.23681121216167	1.76057522619587	859.302844061129	2.26121059318261	59.1842338976327	0.241183139645743	-0.365662241827779	0.000531956689688973	0.00541081119979092
0.41	-1.10575019054276	1.78927713464777	859.496430991117	2.29988111276271	59.1138625164228	0.23362026012349	-0.359640392338639	0.000574946039987534	0.00530973605972557
0.42	-1.03160119848029	1.82127273761326	859.593833468229	2.31506608797363	59.0685173586193	0.232499574916933	-0.360453820459443	0.000590890500466124	0.00524542393885563
0.43	-1.02086147771916	1.85148808692682	859.560694347846	2.30827699532356	59.0420426444632	0.238865914433004	-0.368812130830373	0.000581621498191631	0.0052134736209809
0.44	-1.07191439529673	1.87498107214498	859.388878139119	2.28548634512019	59.0277622780747	0.252030404540748	-0.383682135763657	0.000554094806120009	0.00520679513540812
0.45	-1.17513736628319	1.88724621515577	859.102796295947	2.25635720825608	59.0203543429376	0.269708524957697	-0.402448740596363	0.000519476659574081	0.00521727774195291
0.46	-1.31467981501103	1.88437961889101	858.757497388237	2.23251570143138	59.0170883639668	0.288610978710007	-0.421521705423313	0.000491136226645317	0.00523737294935384
0.47	-1.47154533387207	1.86324741376362	858.427679731803	2.22523755179949	59.0180337698475	0.305318704740459	-0.437228391476825	0.000481981195441739	0.00526120763286736
0.48	-1.62721156463933	1.8217719647371	858.189728245133	2.24308907064331	59.025199354578	0.317190210958866	-0.446746923546798	0.000501761997005135	0.00528501499385525
0.49	-1.7668282298354	1.75935469931369	858.1014763931	2.2900872341928	59.0409272562779	0.323044188722249	-0.448822339311233	0.000554989977564979	0.00530688477121039
0.5	-1.88114396496359	1.67734312790237	858.185594547017	2.36481904393598	59.0661124924271	0.323430721699216	-0.444071495984864	0.000639964464415388	0.00532602427465473
0.51	-1.96671746155386	1.57937309025263	858.42175602429	2.46072473726514	59.0988700630347	0.320425922761566	-0.434799779899581	0.000749129653932035	0.00534183990258952
0.52	-2.02454151347604	1.47140466716242	858.750225775783	2.56746728084608	59.1341185747437	0.317020624458167	-0.424388807701582	0.000870660125036782	0.0053531709819904
0.53	-2.05774412690411	1.36132273638116	859.086105721078	2.67305345774405	59.1642522352598	0.316285240407634	-0.416430347183413	0.000990884984210294	0.00535793560122999
0.54	-2.06932273378445	1.25807075146294	859.34031121114	2.76620153336665	59.1807320009084	0.320549502218466	-0.413845185847825	0.00109697364802497	0.00535330511964949
0.55	-2.06079493460615	1.17039980682074	859.441467396929	2.83840770753501	59.1761462041201	0.330822338696446	-0.418219308472916	0.00117926469093055	0.00533634961416046
0.56	-2.0322310584074	1.10541735842423	859.352845225474	2.88526016132483	59.1461489556349	0.346598591082266	-0.429516719411793	0.00123273396294055	0.00530493742903804
0.57	-1.98352757966612	1.06719285828943	859.080121544164	2.90676247465306	59.0907135905909	0.366080231085076	-0.446212516927145	0.0012573417023557	0.00525857262619106
0.58	-1.91622471015462	1.05571129013913	858.668513130171	2.90669958739117	59.0143230289481	0.38671805854586	-0.465769209259833	0.00125730472498931	0.00519884726312814
0.59	-1.83489448702289	1.06645233749449	858.190770604197	2.89132846890706	58.9250060328469	0.405893936111213	-0.485292236876975	0.00123961818426632	0.00512928375080579
0.6	-1.74725392310027	1.09080145046068	857.729736681013	2.86782373880366	58.8324433322612	0.421538828325549	-0.502172049188277	0.00121231425961688	0.00505453054076704
0.61	-1.66266080056598	1.11735978257874	857.360123038124	2.84290982182115	58.7456304499707	0.432521789345968	-0.514552495054531	0.00118294187478973	0.00497910342629221
0.62	-1.58934361374842	1.13402004747429	857.133768109387	2.82197369999946	58.6707242120038	0.438731458313853	-0.52154039636408	0.00115759217730316	0.00490605897186752
0.63	-1.53132925735865	1.13045235282394	857.071249904183	2.80873676320102	58.6096717093763	0.440873133820978	-0.523159220975724	0.00114054873872271	0.00483606549770865
0.64	-1.48630431664491	1.10046387368256	857.160903803211	2.8053598073704	58.560019082981	0.440088198449352	-0.520121594179531	0.00113441084199906	0.0047672501561844
0.65	-1.44543955039309	1.04363205541971	857.364573960415	2.81274108989236	58.5159692705888	0.437544317607088	-0.513531447794287	0.00114041272928356	0.00469595825562952
0.66	-1.3955667576851	0.965713228395211	857.628162320203	2.83077880130921	58.4703951162714	0.434134720920282	-0.504620912106846	0.00115868077381331	0.00461824147369722
0.67	-1.32324391559725	0.877598702576721	857.894359129198	2.85848417445421	58.4172297473597	0.430369374857373	-0.494586932096984	0.00118830771714873	0.00453161522531825
0.68	-1.2194976376318	0.792970304687192	858.114807827623	2.89398273481203	58.3535437773442	0.426460654064561	-0.484535815016519	0.00122730035325302	0.00443650401396872
0.69	-1.08368538974546	0.725188378158668	858.259280244117	2.93454947644906	58.28071733413	0.422530786764594	-0.475493577539449	0.00127258203271818	0.00433687997163079
0.7	-0.925122305022344	0.684200768569248	858.3201313411	2.97683421363085	58.2043911544877	0.4188268362782	-0.46841677089546	0.00132024037513034	0.00423986313077906
0.71	-0.761809056755819	0.674293185117998	858.311293592465	3.01734103295578	58.1332423571085	0.415837787794606	-0.464151961698478	0.00136609797682963	0.00415439132243584
0.72	-0.616531258216639	0.693282406507388	858.262243794972	3.0530778296447	58.0769595668963	0.414262720406286	-0.463334815240084	0.00140650522876651	0.00408935640650004
0.73	-0.51144275532189	0.733344198616639	858.208522755321	3.08216556823223	58.0439895114297	0.414853452580206	-0.466269158112786	0.00143910086782195	0.00405174305953515
0.74	-0.462705312312536	0.783196452168521	858.181226627967	3.1041623363414	58.0396452001755	0.418214151874658	-0.47285503591826	0.00146324118263752	0.00404526305871539
0.75	-0.476697957252832	0.83097768874119	858.198149093654	3.11994232284202	58.0650190170306	0.424656432677918	-0.482624822158819	0.00147989708664953	0.00406978928332613
0.76	-0.548784226923139	0.866995298304822	858.25881247419	3.13114365698797	58.1168964994365	0.434175196252706	-0.494900204124466	0.00149102432714598	0.00412164255651187
0.77	-0.664841130457582	0.885617775602593	858.344590383586	3.13938370413206	58.1886023551951	0.446546117392489	-0.509022695447106	0.00149863436454645	0.0041945595391783
0.78	-0.804978198272012	0.885908991110656	858.423806931817	3.14554721361178	58.2715026538148	0.461483354029159	-0.524567296422135	0.00150392631428731	0.00428103167175103
0.79	-0.948338161572841	0.87102713236783	858.460479455984	3.14942649644831	58.3567781101633	0.478766871482952	-0.541446554628528	0.00150681669995656	0.00437367304122571
0.8	-1.07769388554854	0.846777973124641	858.424543796697	3.14984202127322	58.4370787887048	0.498266520160453	-0.559854059415639	0.0015060312597619	0.00446633390510415
0.81	-1.18273505311013	0.819893882188907	858.301083328149	3.1451667089624	58.5077483358088	0.519844972531458	-0.580064051841873	0.00149968281031065	0.00455479202405518
0.82	-1.26137349275598	0.796564673041766	858.096261577705	3.13401492462667	58.5674305473465	0.543186251727003	-0.60216673525346	0.00148606523508044	0.00463698579488137
0.83	-1.31894566016404	0.781530877334098	857.838277954347	3.11581132977588	58.6180077742567	0.567639554717403	-0.625849157801522	0.00146433361765508	0.0047128644807295
0.84	-1.36571512495683	0.777782287675121	857.57267697188	3.09103791661841	58.6639438746289	0.592169330589286	-0.650316652141908	0.00143483093966612	0.00478399494612752
0.85	-1.4134653030078	0.786699322303677	857.352653872856	3.06111806664946	58.7112002137909	0.615461889167851	-0.674396817195451	0.00139900389908088	0.00485307148122549
0.86	-1.47214730524283	0.808391627258289	857.226395476931	3.02805001087501	58.7659552590827	0.636174574032194	-0.696798958064824	0.00135902676275512	0.00492343551296742
0.87	-1.54747370271516	0.842020216788238	857.224594578451	2.99397764619969	58.8333815864097	0.653253385868873	-0.716443723074085	0.00131734025643937	0.00499865017893736
0.88	-1.64003899044401	0.885986723320357	857.351632727156	2.96086077211003	58.9167122447389	0.666213430354227	-0.732751621972781	0.00127628479272679	0.00508211979820827
0.89	-1.74607384610589	0.937980282087301	857.583233259938	2.93030886725283	59.0167583326732	0.675285363499551	-0.74579341175415	0.00123789776081007	0.00517671761883082
0.9	-1.85943350301809	0.994952486200899	857.871687270095	2.90353341506452	59.1319304582543	0.681375347291426	-0.756253300244592	0.001203823444069	0.00528439416416399
0.91	-1.97404145452073	1.05313066797152	858.157515740368	2.88131239806401	59.2586947282974	0.68584790830208	-0.765219280840421	0.00117521891166195	0.00540577612682791
0.92	-2.0858940529132	1.10818064096164	858.384402254859	2.86387573801376	59.3922963829793	0.690197150933096	-0.773870839101998	0.00115256201679748	0.00553981507620149
0.93	-2.19392958119577	1.15559620080171	858.513148612316	2.85069971174618	59.527543652267	0.695702374242229	-0.783163468254798	0.00113536230572187	0.0056835848488877
0.94	-2.29951000458038	1.19132829330918	858.530680398546	2.84029603656242	59.6594722412875	0.703160315369633	-0.793602824687716	0.00112188785297873	0.00583233669079086
0.95	-2.40479069623045	1.21258143067758	858.451677432036	2.8301412498956	59.7837911464438	0.71275232490522	-0.805163237164297	0.00110908534565857	0.00597989034979474
0.96	-2.51066693620965	1.21861951090278	858.3126888668	2.81687568333105	59.8971073349577	0.724056033068481	-0.817351643182024	0.00109284358862805	0.00611936877288194
0.97	-2.61513662510772	1.2113666273131	858.160839937114	2.79680870304089	59.997000253774	0.736167318790575	-0.829370279744877	0.00106863435027105	0.00624418961666379
0.98	-2.71275950041203	1.19558584516345	858.040717628796	2.7666384614967	60.08203998535	0.747875973346503	-0.840307726843335	0.00103240901108714	0.00634913520318764
0.99	-2.79549091595488	1.17847997261144	857.98329767374	2.72419137170046	60.1518116299375	0.757843373011094	-0.849295369122472	0.000981508091204009	0.0064312646732424
1	-2.85467252454242	1.16867487560294	857.99982913579	2.6689588921936	60.2069446461956	0.764755785375004	-0.855598181774778	0.000915312135554958	0.00649043396044519
1.01	-2.88354939328285	1.17469712795116	858.081816032428	2.60226982448879	60.2490864062069	0.767455969333817	-0.858647481501109	0.000835440264360554	0.0065292624701549
1.02	-2.87949517267184	1.20321465926636	858.206272526993	2.52705536820031	60.2807391485906	0.765070621601733	-0.858049331045542	0.000745449687956201	0.00655251915808652
1.03	-2.84522306548467	1.25743315276259	858.343939349125	2.44728698199223	60.3049140860479	0.757142850560787	-0.853603740665043	0.000650139199278699	0.00656606000776266
1.04	-2.78859669881174	1.33608564481443	858.467573955073	2.36724388751181	60.3246323512523	0.743752632372997	-0.84534836849355	0.000554652184395987	0.00657558306578104
1.05	-2.7211030361824	1.43337642652174	858.5578462048	2.29077729922713	60.3423837100007	0.725581719873924	-0.833610146188474	0.000463585584594695	0.00658552782143823
1.06	-2.65544810863274	1.54003058607535	858.605517412581	2.22069672871207	60.3596993653536	0.703872767410132	-0.819027781421537	0.00038025829874333	0.00659840638038911
1.07	-2.60295696658625	1.64529571252801	858.609979531384	2.15834543180243	60.3769788144634	0.680256041104891	-0.802510380836669	0.000306218726222607	0.00661472250145462
1.08	-2.57145253554009	1.7394322404152	858.575399414845	2.10338976308031	60.3936348218624	0.656464672692941	-0.785122547950722	0.000241016357838464	0.00663345255946851
1.09	-2.56409089100343	1.81602756817394	858.506322671541	2.05383220120081	60.4085147233488	0.634009527884749	-0.767921119111159	0.000182241302559838	0.00665289055278495
1.1	-2.57933472234074	1.8734681714971	858.40454646454	2.00625756508336	60.4204639530629	0.613911313780806	-0.751793995999789	0.000125834553480253	0.00667155556115911
1.11	-2.61195218093556	1.91512860397252	858.268481330738	1.95631280739411	60.4288565541168	0.596573916475119	-0.737352802691696	6.66629205320346e-05	0.00668885942769509
1.12	-2.65470655561286	1.94822443869393	858.095314970528	1.89938674602735	60.4339422132495	0.581831959444595	-0.724906966498035	-6.83690335345766e-07	0.00670533397088036
1.13	-2.70028598545908	1.98169491329182	857.885313638886	1.83140143976813	60.436935206019	0.56913938265026	-0.714510120895336	-8.09748774371899e-05	0.00672238390701324
1.14	-2.74301439730751	2.0237768073765	857.646772989246	1.74957518473225	60.4398606516557	0.557815270170724	-0.706040350040915	-0.000177461681261204	0.00674170329554397
1.15	-2.77997125476361	2.0799940526721	857.39966392402	1.6529975491597	60.4452374072697	0.547251696917986	-0.699269338776236	-0.000291218513244207	0.00676460644474536
1.16	-2.81130529154974	2.15209984234244	857.176093867831	1.54288692263122	60.4556916961935	0.537019763905982	-0.693894273493897	-0.000420850827954733	0.00679153662789378
1.17	-2.8397239671178	2.23815152004166	857.016425862375	1.42247566700577	60.4735665925822	0.526866341994088	-0.689538083839362	-0.000562629068782017	0.00682192456652064
1.18	-2.86933577711169	2.33351792491195	856.961192004873	1.29656133276088	60.5005494232133	0.516645612113209	-0.685748687696957	-0.000711003419467504	0.00685441330492975
