Time [s]	GRFml [N]	GRFap [N]	GRFv [N]	Mml [N.m]	Map [N.m]	Mv [N.m]	Mfree [N.m]	COPml [m]	COPap [m]
0.01	-2.9070457198728	0.868918958422172	650.666125882432	16.4761532684738	-5.26059496006744	0.972580299397669	-1.03921023717061	0.00718169400289326	0.00386189129212777
0.02	-3.02722967654534	0.640494962834053	649.777990405079	16.5129867448449	-5.32869130405805	0.958221817082621	-1.03023435189407	0.00727096892317036	0.00374414548897406
0.03	-3.10323686574661	0.445576171638021	649.092584910986	16.5642857111036	-5.42488049141781	0.949545342640066	-1.02547494430296	0.00737442102826313	0.0035862191034095
0.04	-3.09856441703082	0.310935265255292	648.777472347253	16.6408592646786	-5.56962938158657	0.95074213980871	-1.02791436798543	0.00750190183582822	0.00335941490534769
0.05	-2.98667417722611	0.248197829034222	648.891982811665	16.7478996590773	-5.77605683824971	0.963322038628077	-1.03825255356515	0.00765894990069971	0.0030446668599538
0.06	-2.75501005331639	0.251262322354168	649.371209218274	16.8839349344736	-6.04861866277006	0.985753608247589	-1.05467853500864	0.00784584448924475	0.00263424047509375
0.07	-2.40758090090225	0.298491464103013	650.044833273345	17.0413122142547	-6.3832037624333	1.0139680630251	-1.07342543459364	0.00805763050159058	0.00213177735089842
0.08	-1.96485964068423	0.358870541784037	650.682087082248	17.2080802180243	-6.76854569812625	1.04254642482599	-1.08990157836156	0.00828525355774312	0.00155072024313552
0.09	-1.46036626532837	0.400209823997677	651.047150722284	17.370774984956	-7.18855822505771	1.06621577933059	-1.10002318849774	0.00851765839712759	0.000911514158862203
0.1	-0.934473979476737	0.396975553308614	650.948228754273	17.5173549039391	-7.62498291040732	1.08121066991382	-1.10134037681232	0.00874434746611186	0.000238303206048063
0.11	-0.427100956985732	0.335607866724863	650.268191303057	17.6394778436822	-8.05969354675317	1.08612232151556	-1.09364285407333	0.00895763134258398	-0.000444031043594417
0.12	0.0285739402401253	0.216111223033099	648.972741820228	17.733516879525	-8.47618213632458	1.08203250270011	-1.078910526536	0.00915379962271956	-0.00111181990493481
0.13	0.409673281496095	0.0499541147034555	647.100260134952	17.8001367473886	-8.86010186640546	1.07195206869071	-1.06067419088575	0.00933277800616816	-0.00174331912100717
0.14	0.703918898579735	-0.144544775812364	644.742688197348	17.8427671354477	-9.19912306165005	1.05978770398372	-1.04301339256716	0.00949643022318503	-0.00231848595592471
0.15	0.907436833087175	-0.347523903770902	642.027418467786	17.8657160560854	-9.48260320035381	1.04918446499932	-1.02950143319896	0.00964627533317297	-0.00281851088933077
0.16	1.0216859833399	-0.541810843281095	639.106445421876	17.872787408871	-9.70157166934816	1.04260205481394	-1.02239615429927	0.00978172890392237	-0.00322584950319266
0.17	1.05112870621546	-0.714988913698566	636.153115835678	17.8670240585303	-9.84928386811631	1.04087978488838	-1.02227948685386	0.00989983585273324	-0.00352519330065415
0.18	1.00247885001629	-0.859212740365463	633.361504694639	17.8516674534791	-9.92222038869519	1.0433649657605	-1.02820010567606	0.00999684579905147	-0.00370527964609646
0.19	0.885247788109354	-0.969600582463754	630.941141067862	17.8318205494236	-9.9210722666656	1.04848403622312	-1.03821702240196	0.0100711240634476	-0.00376091397306921
0.2	0.712467530724783	-1.04249150166524	629.101482247573	17.8158888444721	-9.8511258503324	1.05449346541088	-1.05012551024336	0.0101261697818055	-0.00369431044004803
0.21	0.500344232570493	-1.074700227464	628.025403203055	17.8158548330682	-9.72161652909968	1.06010866976979	-1.06210710471495	0.01017227378444	-0.00351499296230307
0.22	0.266234159704394	-1.06423486551629	627.836888504846	17.8458509439467	-9.54401028966445	1.06478611503975	-1.073095238001	0.0102257412936406	-0.00323800486538761
0.23	0.0253702328654842	-1.01208387270853	628.572490256791	17.9191819145142	-9.32963722281511	1.06859421436774	-1.08276961794031	0.0103054978944995	-0.00288085082081863
0.24	-0.212383405159768	-0.924028597961222	630.166950394771	18.0446268857959	-9.08743808383044	1.07178738689933	-1.09124172835256	0.0104279326622105	-0.00246014983507081
0.25	-0.444292242476353	-0.811297875894683	632.460067607409	18.2232347814386	-8.8226336123461	1.07432214112277	-1.09861497543992	0.0106015807679403	-0.00198916138539007
0.26	-0.674180497291066	-0.689320946676262	635.225447116307	18.4467466028738	-8.53684401134441	1.07557374543797	-1.1046487334995	0.0108234020458043	-0.00147706018506727
0.27	-0.909764051512387	-0.574660306690742	638.214509517886	18.6982649880171	-8.22967335681822	1.07441929411875	-1.10870587152367	0.0110779193113539	-0.00093018453045729
0.28	-1.15909529462511	-0.481047671904429	641.203774344174	18.9550557056554	-7.90123624394202	1.06968664801132	-1.11003531515614	0.0113395548145157	-0.000354737814353967
0.29	-1.42765194442378	-0.415926936384977	644.032062596658	19.1927004280465	-7.55476308217529	1.06079862104487	-1.1082845345348	0.0115775153384344	0.000240104799987373
0.3	-1.71708519360185	-0.378811364983401	646.617483866572	19.3894675861734	-7.1984127993936	1.04833979661951	-1.10401585723305	0.0117618818055606	0.000839830511569106
0.31	-2.02556460656187	-0.362124505970766	648.950722215966	19.5298217272748	-6.84573579259376	1.03428342761948	-1.09896857791121	0.0118693560127056	0.00142376516724546
0.32	-2.34864002683186	-0.354281450371283	651.068721781521	19.606374509683	-6.51471408401754	1.02173567074888	-1.09588580833377	0.011887392848786	0.00196599140028747
0.33	-2.67921298082828	-0.343952102894244	653.018616038391	19.6201021013768	-6.22574597697342	1.01423666786349	-1.09788695760365	0.0118160227480913	0.00243763257016755
0.34	-3.00583823951279	-0.324048923164173	654.823727659726	19.5791084656064	-5.99916951594701	1.0148301902701	-1.10755279397056	0.0116673044087465	0.00280981085850257
0.35	-3.30987631817605	-0.294133032715453	656.46137917613	19.4964671847793	-5.85288444821266	1.02520730578801	-1.12602482147054	0.011462841046571	0.00305660815387349
0.36	-3.56327380171966	-0.260544829337997	657.857378194804	19.3877027117509	-5.80041707258742	1.04520798509248	-1.15244488998628	0.0112300491942954	0.00315761510094553
0.37	-3.72919260730743	-0.234377952567469	658.896520592158	19.2683474068775	-5.84952640037786	1.07283743295706	-1.18395824855581	0.0109979055650521	0.0030999504732705
0.38	-3.76695321007079	-0.228115308873772	659.444284686769	19.1518462891106	-6.00130429147899	1.10477349128661	-1.21631057330454	0.0107928062533256	0.00287979591904924
0.39	-3.64102747891605	-0.252093238258892	659.373119880756	19.0479670723285	-6.24972265988555	1.13718016056546	-1.24486297088458	0.0106350531163846	0.00250345942295788
0.4	-3.33186514703661	-0.311872725440773	658.587250504417	18.9618341441616	-6.58167762263483	1.16656107572837	-1.26571042797987	0.0105363853782416	0.00198782409378684
0.41	-2.8450715973051	-0.407162541246062	657.041796536961	18.8937011932422	-6.97767043390619	1.19040909977312	-1.27656953390394	0.0104988826747614	0.0013599004581451
0.42	-2.21549549293267	-0.532359859051862	654.754162409804	18.8395387611892	-7.41325778312247	1.20751260927776	-1.27719951732391	0.0105154203790627	0.000655207284951997
0.43	-1.50418092387807	-0.67827133730493	651.807324334431	18.7923942384867	-7.86127269744932	1.21791343057107	-1.26928862352345	0.0105716174784146	-8.51022416604175e-05
0.44	-0.788360618704586	-0.834307342276386	648.34565019544	18.7442970068931	-8.29460859181124	1.22261960784685	-1.25590607226952	0.0106489066176547	-0.000818138855850303
0.45	-0.146868134409883	-0.990446617769892	644.564382964461	18.688303037055	-8.68916198304772	1.22322239734922	-1.2407286449887	0.0107280732955122	-0.00150366016589304
0.46	0.355258406459635	-1.13848585435051	640.694166191155	18.6201927980502	-9.02642608262733	1.22154671265026	-1.2272727480141	0.010792482138822	-0.00210821126694505
0.47	0.679040519166443	-1.27239959793954	636.982142625729	18.5394110769485	-9.29525572351298	1.21940066459624	-1.21830719978466	0.0108303132129014	-0.00260829188300193
0.48	0.817753304174017	-1.38792625641441	633.671248432965	18.4490541485846	-9.49247005784074	1.21841887989765	-1.21552538404787	0.0108354510107649	-0.00299198696198455
0.49	0.795849752409273	-1.48169581766865	630.979357926114	18.3549875301458	-9.62217726246593	1.21994830880985	-1.21946184779623	0.010807082016579	-0.00325878156246118
0.5	0.661301298181629	-1.55030400940037	629.079945210855	18.2644062158556	-9.6939443241646	1.22492038379704	-1.22958076634467	0.0107483964137924	-0.00341761518591044
0.51	0.473548617494456	-1.58972263995224	628.085968887027	18.1842442701714	-9.72015483324315	1.23368532425373	-1.24445269963721	0.0106649261198241	-0.00348356141235784
0.52	0.290068718344151	-1.59532650215563	628.03873283217	18.1197838799921	-9.71306771983821	1.24583299127136	-1.26196080501111	0.010562959275052	-0.00347379974046941
0.53	0.154597424404725	-1.56262369838379	628.903391377115	18.0736599305227	-9.68217880309884	1.2600648495638	-1.27951536983376	0.0104482406773915	-0.00340372591761645
0.54	0.0894077991726916	-1.48852744809229	630.572346337728	18.0452999612607	-9.63246124826102	1.2741945119736	-1.29428447757583	0.0103249530680164	-0.00328406483460675
0.55	0.0929581411838893	-1.37276882228577	632.876890320621	18.0307622763338	-9.56389785584698	1.28533452716208	-1.30345754137923	0.0101949053054101	-0.00311966029390898
0.56	0.142959223499733	-1.21891611207916	635.606148400095	18.0229571734251	-9.47242832288872	1.29028235298783	-1.30454843636468	0.0100569562351422	-0.00291022301948118
0.57	0.203739138575647	-1.03452152547801	638.530953602408	18.0123048436021	-9.35207760692199	1.28606424445236	-1.29572473774272	0.00990688008816165	-0.00265280263030665
0.58	0.235936236241682	-0.830179349505216	641.429188369908	17.9879063747583	-9.19770769676973	1.27054754492289	-1.27612830098266	0.00973796702471286	-0.00234525869288699
0.59	0.206185073333062	-0.617675906437379	644.108711948286	17.9392125877521	-9.00765240085949	1.24300034155904	-1.24613548360264	0.00954252681640932	-0.00198970609605559
0.6	0.0946353099508676	-0.407786293799992	646.4244378567	17.8579767267336	-8.78552320903806	1.20446849188693	-1.2074951517881	0.00931412976496271	-0.0015949147261255
0.61	-0.101199106649453	-0.208457082108986	648.287324329027	17.7400633528891	-8.54071204623654	1.15785720238737	-1.16328255941235	0.00905002585080283	-0.00117696048193222
0.62	-0.366791589184239	-0.0240050980317745	649.664682262816	17.5865868379254	-8.28748705966139	1.10765000585652	-1.11762334034752	0.00875294792980963	-0.000757947314765361
0.63	-0.674645308560397	0.1444195442313	650.57287950099	17.4039591940734	-8.04295928360788	1.05927044587887	-1.07517991886787	0.00843158806453026	-0.000363170918827649
0.64	-0.990668602861088	0.297366657618078	651.064822377078	17.2027300539489	-7.8244734774883	1.0181802328007	-1.04045117041951	0.00809944352896419	-1.74985161615626e-05
0.65	-1.28108504502464	0.435296069113596	651.215211358092	16.9954887013942	-7.64707302951112	0.988889896311682	-1.017001551189	0.00777230008794649	0.000258113989932085
0.66	-1.51815014375831	0.557286534217092	651.106359899257	16.7944059753568	-7.52159697892019	0.974105075950661	-1.00678417133454	0.00746510781937437	0.000449172973812473
0.67	-1.6834894539941	0.660851429459913	650.816450270563	16.6090907129075	-7.45373289985569	0.974219326224279	-1.00972861447397	0.0071891993034493	0.000548806946324976
0.68	-1.76871234915498	0.742977552189599	650.410855030881	16.4452851130773	-7.44405200541696	0.987286391605251	-1.0237161920823	0.00695062886642417	0.00055750667830079
0.69	-1.77382332390065	0.801936385396865	649.936103179166	16.3046004474758	-7.48878106757067	1.00948053208214	-1.04497187245162	0.00674996671459505	0.000481815919019135
0.7	-1.70456534226014	0.839015472326677	649.415669029222	16.1851446176873	-7.58089708673776	1.03592328274854	-1.06879333227615	0.00658336797174042	0.000332597553503511
0.71	-1.56998515509346	0.859257926608743	648.847164966633	16.0826620305294	-7.71111348684335	1.06166506510392	-1.09045212582249	0.00644437071583004	0.00012353530878384
0.72	-1.38116845290053	0.870620913798055	648.20147632329	15.9917726675453	-7.86846458157451	1.08259082686936	-1.10606914974915	0.00632578845711007	-0.000129666217520363
0.73	-1.15140263092189	0.881558000987632	647.425317556784	15.907039903899	-8.04043906085358	1.09607060657413	-1.11329233130208	0.00622124008107483	-0.000409287028648231
0.74	-0.897275537704604	0.897677043983349	646.448976703941	15.8238111933514	-8.21287078777503	1.10126915290101	-1.11166988045257	0.00612616869262483	-0.000695110839088131
0.75	-0.639721342662857	0.918582249672068	645.200251661483	15.7389310315331	-8.36996104901178	1.09912069617314	-1.10268595842849	0.00603845575945561	-0.00096404952037904
0.76	-0.403981517481056	0.936100213254505	643.623822813194	15.6514326216231	-8.49480554322561	1.09203218163274	-1.08948105069385	0.00595880302002383	-0.0011905049686089
0.77	-0.217865934884481	0.934769295320799	641.703083422527	15.5631742337809	-8.57062273313592	1.08339224216179	-1.07630864473299	0.0058909170345095	-0.00134786793684399
0.78	-0.108386999320933	0.894836764204195	639.479589003106	15.4791911642394	-8.58259365288161	1.07695084703367	-1.06779347400697	0.00584130466710786	-0.00141113059365405
0.79	-0.0975026299144964	0.797256822553137	637.064600031016	15.4074219778967	-8.519942431596	1.07612437966732	-1.0680726352871	0.00581835382012852	-0.0013601405121238
0.8	-0.198074664775759	0.629539926539385	634.638149142041	15.3575454956948	-8.37772732153492	1.08329365174091	-1.07993023837544	0.00583047655190572	-0.00118272409061876
0.81	-0.411106683223587	0.390949924136494	632.433582041868	15.3389443207931	-8.15783921326195	1.09919757403803	-1.10407313966361	0.0058834458072119	-0.000876869461194807
0.82	-0.72493544658339	0.0955741667352826	630.708951263733	15.3581885934982	-7.86890685981341	1.12256022429041	-1.1387179996538	0.00597752040965149	-0.000451388328286617
0.83	-1.1165126721892	-0.227797434181801	629.70997248024	15.416734868026	-7.52510645277146	1.15009109974666	-1.17964137445351	0.00610528780226827	7.51210775504774e-05
0.84	-1.5544470315426	-0.53933824744518	629.63147177	15.5095974659256	-7.14416012942259	1.176943348412	-1.22076811860027	0.0062511476605962	0.000676756095395414
0.85	-2.00320894932843	-0.794890365661686	630.584718422712	15.6255101001771	-6.74499268735605	1.19760355898499	-1.25524565550798	0.00639294384698219	0.00132365559210229
0.86	-2.42782987028487	-0.954395747153134	632.576703289567	15.7486289963377	-6.34555531930094	1.20705001502881	-1.27680601291744	0.00650555490214655	0.00198548329225834
0.87	-2.79845800653234	-0.990195383830129	635.504797698591	15.8613185439098	-5.96122982338619	1.20190508663563	-1.28110458756276	0.00656554900514139	0.00263436895317354
0.88	-3.09416442366005	-0.893233712214594	639.167125466609	15.9472136701809	-5.60404367816625	1.18127139083709	-1.26669259747531	0.00655559380516468	0.00324682522281539
0.89	-3.30539918783784	-0.675609774464728	643.286181834608	15.993704407626	-5.28271430835695	1.14700563568306	-1.23535283182697	0.00646736314744822	0.00380443971416095
0.9	-3.43454325382805	-0.368756924464051	647.541247282533	15.9932420761209	-5.00334883070959	1.10333510588558	-1.19169134085859	0.00630218208674915	0.00429344225372341
0.91	-3.49420221581852	-0.0175972592990153	651.604156284029	15.9433041715329	-4.7704842212747	1.05591050757024	-1.14208160322101	0.00606939696440278	0.00470351290772303
0.92	-3.50331920970355	0.327987686625627	655.172957668761	15.8452960185712	-4.58807876088934	1.01055061589869	-1.09323644615757	0.00578316108195454	0.00502638355828816
0.93	-3.48180375454999	0.622384988475197	657.998836663881	15.7029513887106	-4.46007119803554	0.972015152253985	-1.05077996082574	0.00545873976634836	0.0052548529269415
0.94	-3.44499342427185	0.832080722522132	659.903241417384	15.5208434926643	-4.39022180795129	0.943120258343556	-1.01818005051442	0.00510944546584269	0.00538274331698096
0.95	-3.39960649923445	0.94043605337883	660.784285611831	15.3034535933014	-4.38114323863467	0.924399894409561	-0.996291295563812	0.00474495896496874	0.00540605903548419
0.96	-3.342657837329	0.94859875539984	660.613824107158	15.0549621572217	-4.432695585375	0.914356821138503	-0.983584896870453	0.00437124393328892	0.00532519340114324
0.97	-3.26402201619089	0.872738083428294	659.428545840256	14.7796450037966	-4.54019567774667	0.910187630554813	-0.976957813780695	0.00399172832740258	0.00514757511346686
0.98	-3.15212304710312	0.738661810756057	657.319338106623	14.4825659808246	-4.69307743326541	0.908749418544825	-0.972864958324346	0.00360907756392559	0.00488980441091696
0.99	-3.00102544589816	0.575399470581534	654.422593991221	14.1701970871917	-4.87464079280901	0.907486740270951	-0.96844216667848	0.00322679978096041	0.00457826728008565
1	-2.81648809037549	0.4094114033048	650.915118213805	13.8506548784901	-5.06329333514531	0.905063902763723	-0.962301476249102	0.00285008375324025	0.00424752053189403
1.01	-2.61866299824193	0.260730265546781	647.011533448453	13.5333775809097	-5.23526230228444	0.901540538344998	-0.954781215224974	0.00248558698054813	0.00393636390925084
1.02	-2.44009681427165	0.141683406745336	642.960743124181	13.2282342806493	-5.36826791217567	0.898064766220768	-0.947597135622088	0.00214025124971762	0.00368226573943631
1.03	-2.31919565927969	0.0580678868267464	639.037180159958	12.9442172404728	-5.44528014912443	0.896203236956614	-0.943023456549971	0.0018195231557554	0.00351541486269802
1.04	-2.29080682045929	0.0119637127723559	635.523805395515	12.6879917954499	-5.45738006638121	0.897139435812754	-0.942879613182594	0.00152552892530278	0.00345389576356575
1.05	-2.37653794441188	0.00496097538875814	632.686773243379	12.462643330523	-5.40496437352999	0.901013407632948	-0.947660464688455	0.00125576918104364	0.00350122752651599
1.06	-2.57758285966033	0.0405570583376033	630.745230302525	12.266951908165	-5.29699669146549	0.90662910941493	-0.956100144277999	0.00100277128086756	0.00364685605440951
1.07	-2.87215997698451	0.124851567622403	629.842428693967	12.0954365623317	-5.14855679257053	0.911632076309192	-0.965316201095798	0.000754904190981454	0.00386937273057675
1.08	-3.21844597068582	0.265304717625597	630.025117502739	11.9392530339235	-4.97738635286219	0.913102655249595	-0.971491273007512	0.000498278792106954	0.00414152469001483
1.09	-3.5624710829324	0.468015878838846	631.236701947973	11.7878299896396	-4.80034487829661	0.908376276745413	-0.970881894947068	0.000219385307356323	0.00443569021792334
1.1	-3.84919108562686	0.734493736757498	633.326466238725	11.6309361717026	-4.63063527370419	0.895839805209008	-0.960855164813407	-9.20825991372887e-05	0.00472849412138482
1.11	-4.03414080702665	1.0590647540753	636.073327166709	11.4607388142916	-4.47638753810564	0.875478719402241	-0.940666826638819	-0.000440850599691012	0.00500357609130453
1.12	-4.09287313182716	1.42785909308852	639.219270225268	11.2733873507403	-4.34080488550947	0.849043845991948	-0.911791304675896	-0.000824699566243314	0.00525206179943166
1.13	-4.02584656197186	1.81980793027811	642.505632505016	11.0697539590911	-4.22368646393906	0.819824625523701	-0.87774995140577	-0.00123446447072584	0.00547086813862779
1.14	-3.85746631268638	2.20946120792994	645.705058908763	10.8551637154455	-4.12382417768036	0.792113452046525	-0.843508777639842	-0.00165542548386732	0.00565947892461166
1.15	-3.62939558961789	2.57089721087365	648.643169034569	10.6381972295299	-4.04157371414825	0.770496875536575	-0.814598889498959	-0.00206977744776882	0.00581617733289563
1.16	-3.3897095128255	2.88170970499454	651.206367647416	10.4288756924967	-3.98084571481861	0.75911516493246	-0.796144959144566	-0.00245959632658688	0.00593486766233864
1.17	-3.18059306845711	3.12609348734422	653.335314984376	10.236677508546	-3.94986602927252	0.761010741898198	-0.791981455148928	-0.00280960942530628	0.00600352767486173
1.18	-3.0277674193907	3.29636119932495	655.006775309483	10.068850504328	-3.96031634153256	0.777658865813394	-0.804009562668897	-0.00310915475895057	0.0060049885179449
