Time [s]	GRFml [N]	GRFap [N]	GRFv [N]	Mml [N.m]	Map [N.m]	Mv [N.m]	Mfree [N.m]	COPml [m]	COPap [m]
0.01	12.8398972987986	8.65467776809539	744.464724300228	-54.605902512947	-5.78197640931604	0.68054822361985	1.68960798298422	-0.0023189165591043	0.00525616781858664
0.02	12.6024427362837	8.61414063475084	744.325540613298	-54.3864623480183	-5.74328349211826	0.434989951141469	1.42235785300141	-0.00226657907804383	0.00497707702531404
0.03	12.3697648317893	8.56896877818234	744.174179079974	-54.1644397586612	-5.70558623933639	0.194331875292766	1.16043869450798	-0.00221568169372141	0.00469550937704612
0.04	12.1466563031489	8.51752799379812	744.006283743461	-53.9404675505656	-5.67026098342311	-0.0370389732387935	0.908601786616801	-0.00216812797461324	0.00441268181898381
0.05	11.9376234467633	8.45845518765566	743.817468552494	-53.7152999099325	-5.63867971255106	-0.255078263720206	0.671232282823203	-0.00212581713235859	0.0041299807426648
0.06	11.7467092784687	8.39079015049937	743.603654271411	-53.4898842917128	-5.61215662330443	-0.456244381873708	0.452177719934431	-0.00209056848507684	0.00384902854508158
0.07	11.5773406820654	8.31408510595685	743.361441093043	-53.2654185917987	-5.59189757820233	-0.637632306684066	0.25460436455796	-0.00206404952794196	0.00357172715783116
0.08	11.4322069792407	8.22848362076596	743.088496270802	-53.0433871440188	-5.57895463990936	-0.79707451175809	0.0808887096739864	-0.00204771069757686	0.00330027169035228
0.09	11.3131751858291	8.13476260686959	742.783931277112	-52.8255710479608	-5.57418740043839	-0.93320417483648	-0.0674508310107692	-0.00204272932608769	0.00303713039065609
0.1	11.2212448193053	8.03433371006461	742.44863968103	-52.6140305554941	-5.57823233104887	-1.04547833223768	-0.189779518240984	-0.00204996463625663	0.00278499040643926
0.11	11.1565426619311	7.92920318352304	742.085565692812	-52.411059533617	-5.59148088968153	-1.13416103315701	-0.286329274345189	-0.00206992498879018	0.00254667202501058
0.12	11.1183555490712	7.82189219226166	741.699874546549	-52.219114212234	-5.61406667133932	-1.2002688685661	-0.358141671381161	-0.00210274799966181	0.00232501692238626
0.13	11.1051972066921	7.71532219085754	741.298999758257	-52.0407203754299	-5.64586149621393	-1.2454833238618	-0.406975756178528	-0.00214819362945731	0.00212275825258626
0.14	11.1149035337583	7.61267237618475	740.89254872549	-51.8783647482587	-5.68648001347542	-1.27203611130885	-0.435187354611094	-0.00220564992066048	0.00194238200765098
0.15	11.1447495968054	7.51721807730952	740.492056784617	-51.7343774813949	-5.73529215871637	-1.28257488716168	-0.445587783552276	-0.00227415072198449	0.00178598988816346
0.16	11.1915810092774	7.43216017836716	740.110590133046	-51.6108132873462	-5.79144263524399	-1.28001749414119	-0.44129061073121	-0.00235240447830604	0.00165517391550379
0.17	11.2519522941915	7.36045619471156	739.762209182792	-51.5093389105057	-5.85387648305476	-1.26740307462599	-0.425555232579819	-0.00243883295968453	0.00155091222216573
0.18	11.322265221662	7.30466340751637	739.461315040515	-51.4311342276563	-5.92136974034182	-1.24774809123976	-0.401635623400747	-0.00253161862942692	0.0014734939605429
0.19	11.3989008883222	7.26680353228599	739.221911966706	-51.376813415426	-5.99256417579312	-1.22391451960432	-0.372641716789629	-0.00262875918743683	0.00142247920480071
0.2	11.4783403600857	7.24825683126542	739.056826957618	-51.3463713549408	-6.06600506203443	-1.19849632003938	-0.34141960972112	-0.00272812765655006	0.00139669725144492
0.21	11.5572699221393	7.24969150516072	738.976933253334	-51.3391588638612	-6.14018096061952	-1.1737288483067	-0.310455244888397	-0.00282753620262122	0.00139428404192905
0.22	11.6326682634121	7.27103177992459	738.990427043509	-51.3538885623022	-6.21356449028949	-1.15142423997522	-0.281804547849989	-0.00292480170313597	0.00141275673493972
0.23	11.7018741724994	7.31146552725319	739.102205615853	-51.3886713124681	-6.28465305058762	-1.13293411282027	-0.257051289470997	-0.00301781092570131	0.00144912094269112
0.24	11.7626344623434	7.36948971815397	739.313390655391	-51.4410813450855	-6.35200847431921	-1.11913928742324	-0.237292317684969	-0.00310458307735888	0.00150000399285466
0.25	11.8131328180329	7.44298969379379	739.621032626951	-51.5082465157876	-6.4142945901908	-1.11046472743946	-0.22314834597725	-0.00318332747168873	0.00156180593378397
0.26	11.8520010442353	7.52934630852987	740.01802169487	-51.5869587246397	-6.47031169886175	-1.10691663042954	-0.214797269079673	-0.00325249416229908	0.0016308589730242
0.27	11.8783147644941	7.62556358052484	740.493218201817	-51.6737984647833	-6.51902700995227	-1.10813761868727	-0.212026046649865	-0.00331081562637699	0.00170358568707904
0.28	11.891575998745	7.72840865253807	741.031802239532	-51.7652667991122	-6.5596001618891	-1.1134753238513	-0.214296577978383	-0.00335733795166948	0.00177664667117532
0.29	11.8916852344526	7.83455564455581	741.615828263296	-51.8579178258733	-6.5914030563284	-1.12205934103277	-0.220820688372962	-0.00339144046675718	0.00184706926641161
0.3	11.8789056343373	7.94072534481905	742.22495798222	-51.9484848845065	-6.61403338659033	-1.13288153588151	-0.230639345188299	-0.00341284332238213	0.00191235051584093
0.31	11.8538219163279	8.04381356459959	742.837333764072	-52.0339943428802	-6.62732142357342	-1.14487498904854	-0.242701487242886	-0.00342160313281135	0.00197052942970595
0.32	11.8172962257552	8.14100226648725	743.430546239288	-52.1118617420994	-6.6313298375693	-1.1569874083457	-0.255938342525809	-0.00341809736729755	0.00202022582569254
0.33	11.770423020875	8.22984913390385	743.982644188063	-52.1799662806231	-6.62634657132863	-1.16824557014337	-0.269329774752621	-0.00340299869199012	0.00206064528299144
0.34	11.7144846334555	8.30835293918473	744.473132435005	-52.2367010067575	-6.61287102703384	-1.1778082034475	-0.281959984611437	-0.00337724086171054	0.00209155194210037
0.35	11.6509087676943	8.37499375108166	744.88390441361	-52.2809975617036	-6.59159407440162	-1.18500563789036	-0.293060741124174	-0.00334197802383246	0.00211321284495361
0.36	11.5812287838755	8.42874857837194	745.200060134697	-52.3123257781114	-6.56337261565312	-1.18936544034419	-0.30204117971411	-0.00329853941586402	0.00212631911885663
0.37	11.5070471991621	8.46908437818367	745.410567145721	-52.3306698018135	-6.52919964328368	-1.19062411191692	-0.308504028718143	-0.00324838142410684	0.00213189047446491
0.38	11.4300024490161	8.49593140015293	745.508731198317	-52.3364835893125	-6.49017088825482	-1.18872566605252	-0.312248874647304	-0.00319303884682584	0.00213117016268743
0.39	11.3517386121502	8.50964055722634	745.492454142221	-52.3306295790857	-6.44744927204331	-1.18380852923957	-0.313263716267065	-0.00313407700469437	0.00212551770600442
0.4	11.2738775326847	8.51092890741955	745.364268369281	-52.314304998121	-6.40222844163181	-1.17618267993606	-0.311706565383299	-0.00307304610036542	0.00211630640894651
0.41	11.1979925964489	8.50081741989053	745.131149260918	-52.2889606236882	-6.35569668074795	-1.16629926103156	-0.307879214143082	-0.00301143898224771	0.002104831912024
0.42	11.1255833509363	8.4805650236908	744.804118885267	-52.2562168715059	-6.30900245476843	-1.15471506816194	-0.302195499659814	-0.00295065324238584	0.00209223695688182
0.43	11.0580502103979	8.45160255055354	744.39766503435	-52.2177818410786	-6.2632227640082	-1.14205433983451	-0.295146460031982	-0.00289195839170298	0.00207945616639257
0.44	10.9966686600719	8.41546964115569	743.92900904414	-52.1753754492959	-6.21933535526051	-1.12897017090106	-0.287264701769787	-0.00283646871235885	0.00206718310834766
0.45	10.9425626573009	8.37375704418485	743.417263243869	-52.1306630699548	-6.17819567990824	-1.11610765796019	-0.279090103779273	-0.00278512227892952	0.00205586030419105
0.46	10.8966773019656	8.32805605174768	742.88252397565	-52.0852012252498	-6.14051929463463	-1.1040705860173	-0.271138688677655	-0.00273866654972043	0.0020456912613027
0.47	10.859751283553	8.27991612913631	742.344948661029	-52.0403969073349	-6.10687018403012	-1.09339310381794	-0.263876123058029	-0.00269765083281952	0.00203667213930318
0.48	10.8322900678842	8.23081115017279	741.823865237801	-51.9974811083814	-6.07765524995647	-1.08451743460734	-0.257696891150469	-0.00266242580374749	0.00202863938991922
0.49	10.8145412177857	8.18211407213477	741.336959450263	-51.9574961697538	-6.0531249677441	-1.07777825288914	-0.252909748513895	-0.00263315007318566	0.00202132870774055
0.5	10.8064736012686	8.13507940024428	740.899580091613	-51.9212956842922	-6.03337996232985	-1.07339394779948	-0.24972963050173	-0.0026098035652669	0.00201443995449423
0.51	10.8077624824412	8.09083241765919	740.52419465571	-51.8895549519901	-6.01838301740532	-1.07146460953345	-0.2482757886465	-0.00259220717462916	0.00200770241546164
0.52	10.8177825751295	8.05036390307778	740.22001838529	-51.8627894401139	-6.0079758075652	-1.0719762336476	-0.24857557772052	-0.0025800478445388	0.00200093483763167
0.53	10.8356110383092	8.01452892821758	739.992828960601	-51.8413783630309	-6.00189944800362	-1.07481035258844	-0.250573033459626	-0.00257290788272262	0.00199409518675217
0.54	10.860042091702	7.98404831888658	739.844967713918	-51.8255903895658	-5.99981779933927	-1.0797580845067	-0.254141176946597	-0.00257029704778405	0.00198731592016715
0.55	10.8896144321339	7.95951146708963	739.775517003881	-51.8156086064025	-6.00134235689614	-1.08653744264488	-0.259096862013223	-0.00257168573927337	0.00198092175160129
0.56	10.9226519579126	7.94137938252301	739.78063297993	-51.8115521995822	-6.00605750291959	-1.0948126768967	-0.265216946806987	-0.00257653754297049	0.00197542830237084
0.57	10.957317499058	7.92998714942182	739.8540041169	-51.8134928329282	-6.01354491285769	-1.1042144213851	-0.272254614949067	-0.00258433943937909	0.00197152158607175
0.58	10.9916783610181	7.92554528416736	739.987399218464	-51.8214643601745	-6.02340598543599	-1.11435949339156	-0.279954786377093	-0.00259462817860045	0.00197001983880181
0.59	11.0237815855314	7.92813984245998	740.171264547779	-51.8354652547391	-6.03528130875396	-1.12486932172086	-0.288067730752055	-0.00260701164001571	0.00197182065605148
0.6	11.0517359877328	7.93773147299063	740.39532862943	-51.8554539191319	-6.04886637399103	-1.13538616572923	-0.296360212830811	-0.00262118439571477	0.00197783760821631
0.61	11.0737973163086	7.95415392868593	740.64917514523	-51.8813377840901	-6.06392299248615	-1.14558650649188	-0.304623743876854	-0.00263693713744047	0.0019889313757835
0.62	11.0884523693009	7.97711280048012	740.922749051971	-51.9129577667992	-6.08028614450653	-1.15519123380397	-0.312679769896068	-0.00265416006053154	0.00200584089929286
0.63	11.0944976344105	8.00618541025918	741.206768190174	-51.950070175287	-6.09786626929629	-1.1639725005867	-0.320381880071291	-0.00267284068232927	0.00202912004279286
0.64	11.0911080428186	8.04082287332608	741.493021637614	-51.992328480008	-6.11664727483414	-1.17175735308765	-0.327615351323061	-0.0026930568745928	0.00205908482862623
0.65	11.0778917404543	8.08035530825653	741.774546144257	-52.0392674953213	-6.13668078145608	-1.17842845479195	-0.334294542172159	-0.00271496609093446	0.00209577546159431
0.66	11.0549273765674	8.12400103376725	742.045682327814	-52.0902924110922	-6.15807729800292	-1.18392238948345	-0.340358796982928	-0.00273879186608901	0.00213893620110384
0.67	11.0227812489914	8.17088035757183	742.302022051937	-52.1446747938851	-6.18099514875886	-1.1882261423604	-0.345767608351174	-0.00276480866050503	0.00218801476426388
0.68	10.9825026706245	8.22003424897756	742.540266747925	-52.2015571618553	-6.20562801640503	-1.19137240929824	-0.350495802412396	-0.00279332603601882	0.00224218146759654
0.69	10.9355970595096	8.27044782008545	742.758022698495	-52.2599670674108	-6.23219193959103	-1.19343436994607	-0.354529455553065	-0.0028246729955411	0.0023003668583243
0.7	10.8839774248809	8.32107814971333	742.95356299061	-52.3188408501971	-6.26091250965026	-1.1945204827093	-0.357863123865125	-0.00285918312269765	0.00236131525805941
0.71	10.8298960434449	8.37088560160491	743.125586708233	-52.3770564122108	-6.29201286211528	-1.19476972716417	-0.360498778020246	-0.002897180937	0.00242365053597396
0.72	10.7758591219135	8.41886744549248	743.273003974906	-52.4334735831062	-6.32570287303433	-1.19434754610683	-0.362446602260791	-0.00293896965632429	0.00248594961755376
0.73	10.7245280659483	8.46409231418788	743.394770922675	-52.4869799517021	-6.36216976919608	-1.1934425439847	-0.363727559032062	-0.00298482035032552	0.00254681876689332
0.74	10.6786115836948	8.50573384459322	743.489792036639	-52.536539497012	-6.40157016809312	-1.19226380265508	-0.364377366532311	-0.00303496229415556	0.0026049675778686
0.75	10.6407532261403	8.54310177082261	743.55689926089	-52.5812410046436	-6.44402339954321	-1.19103850193415	-0.364451312553104	-0.00308957420839838	0.00265927587003376
0.76	10.6134191084014	8.57566877120835	743.594908525206	-52.6203431322478	-6.48960584460286	-1.19000940239716	-0.364029160038911	-0.00314877601275267	0.00270884928230566
0.77	10.5987904837029	8.60309151772669	743.602745778856	-52.6533131027316	-6.53834597147961	-1.18943167864328	-0.363219308549371	-0.00321262073726731	0.00275306024274419
0.78	10.5986655842733	8.62522462894681	743.579626983481	-52.6798563489031	-6.59021975825342	-1.18956859407526	-0.362161374522491	-0.00328108632846614	0.00279157209765311
0.79	10.6143747347533	8.64212657220785	743.525270504737	-52.6999349823087	-6.64514626619661	-1.19068558705875	-0.36102644594404	-0.00335406725219716	0.00282434542356964
0.8	10.6467122175677	8.65405697816239	743.440116476504	-52.7137736701753	-6.70298325541528	-1.19304248884726	-0.360014447852318	-0.00343136601449823	0.00285162682660905
0.81	10.6958877546822	8.66146529740913	743.325526313775	-52.7218523228047	-6.76352289968319	-1.19688380357072	-0.359348308742061	-0.00351268497117125	0.00287392175638017
0.82	10.7614997875358	8.66497121737462	743.183936717827	-52.7248858565681	-6.82648783791915	-1.20242723050919	-0.359264921188225	-0.00359761904440843	0.00289195393174273
0.83	10.84253200042	8.66533773788897	743.018946118718	-52.7237921390738	-6.8915279713233	-1.2098508741124	-0.360003214226948	-0.00368565017602212	0.00290661481109
0.84	10.937373750142	8.6634382444677	742.835317193529	-52.7196499799953	-6.95821855337673	-1.21927984010356	-0.361789969029167	-0.00377614448827994	0.00291890707901957
0.85	11.0438642419693	8.66021928762459	742.638886365127	-52.7136496480721	-7.02606020321601	-1.23077312855968	-0.364824282642579	-0.00386835316749922	0.00292988632904019
0.86	11.1593594355931	8.65666104523287	742.436379378088	-52.7070388287174	-7.09448148515175	-1.24431188162578	-0.369261790156407	-0.00396141801435897	0.00294060499286408
0.87	11.2808197874412	8.65373758845307	742.235140447304	-52.701067159641	-7.1628446294017	-1.25979010414336	-0.375199872825249	-0.0040543824123411	0.00295206212512653
0.88	11.4049160574959	8.65237907311442	742.042790353112	-52.6969324832937	-7.23045482097399	-1.27700893689731	-0.382665095747276	-0.00414620815904459	0.0029651619488433
0.89	11.5281495598397	8.65343783099256	741.866835539803	-52.6957317415775	-7.29657326332104	-1.29567542021397	-0.391604029924814	-0.0042357982045059	0.0029806831729081
0.9	11.6469824557955	8.65766004468317	741.714255195455	-52.6984190332218	-7.36043394727161	-1.31540644571083	-0.401878425404883	-0.00432202487765548	0.00299926009253318
0.91	11.7579730235621	8.66566427419378	741.591096037942	-52.7057727941946	-7.42126374691951	-1.33573827104417	-0.413265428640707	-0.00440376269678799	0.00302137546502962
0.92	11.8579103394541	8.67792759367817	741.502104878339	-52.7183733932551	-7.4783051502363	-1.35614158990272	-0.425463199222795	-0.0044799243974985	0.0030473642009832
0.93	11.9439425234665	8.69477953358637	741.450426954099	-52.7365917108016	-7.53084064273164	-1.37604173712581	-0.438101904755826	-0.00454949841761278	0.00307742609804765
0.94	12.0136926802505	8.7164034538595	741.437393695227	-52.7605885434519	-7.57821752612633	-1.39484320038071	-0.450759686695781	-0.00461158579490207	0.0031116452285635
0.95	12.065356938779	8.74284444630547	741.462417363625	-52.7903240004537	-7.61987179560217	-1.41195723973145	-0.462982823507209	-0.00466543429306784	0.00315001321123766
0.96	12.0977795767703	8.77402242436412	741.523002392597	-52.8255754758586	-7.65534963744272	-1.4268311165901	-0.47430899767578	-0.00471046759564905	0.00319245346920907
0.97	12.1105011057713	8.80974874375219	741.614874857496	-52.8659623281379	-7.68432515442879	-1.43897723043133	-0.484292323123182	-0.0047463076023531	0.00323884370022612
0.98	12.1037763633143	8.84974453425043	741.732222988188	-52.9109751014763	-7.70661308073892	-1.44800037392034	-0.492528627227286	-0.00477278821820503	0.00328903413947909
0.99	12.0785610600873	8.89365892379759	741.868033645477	-52.9600069935342	-7.72217550353925	-1.45362135401413	-0.498679418369057	-0.00478995951811002	0.00334285974620574
1	12.0364667914167	8.94108549924722	742.014502828863	-53.012385314416	-7.73112194848004	-1.45569538739624	-0.502493010226425	-0.00479808176061099	0.00340014514300316
1.01	11.9796861549086	8.99157565779828	742.163493064511	-53.0674008810441	-7.73370258726635	-1.45422395284793	-0.503821415444395	-0.0047976093687767	0.00346070192379663
1.02	11.910891219882	9.04464793103171	742.307007307772	-53.1243336300768	-7.73029475846388	-1.44935915186281	-0.502631854672353	-0.00478916564330665	0.00352431875882118
1.03	11.8331100655796	9.09979287157387	742.437647992991	-53.1824731821664	-7.72138342609691	-1.4414000662982	-0.499012037091194	-0.00477350957404545	0.00359074549738969
1.04	11.7495873450783	9.15647363577608	742.549031114439	-53.2411336152154	-7.70753660256563	-1.43078107804368	-0.493168735273536	-0.00475149662744147	0.0036596731392869
1.05	11.6636357543497	9.21412292635496	742.636128599002	-53.2996622643232	-7.68937710345189	-1.41805259860486	-0.485419576732246	-0.00472403577404396	0.00373071205870745
1.06	11.5784858253663	9.27213742925249	742.695517454681	-53.3574429193307	-7.66755225694826	-1.40385511476633	-0.476178381092528	-0.00469204525769941	0.00380337117825776
1.07	11.4971415787655	9.32987124619074	742.72552084345	-53.4138942960895	-7.64270334133759	-1.38888786154942	-0.465934759707404	-0.00465640968408127	0.00387704087795487
1.08	11.4222492548599	9.38663005384756	742.726233833898	-53.4684650771418	-7.61543655915068	-1.37387376156171	-0.455229039822061	-0.00461794091925837	0.00395098227675132
1.09	11.3559856112404	9.44166778877885	742.699434585627	-53.5206271198371	-7.58629727349767	-1.35952250242699	-0.444623857733155	-0.00457734504800668	0.00402432515198083
1.1	11.2999711786248	9.49418755391533	742.648389537869	-53.5698685917584	-7.55574903588244	-1.34649374965411	-0.434673969281849	-0.0045351972638643	0.00409607619290009
1.11	11.2552124759378	9.54334817161116	742.57756828033	-53.6156888013214	-7.52415863833519	-1.33536250599765	-0.425895941536148	-0.00449192607266019	0.00416513856058696
1.12	11.2220755911044	9.58827738773748	742.4922896991	-53.6575963431384	-7.49178804505825	-1.3265885312785	-0.418739412433779	-0.0044478076176772	0.00423034290094502
1.13	11.2002918370376	9.62809219176676	742.398325331167	-53.6951118820283	-7.4587936240172	-1.32049153557482	-0.413561536537628	-0.00440297031069241	0.00429048908956729
1.14	11.1889944973776	9.66192610015396	742.301488359239	-53.7277764760215	-7.42523263436274	-1.31723356528816	-0.410606080463732	-0.00435740931427763	0.00434439713705566
1.15	11.1867840838663	9.68896260293979	742.207237193582	-53.7551658166159	-7.3910764602139	-1.31680963144411	-0.409988400069554	-0.00431100980364215	0.00439096490831604
1.16	11.1918181256273	9.70847334852891	742.120321112354	-53.776910180941	-7.35622964416465	-1.31904720147458	-0.41168723483935	-0.00426357737765459	0.0044292296600255
1.17	11.2019203720374	9.71985909096954	742.044492089835	-53.7927192879249	-7.32055339236232	-1.32361471082018	-0.415543906675569	-0.00421487352357875	0.0044584299185844
