Time [s]	GRFml [N]	GRFap [N]	GRFv [N]	Mml [N.m]	Map [N.m]	Mv [N.m]	Mfree [N.m]	COPml [m]	COPap [m]
0.01	0.345277339781664	-0.559713223441882	584.954660475225	0.467344757802752	15.5752909048456	0.833057414093807	-0.817800145450564	-0.00192123628749763	-0.00745979143978276
0.02	-0.34648151921149	-0.414268776866473	585.189345276311	0.26580342338795	15.985407511502	0.786705131584649	-0.775252525704285	-0.00226561238646839	-0.00678011137177242
0.03	-0.953500176671493	-0.279492170061358	585.637734460118	0.0812613432788804	16.363232927494	0.747077083267345	-0.739162268869876	-0.00258095713852791	-0.00616585849208223
0.04	-1.40041244236271	-0.166939430812106	586.464992909095	-0.0699324186154634	16.6788172866848	0.720101571708971	-0.715157125671602	-0.00283940361822177	-0.00567611979402982
0.05	-1.64101657610469	-0.0843959335438796	587.712688466057	-0.175017498876993	16.9101835046054	0.708896782231757	-0.706150975881631	-0.00301925320941154	-0.00535037764380097
0.06	-1.66656738902586	-0.0342872521989233	589.279029399344	-0.226741111298161	17.0462010047006	0.713005901216153	-0.711620243700362	-0.00310823942296945	-0.00520264621047706
0.07	-1.50673718375066	-0.0129439390592702	590.940335620299	-0.224857461409328	17.0880529403614	0.728445454089696	-0.727672402004243	-0.00310605319230883	-0.0052200129313878
0.08	-1.22317668466316	-0.0108576720358389	592.40639286952	-0.176716933865179	17.0490429467238	0.748565633757115	-0.747902630063279	-0.00302530257853473	-0.00536566098136271
0.09	-0.897201057281345	-0.0139346642322094	593.393417708453	-0.0965397008811165	16.9527487752989	0.7655308040385	-0.764846631787901	-0.00289023210405381	-0.00558556991104542
0.1	-0.614308972400591	-0.00564695860513583	593.694697559963	-0.00323633366332536	16.8297775901118	0.772084427204161	-0.771695017434868	-0.00273298474721928	-0.00581749212468885
0.11	-0.448694402934326	0.0301004953378491	593.231042928327	0.0829958043354148	16.7135377265025	0.763202011590011	-0.763874877032769	-0.00258780887609789	-0.00600062998916773
0.12	-0.45058906517117	0.105673744927551	592.069847383952	0.144713840251006	16.6355155563812	0.737267656213245	-0.740138508418676	-0.00248421283283873	-0.00608463332463161
0.13	-0.638386138795231	0.226434272559603	590.410462574524	0.171075716083023	16.6205836417289	0.696519739359842	-0.70291452009099	-0.00244047844605522	-0.00603690207207047
0.14	-0.996378868285263	0.388127650608167	588.542018205116	0.160602249932714	16.6829131139688	0.646671038827157	-0.657843737190339	-0.00245903197964759	-0.00584750535837386
0.15	-1.47791952601105	0.575701587930406	586.785492267134	0.122130877846792	16.823116973397	0.595785237177432	-0.6126052300573	-0.00252488389882843	-0.00553121285597041
0.16	-2.01306412137886	0.764232077975444	585.433675690386	0.0735988971069774	17.0272535657175	0.552651707701738	-0.575298024125961	-0.0026077318757608	-0.00512622541851521
0.17	-2.51936494899526	0.922259873101741	584.700954947467	0.0387714835211718	17.2681874051092	0.525010601826015	-0.552745238779874	-0.00266751344735661	-0.00468934451764175
0.18	-2.9143366669562	1.01721712819055	584.690851006231	0.0425056138221119	17.509480933035	0.518012170048056	-0.549101615330081	-0.00266239521044886	-0.00428769008354862
0.19	-3.12812709508805	1.02193901361909	585.384626714492	0.105495025371188	17.7114903991367	0.533233614877782	-0.565063214961627	-0.00255759797059396	-0.0039877121360149
0.2	-3.11495648703849	0.920766585398584	586.650285507617	0.239585329672589	17.8387625141889	0.568434205055252	-0.597817846294352	-0.00233322888086496	-0.00384302843516648
0.21	-2.86189311326021	0.713676277502637	588.268512488913	0.444650636030642	17.8673386367787	0.618044443376574	-0.641683369560978	-0.00198947133253191	-0.00388330725974095
0.22	-2.39353935977849	0.417291889824426	589.970491043798	0.707713045207443	17.7903428231608	0.674216281577235	-0.689220383853545	-0.00154801520561298	-0.00410670693045917
0.23	-1.77132900997181	0.0624277689213845	591.481687738836	1.00454002995586	17.6203827568981	0.728162857507225	-0.732527994943355	-0.00104936072319761	-0.00447806028440462
0.24	-1.08655290405747	-0.311289632754826	592.565317519478	1.30346870318033	17.3878570026114	0.77151243256244	-0.76445406677339	-0.00054643401596921	-0.00493399766071728
0.25	-0.447081178908017	-0.662468298251438	593.059238098564	1.57077341451409	17.1351512281324	0.797474731837459	-0.779548760429649	-9.56584433353669e-05	-0.00539468874056925
0.26	0.0409537884352736	-0.955100690852918	592.900693799553	1.77658860459591	16.9077251032564	0.801719257428911	-0.774706187353243	0.000252884607301884	-0.00578019569556593
0.27	0.293726316267118	-1.16437497429317	592.134898658294	1.90027314153578	16.7439738631538	0.782940207939658	-0.749516873769261	0.000464374250331856	-0.00602803016516457
0.28	0.26845610905073	-1.2801476229175	590.905948649016	1.9341809740356	16.6662208856666	0.743102085749939	-0.706365462885479	0.000525547933095338	-0.00610785321450114
0.29	-0.0242607308354228	-1.30765438797267	589.431611208458	1.88508248871114	16.6750679167924	0.687334244258607	-0.650267604773049	0.000447132228290847	-0.00602965103562308
0.3	-0.518354773297576	-1.26557923432265	587.966439167907	1.77292238669143	16.7485713618519	0.623413690939906	-0.588393364557392	0.000261876567234531	-0.00584316332274853
0.31	-1.1021799366435	-1.18201359279834	586.759621747465	1.62712431121706	16.8465071668937	0.560791510373937	-0.529222861685673	1.85155407990134e-05	-0.00562848729052062
0.32	-1.639217958484	-1.08909843076423	586.014545446666	1.48114878385896	16.9186846508687	0.509203397126553	-0.481349554321717	-0.000227197648311583	-0.00548000689250844
0.33	-1.99543440824012	-1.01726303573411	585.856231194411	1.36636055047177	16.9152758877644	0.477041171602239	-0.452071784769048	-0.000422660444589051	-0.00548741917729134
0.34	-2.06710742526163	-0.989969826649491	586.311120874665	1.30637462290384	16.7967456159017	0.469794137642987	-0.446040319072178	-0.000527867275664895	-0.00571815877710397
0.35	-1.80258973245716	-1.01974645697854	587.301726602586	1.31290104566951	16.5412792724075	0.488928605878395	-0.464292109971032	-0.000522439349536663	-0.00620485520960573
0.36	-1.21293215532403	-1.10604645879684	588.656852524452	1.38374834805216	16.1484465556864	0.531515020246281	-0.50395255300044	-0.00040912589411346	-0.00693991148251
0.37	-0.369144511357247	-1.23517040597574	590.136505775404	1.5031870641186	15.6388700375313	0.590737801699921	-0.55873066827972	-0.000213411696071253	-0.00787745079607605
0.38	0.612789356141319	-1.38217143415222	591.469002018912	1.64444689698901	15.0505395802951	0.65718839981331	-0.620114822109565	2.04354388942951e-05	-0.00894133968882532
0.39	1.59518305803801	-1.51442586877379	592.395910325883	1.77381967235369	14.4328963544715	0.720631534524934	-0.678980700840604	0.000236049662609594	-0.0100371368831136
0.4	2.44465467496802	-1.59639129299409	592.718445001917	1.85569495221836	13.8398757671637	0.771823774867221	-0.727220902393046	0.000373313183778423	-0.0110656797461858
0.41	3.05526984375377	-1.5949694046479	592.337226681097	1.85783276707445	13.3228883210842	0.803985610937827	-0.759029488454121	0.000377239235047067	-0.0119363676339851
0.42	3.36451630231525	-1.48479329389845	591.276866046648	1.75621626501781	12.9244425927299	0.813662075914577	-0.771605752421653	0.000206300696215855	-0.0125786902556126
0.43	3.3598965775575	-1.25266153307217	589.688392883476	1.53887998941116	12.6729369969201	0.800892560531645	-0.765221089676843	-0.000160840096361525	-0.0129509241678029
0.44	3.07615710539204	-0.900306210924894	587.826454352269	1.20817489190965	12.5791029464819	0.768779353132043	-0.742753894016358	-0.000721176477307184	-0.0130451293612599
0.45	2.58499852780693	-0.444812032768877	586.003853562275	0.78104651152743	12.6345832133841	0.722649471209571	-0.708892624762611	-0.00144658604933789	-0.0128877564570339
0.46	1.98021773178073	0.0836284539153274	584.531933364185	0.287112972589139	12.813035275696	0.669033099674546	-0.669223990966874	-0.002286896436277	-0.0125355211550587
0.47	1.36153640215113	0.646363653034094	583.6596363687	-0.235351258685719	13.0738662733534	0.614651290636968	-0.629379529127244	-0.00317667187252746	-0.0120668185909784
0.48	0.819967484417215	1.20245130555341	583.525181973643	-0.74503067074167	13.3682534774514	0.565545302755313	-0.594342409245578	-0.0040448926092973	-0.0115697505739374
0.49	0.426667942201521	1.71501749358379	584.131556850813	-1.2039166100572	13.6466111635423	0.526417029521756	-0.567947970830693	-0.00482601170716634	-0.0111285794322837
0.5	0.226105913493476	2.15640875566499	585.351072293329	-1.58327702004715	13.8663022874707	0.500200597812584	-0.552565517134984	-0.00547041592146291	-0.0108108306692402
0.51	0.233349943551207	2.51110581198523	586.956850931943	-1.86811105558567	13.9982866082019	0.487855017411824	-0.54893117533488	-0.00595225957596845	-0.0106571865437544
0.52	0.434649112936457	2.77604643663489	588.672494377045	-2.05918246373522	14.0315721590565	0.488355735381008	-0.556107964096477	-0.00627305290811631	-0.0106757765325861
0.53	0.790363575217593	2.95874121119944	590.227285191582	-2.17218216991183	13.9747277270753	0.498864980113998	-0.571569720217478	-0.00646020729250485	-0.0108416627704226
0.54	1.23965994325057	3.07408211339838	591.404093953711	-2.23415562203446	13.854210953891	0.515070654391757	-0.591427913141332	-0.0065607861894621	-0.0111014655611929
0.55	1.70692502632458	3.14086706384521	592.070474747827	-2.27790615641303	13.7097725967779	0.531692349470795	-0.610831771716845	-0.00663172939543977	-0.0113823370207238
0.56	2.11018369688034	3.17880096412645	592.188925633344	-2.33551027280373	13.5876531466711	0.543149627326376	-0.624561202106771	-0.00672855644830339	-0.0116039229032721
0.57	2.37161155734897	3.20626248963884	591.808057281338	-2.43224751156933	13.5326600731574	0.544362333978014	-0.627792538440265	-0.00689483028593652	-0.011691536777109
0.58	2.429440566635	3.23870041065984	591.040649435451	-2.58211539788181	13.5804636865011	0.531603740484422	-0.616953343973763	-0.00715441262778693	-0.0115885011971752
0.59	2.2494330626381	3.28734684778838	590.036211436975	-2.78570713469643	13.7515131588625	0.503267156934152	-0.590512110116356	-0.00750784565906082	-0.0112655531722065
0.6	1.83318202199553	3.35806120248676	588.954682075177	-3.03068619184436	14.047777495072	0.460361839920506	-0.549501304398174	-0.00793324714923871	-0.0107254932318305
0.61	1.2203658624857	3.4504329958125	587.945228896493	-3.29454656169971	14.4530222971418	0.406556420437278	-0.497579354174797	-0.00839116539215834	-0.0100019827834248
0.62	0.483087782563349	3.55755965505819	587.131136082926	-3.54894014114977	14.9365951977425	0.34765958601634	-0.440517533806515	-0.00883214238607877	-0.00915253412587008
0.63	-0.287552843664167	3.66697683762859	586.599765629044	-3.76466722620681	15.4598742059121	0.290565016168195	-0.385143638263569	-0.00920541633593308	-0.0082470674867447
0.64	-1.00007844718159	3.76297297850179	586.396161512615	-3.91646403590625	15.9838710792209	0.241855688789512	-0.337947156201885	-0.00946725720498764	-0.00735454946362046
0.65	-1.58190508087164	3.83004442841115	586.519820394688	-3.98691024836909	16.4762013410038	0.206403129474463	-0.303690210038166	-0.00958774929691097	-0.00653077729256923
0.66	-1.99406815294821	3.85674305254299	586.925580311226	-3.96901428835493	16.9158497225577	0.186348871189014	-0.284414522083842	-0.00955523742052533	-0.00581008760478607
0.67	-2.23722660803794	3.83886342514817	587.530376715822	-3.86723047318229	17.2948215954634	0.180781084275774	-0.279152564456617	-0.00937799962180896	-0.00520268052894995
0.68	-2.34725923725481	3.78096559334089	588.22702467573	-3.69679772886767	17.6166638349751	0.186226303375961	-0.284451525814076	-0.00908296284621868	-0.00469768697914369
0.69	-2.38192120028532	3.69564360070813	588.904187570823	-3.48140667506412	17.8926653881403	0.197820984218058	-0.295561099268253	-0.00871150540079346	-0.00427057749975429
0.7	-2.40275196173047	3.60059594796658	589.469052421197	-3.24936937352056	18.1370416245451	0.210800155145215	-0.307911447874484	-0.00831269925986233	-0.00389251400089158
0.71	-2.45773857734327	3.51420976021519	589.867170762979	-3.02872175824958	18.3624340264015	0.221830375936269	-0.31840506487243	-0.00793478966735561	-0.00353907590915592
0.72	-2.56967194969955	3.45081319243997	590.09355835424	-2.84199721596545	18.5766681002997	0.229772257476171	-0.326114025959269	-0.00761622222706393	-0.00319642568435108
0.73	-2.73293468321349	3.4168397460078	590.190958693096	-2.70166311090603	18.7811142845648	0.235669076640111	-0.332194306461799	-0.00737792688467809	-0.00286408987415654
0.74	-2.91850169360029	3.40887014110739	590.234750909289	-2.60727562018138	18.9704585274023	0.242042787696872	-0.339118598871887	-0.00721863493822439	-0.00255463966378311
0.75	-3.08436104134191	3.4139817626634	590.308141112381	-2.54518716416273	19.133422626483	0.251823312657512	-0.349572883780538	-0.0071145929079296	-0.00229123446775442
0.76	-3.18730524504146	3.41222676706155	590.474526426926	-2.4911337336808	19.2540405160668	0.267342452577713	-0.365460981131139	-0.00702415730530592	-0.00210405739333136
0.77	-3.19244528473751	3.3805647382631	590.755053194785	-2.41534489470371	19.313385618734	0.289749878425396	-0.387377101896702	-0.00689659817305277	-0.00202624266738261
0.78	-3.07849855926653	3.29731817768692	591.117959641305	-2.28914656513289	19.2919350693402	0.318992504727071	-0.41467905385815	-0.00668332585054676	-0.00208932411915513
0.79	-2.8390256380463	3.14622655547834	591.482791099459	-2.09157407213765	19.1728281326995	0.354238481302334	-0.446025525910711	-0.00634902741966281	-0.00231792408433118
0.8	-2.48135998504817	2.91938782038314	591.738229725339	-1.81443516414039	18.9460188252899	0.394439106435614	-0.480047919675184	-0.00588010428792218	-0.00272360845611774
0.81	-2.02533752493746	2.61869060997836	591.768559414504	-1.46460428291404	18.6127995905786	0.438688108055755	-0.515793351582973	-0.00528840325957369	-0.00329852992248247
0.82	-1.50303927335886	2.25565451589353	591.481834446496	-1.06300556870939	18.189604413815	0.486169269968109	-0.552711769231003	-0.0046093798734258	-0.00401035410154227
0.83	-0.959166959017369	1.84984418701302	590.833054607084	-0.640562658032131	17.7096766971777	0.535716583860847	-0.590201704476974	-0.00389520441094626	-0.00480053746662706
0.84	-0.45027151007129	1.42618527415069	589.837674460803	-0.232123201873645	17.2213438602238	0.585236681287495	-0.626964911844382	-0.00320452777270297	-0.00558787680811806
0.85	-0.0406499652102282	1.01159993527171	588.573624557842	0.130199179565219	16.7823404628504	0.631355838239046	-0.660542616002915	-0.00259133109585641	-0.00627821265326134
0.86	0.206356247900629	0.63142354130299	587.172615880205	0.422790565895415	16.4507063825136	0.669598471938808	-0.687358675816495	-0.00209531665284612	-0.00677945247295686
0.87	0.241002027608153	0.306080151512595	585.803101042843	0.634282817567766	16.2739179418488	0.695199440007556	-0.703395053600855	-0.00173570121304356	-0.00701922200193117
0.88	0.0409365071547059	0.0484782638318966	584.647753541803	0.7667408558281	16.2786919359463	0.704381432323479	-0.70535463542855	-0.00150928299585984	-0.00696112816636707
0.89	-0.377990927903609	-0.137482206677948	583.878134537744	0.834379940159714	16.4640337281418	0.695702265426026	-0.691936429513572	-0.00139260516439543	-0.00661536940643581
0.9	-0.958005967169584	-0.257047451414634	583.62900819087	0.860386538836203	16.7994896900307	0.670988368086303	-0.664752334034397	-0.00134723819869675	-0.00604045523565638
0.91	-1.60525378115936	-0.323366357552667	583.97500627827	0.872656844955617	17.2293628553036	0.635460075406968	-0.628494123718403	-0.00132681773855325	-0.00533486404202527
0.92	-2.20503844367284	-0.355089579713018	584.913000851786	0.899267689596605	17.6821978239106	0.596894358393137	-0.590188832106965	-0.00128449279095366	-0.004619992396242
0.93	-2.64344963560584	-0.373245514893726	586.354084188233	0.964339985049291	18.0835495912581	0.563978744069977	-0.557679958726581	-0.00117971564933128	-0.00401799067675518
0.94	-2.83032727544969	-0.397939584272293	588.128719050873	1.08475251118892	18.3692796029327	0.544279051132306	-0.537735291745835	-0.000983653701359111	-0.00362938086221137
0.95	-2.71795971679527	-0.445412755118508	590.006864234818	1.26798983252673	18.4965709532153	0.542379460250633	-0.534316626303888	-0.00068279204417887	-0.00351534165245743
0.96	-2.31102508236637	-0.525884160182469	591.731741540996	1.51128139804666	18.4505104763196	0.558710013944468	-0.547505637785271	-0.000280490052022242	-0.00368825228609776
0.97	-1.66567991104443	-0.642437877136266	593.0621339564	1.8020833902457	18.2452320422968	0.589371947316941	-0.573380876439034	0.000203599529556175	-0.00411192610262756
0.98	-0.878564450745665	-0.791037320995483	593.814930172901	2.11983469697564	17.9199038041865	0.626980449190695	-0.604857666143088	0.000736175857770083	-0.00471060512722948
0.99	-0.0689026010213843	-0.961582941437511	593.898338957548	2.43877101612217	17.5309059105145	0.662269427307956	-0.633236817533434	0.00127471016328229	-0.00538392117808711
1	0.64187520875056	-1.13977638441016	593.327587364096	2.73142965389967	17.1421204018937	0.686031102016987	-0.650045982061545	0.00177310947303977	-0.00602414274419771
1.01	1.14870304907537	-1.30942913387033	592.218918793399	2.97236720825473	16.8152615696527	0.690934742020829	-0.648737313633454	0.0021878929990653	-0.00653224180262391
1.02	1.37663068394455	-1.45478647420657	590.763291104487	3.14158285424301	16.6017264871446	0.672866179000694	-0.625906960174858	0.0024840607896387	-0.00683037302454681
1.03	1.28851422253096	-1.5624679772656	589.186626778648	3.22720232614258	16.5367842852804	0.631594914653173	-0.581865585448992	0.00263988427942474	-0.00686975240544263
1.04	0.886988139663927	-1.62277323727003	587.706958427585	3.22710792912988	16.6363124554085	0.570742310051669	-0.520547763344319	0.00265001620139849	-0.00663411396696728
1.05	0.211957304426917	-1.63033580243991	586.499088784915	3.14935325178741	16.8959092356688	0.49714730347157	-0.448858685513014	0.00252654683659959	-0.00613955166948604
1.06	-0.665072403382253	-1.58434080897315	585.674304362042	3.01133762754544	17.2921017821547	0.419793616286332	-0.375612150143938	0.00229786895181561	-0.00543155976942522
1.07	-1.64900006908638	-1.48863489941829	585.277363458495	2.83782068456164	17.7854344715572	0.348488157042612	-0.310233353416223	0.00200542945857229	-0.0045796994891999
1.08	-2.6312380313787	-1.35196215430097	585.297417058055	2.6579469120631	18.3252925305784	0.292483931697935	-0.261406663661004	0.00169865253336665	-0.00366993302031782
1.09	-3.50189827320072	-1.18826079893239	585.685786725678	2.50155161865458	18.8562429897636	0.25923160319269	-0.235850907686949	0.00142854083010657	-0.00279463232294025
1.1	-4.16361738577254	-1.01657850783751	586.3728881006	2.39514491799382	19.3254029797319	0.253418567178147	-0.23739373381536	0.00124069916165248	-0.00204073508251751
1.11	-4.54565642554557	-0.859925321811656	587.278995407552	2.35809616176865	19.6899484760263	0.276407265011589	-0.266478003625252	0.00116873122210748	-0.0014773414916735
1.12	-4.61591698741468	-0.742491931629577	588.317690473533	2.39961290740473	19.9235300009577	0.32611964567017	-0.320163654152823	0.00122904860310646	-0.00114485006555004
1.13	-4.38800949805944	-0.685195343330975	589.394822792278	2.51706820182477	20.0202648981018	0.397349165213025	-0.392603159999153	0.001418021712008	-0.00104808141126683
1.14	-3.92091152623617	-0.700333969421787	590.407966655893	2.69605220824056	19.9952586588263	0.482435410492373	-0.475893814469137	0.00171207045339072	-0.00115543704210069
1.15	-3.31013077954819	-0.786898301886427	591.250944016466	2.91223613245457	19.8812633167577	0.572217575822339	-0.561166765570131	0.00207079761263118	-0.0014049710441621
1.16	-2.67130429224637	-0.928383203599671	591.825351484023	3.13480987584489	19.7219529994591	0.65718083807368	-0.639764595529613	0.00244273299497877	-0.00171661089518854
