Time [s]	GRFml [N]	GRFap [N]	GRFv [N]	Mml [N.m]	Map [N.m]	Mv [N.m]	Mfree [N.m]	COPml [m]	COPap [m]
0.01	-3.11998458683418	0.963945073847888	624.015059005087	51.9174915588039	-5.41313512006265	1.1021671909303	-1.35338113870686	0.00900659345294696	0.0178781052948344
0.02	-3.0779551152548	0.915131543359077	622.695595875611	51.8916984472673	-5.62380294883798	1.12536295965489	-1.3736629233692	0.0091418120376402	0.0175188816963682
0.03	-3.04281070321651	0.870445052166107	621.548879792423	51.8773014130282	-5.84575908251635	1.14873399154369	-1.39461585007384	0.00927205186795366	0.0171442803070123
0.04	-3.01161971843229	0.832854688028124	620.720510655532	51.8837039339494	-6.08641069449946	1.17294632611057	-1.41659873211618	0.00939280076751836	0.0167447757415454
0.05	-2.96641775937987	0.802079972700687	620.298211124693	51.91589985813	-6.35130985983507	1.19885983006484	-1.43895444772414	0.00950028142301129	0.0163129267239939
0.06	-2.87650099478735	0.773858252044682	620.295462890604	51.9735832132529	-6.6435429028437	1.22730836291912	-1.45999635500531	0.00959222807086513	0.0158440684761706
0.07	-2.7079373141791	0.740534130648546	620.650213183629	52.0514365311866	-6.96304747224535	1.25869380222545	-1.47739471932215	0.00966851688671055	0.0153373446673327
0.08	-2.43670940953424	0.693001488717536	621.239949328004	52.1404225128947	-7.30617942888085	1.2925290715208	-1.48879536375451	0.00973119502725539	0.0147966041681701
0.09	-2.06023706376903	0.62358357718244	621.910274240257	52.2296729163282	-7.66589908212257	1.32713312237078	-1.49243737643409	0.00978364609857552	0.0142305450914078
0.1	-1.60250263371569	0.529037513767505	622.510101091156	52.3084777715315	-8.03277564983846	1.35966658058772	-1.48756942003991	0.0098290267581953	0.0136516871126666
0.11	-1.11038822568075	0.412679160258166	622.924339928113	52.367941580298	-8.39669167226807	1.38659613379733	-1.4745680849968	0.0098685140435093	0.0130742101607456
0.12	-0.642137296551076	0.284755091543184	623.095549764346	52.4020507036182	-8.74882288215971	1.40452255197422	-1.45478531111281	0.00990010551667508	0.0125111861861443
0.13	-0.251760817614022	0.160648668883582	623.029450679029	52.4081090420062	-9.0833266556801	1.41115962815938	-1.43024190201293	0.00991859186294819	0.0119720107532642
0.14	0.0253881600661951	0.0571847166207228	622.784242180899	52.3866627248723	-9.39826186040645	1.40616787835982	-1.40330749679833	0.00991689958645792	0.0114607844923934
0.15	0.181214635739638	-0.0120155654562306	622.448490712449	52.3410946434246	-9.69553917817907	1.39156302935722	-1.37646361468238	0.00988844576490844	0.0109760393445027
0.16	0.235215132061486	-0.0407222890640201	622.115191135763	52.2770262406373	-9.98003504164795	1.37153353717625	-1.35216535517407	0.00982969306132098	0.010511722908103
0.17	0.227035317571784	-0.0323912333882783	621.859594518899	52.2015689481555	-10.2582495178228	1.35167563277998	-1.3327432859871	0.00974194377496918	0.0100589592601289
0.18	0.204258508912198	0.000399876185326025	621.725836585331	52.122396516134	-10.5369555222272	1.33782923883586	-1.32025768041502	0.00963164565865005	0.00960795122492103
0.19	0.209654045593532	0.0394635266106134	621.723586651225	52.046620375129	-10.8221683560302	1.33481557871325	-1.31624716380771	0.0095090179567755	0.009149511678683
0.2	0.271738009435456	0.0665390750441401	621.832514286487	51.9795516113708	-11.1185380063044	1.34540207295125	-1.321388810009	0.00938543373258438	0.00867601978135996
0.21	0.400852195879854	0.0691356047542165	622.010619815486	51.923576646292	-11.4290514707769	1.36975003446672	-1.33517036341833	0.0092704628287843	0.00818192518468364
0.22	0.590817776469164	0.044716472988666	622.202796016495	51.8774753477692	-11.7548338987337	1.40546363417094	-1.35572455687089	0.00916959971988018	0.00766410462102313
0.23	0.824422728910774	0.00171586327260069	622.347818542544	51.8364920764182	-12.0948973301617	1.44819925688184	-1.3799598392399	0.00908342315128052	0.00712232588959244
0.24	1.08015362360354	-0.0430802614496722	622.38411559869	51.7933027172747	-12.4458615055073	1.49265788783818	-1.40403780706219	0.00900837309878899	0.00655983165719787
0.25	1.3378228668632	-0.069988849042318	622.25593232683	51.7397460583611	-12.8018547385637	1.53370269361763	-1.42412302376518	0.00893871632033638	0.00598376451952098
0.26	1.58176901908356	-0.0629024506226419	621.921228468943	51.6689082604138	-13.1548751409485	1.56733435587312	-1.43721498652904	0.00886885725955633	0.00540499635958153
0.27	1.80156646450122	-0.0145877425015535	621.361035814468	51.5769841790676	-13.4957875086141	1.59131416170998	-1.44181532209306	0.00879510070080791	0.00483702026671384
0.28	1.99113044655353	0.0709682921043099	620.588002943077	51.4643700120972	-13.8158768821541	1.60533011719637	-1.43821552065836	0.00871628922946466	0.0042939021113032
0.29	2.14743070270516	0.17990116454862	619.650667770857	51.3356698678494	-14.1085913367978	1.6107250823172	-1.42830625372078	0.00863326415388455	0.00378772474621247
0.3	2.26973322944622	0.292964185058701	618.630449136769	51.1986422857911	-14.3709318693601	1.60991527571974	-1.41496836896537	0.00854759065081268	0.00332627541393327
0.31	2.35963883091865	0.391601502935935	617.630448277062	51.0624409842318	-14.6039911840124	1.60569372764897	-1.40124801979555	0.00846023550150266	0.00291175105010111
0.32	2.42155357893557	0.46357553794697	616.758065589521	50.9356958183307	-14.8124102704777	1.60061942212051	-1.38958820459369	0.00837080552824909	0.00254094453849202
0.33	2.46291762721991	0.506385272388936	616.105886563132	50.8249739952279	-15.0029087107939	1.5966395636308	-1.3813578981634	0.00827761958642337	0.00220684529405613
0.34	2.49364586749274	0.527538017869391	615.736157973813	50.7339781270051	-15.1823872019804	1.59499904086521	-1.37680011239648	0.00817847763583623	0.00190106453799815
0.35	2.52468149680512	0.541801581835601	615.673028142826	50.6635618555993	-15.3562499207369	1.59639076211638	-1.37536046325811	0.00807170131147616	0.00161620547753955
0.36	2.56606827202137	0.566486949517846	615.903997015452	50.6123839947155	-15.5274854114006	1.6012283167207	-1.37622320358676	0.00795696771236076	0.00134736443040995
0.37	2.62524032938186	0.616302900435459	616.38881074015	50.5778643134049	-15.6967252539419	1.60990176482641	-1.37882460831439	0.007835633461031	0.00109233769072803
0.38	2.70616880000419	0.69927472787637	617.071628651455	50.5570820744585	-15.8631060029416	1.62290991286461	-1.38315055954995	0.00771053220379492	0.000850651615277198
0.39	2.80963459011752	0.814720569350151	617.891629387145	50.5473513496929	-16.0254544586855	1.64082825022706	-1.38973147112626	0.00758546646146674	0.000622004317752334
0.4	2.93440242239832	0.953563286097328	618.788522065501	50.5463602876912	-16.1832186503733	1.66414005012534	-1.39937247624816	0.00746468736469752	0.000404921556632964
0.41	3.0786783612204	1.10059052077621	619.702100653806	50.5519167734237	-16.3367064896545	1.69300268542438	-1.41274915073254	0.00735254796886864	0.000196314578112811
0.42	3.24110325485873	1.23785543754821	620.567888424152	50.561461171153	-16.4865040855948	1.72703105986682	-1.43002995757223	0.00725331617694258	-7.75561833260552e-06
0.43	3.42070975892058	1.34829835341982	621.312852520034	50.5715725034653	-16.6322957883729	1.76516088370149	-1.45065643177064	0.00717097870519501	-0.000210294914104181
0.44	3.6156768824745	1.41880449546643	621.855334684296	50.5777053236258	-16.7715597469941	1.80562163856633	-1.47334334268034	0.00710886061494409	-0.000411170609588785
0.45	3.8212063868596	1.44217555528863	622.111689997764	50.5743500771569	-16.8986749657917	1.84601801154402	-1.4962839456698	0.00706903242891765	-0.000605262347303459
0.46	4.02725339011951	1.4177778570488	622.009347454231	50.5557092085553	-17.0048375727058	1.88349869031627	-1.5174854789572	0.00705168525261124	-0.000781651737282896
0.47	4.21702991566848	1.35088924820476	621.503249060848	50.5168334395966	-17.078912811447	1.9149846022981	-1.53513183558012	0.00705478539824445	-0.000924216499852137
0.48	4.36709029501133	1.25099785378186	620.590994928612	50.4549965051848	-17.1090573411319	1.93743169610834	-1.54787682119833	0.00707427268833227	-0.00101358913562088
0.49	4.4494180726165	1.1295092643855	619.32212684238	50.3709514261792	-17.0847406461061	1.94811076325838	-1.55500577688594	0.00710483871514089	-0.00103009034312862
0.5	4.43537772123281	0.997461031219731	617.798687570773	50.2696623423394	-16.9987327664445	1.9448929063805	-1.55645151384177	0.00714101851747018	-0.000957054606898156
0.51	4.3008469851273	0.863857697615655	616.166711460702	50.1601808855612	-16.8486990989958	1.92652938738927	-1.55269496713249	0.00717811569056759	-0.000783953349878463
0.52	4.03148176969092	0.735068257438842	614.600575805177	50.0545338826378	-16.6381888620697	1.89290650258959	-1.54460657124983	0.00721249476073937	-0.000508840693239088
0.53	3.62698881805927	0.615378570435315	613.283344322328	49.9657608673969	-16.3769424033925	1.84524171569863	-1.53328431114376	0.00724104698991279	-0.00013981236682481
0.54	3.10348708958195	0.508365450013064	612.386147899395	49.9054999374948	-16.0805197017531	1.78617303589306	-1.51992318769323	0.00726005909813088	0.000304693961477698
0.55	2.49342956066181	0.418424463152798	612.04872933099	49.8816772035973	-15.7692655838299	1.71968887014673	-1.5057217480371	0.00726408320179905	0.000796842698881972
0.56	1.84300077631236	0.35169675064944	612.362350960299	49.8968484332041	-15.4666215816511	1.6508585370901	-1.49180974037755	0.00724551770416371	0.0013016083532984
0.57	1.20729717702778	0.315862721235608	613.356005867685	49.9475704818998	-15.196830463792	1.58535697571857	-1.47917672524124	0.0071953731609028	0.00178016281632093
0.58	0.643893103009535	0.318726440100156	614.987395510143	50.0249047036308	-14.982190075062	1.52882515113232	-1.46859435285296	0.00710519571456047	0.00219417797615951
0.59	0.205602673647669	0.36601960225624	617.140901126812	50.1158703700143	-14.8401762709219	1.48615663408738	-1.46054527954789	0.00696957571422452	0.00251054739312123
0.6	-0.0666134890003835	0.459199107038458	619.634914160609	50.2054649271628	-14.780900111554	1.46083377355249	-1.45518569073425	0.00678833824021985	0.00270582451988211
0.61	-0.149582359602955	0.594057080208869	622.239747938435	50.2788025727774	-14.8054102185026	1.45444001668887	-1.4523660355781	0.00656756208043574	0.00276959360606011
0.62	-0.0417280467746015	0.760692287380535	624.704943274542	50.3229909905307	-14.9052488703286	1.46644381429276	-1.45171492387267	0.00631899592564789	0.00270609910921477
0.63	0.235992180566504	0.944917730287244	626.79188264328	50.3285178627975	-15.0634321517768	1.49429180634785	-1.45276324612423	0.00605805220954525	0.00253375779158033
0.64	0.642368424021532	1.13068573321308	628.305454151381	50.290081084378	-15.2567191163563	1.53378225917174	-1.4550641804636	0.00580108723446149	0.0022825918104693
0.65	1.12122695738706	1.30278477104821	629.118120242426	50.2069069962626	-15.4587580386803	1.57963517184712	-1.45826273743462	0.00556288727153587	0.00199003639181305
0.66	1.60893605171518	1.44901980029837	629.1815230019	50.0826340151506	-15.6435326003491	1.62614920010986	-1.4620898254403	0.00535509021839364	0.00169587874866528
0.67	2.04287578814562	1.56133826075072	628.524176068519	49.9248138147962	-15.7885178481354	1.66784200050885	-1.4662924670029	0.00518578411315285	0.00143720199186398
0.68	2.36941905224177	1.63580196225275	627.237638717374	49.7440471433844	-15.8770823856952	1.70000121057732	-1.47054664280485	0.0050599741817039	0.00124412536108465
0.69	2.55011047973353	1.67174971843964	625.456446121141	49.5527744869213	-15.8998844959453	1.71911123411415	-1.47441401522257	0.00498025508121036	0.00113689445400811
0.7	2.56518713780918	1.67076032181432	623.337975061769	49.3638026945333	-15.8552337734992	1.72314951301148	-1.47738837575451	0.00494702155739246	0.00112456180876952
0.71	2.41423188836349	1.63599747570773	621.04712370721	49.1887470032162	-15.7485655480176	1.71175594218972	-1.47903617746035	0.00495789049976303	0.00120519295620697
0.72	2.11438786396108	1.57221280471356	618.747783785365	49.0366537878446	-15.5912714123617	1.68627260247913	-1.47918570194836	0.0050065272188109	0.00136729931870866
0.73	1.69698667738097	1.48624380624254	616.599772821453	48.9130896922463	-15.3991456596733	1.64963923477581	-1.47808506271267	0.00508152766925229	0.00159207078343565
0.74	1.20352769220655	1.38748341865641	614.757478346098	48.8199089951706	-15.1906662784081	1.60612667927249	-1.4764487720266	0.00516619305780197	0.00185596361917079
0.75	0.68169901724045	1.28770163336713	613.365866128294	48.7557542931474	-14.9852608616234	1.56090464882961	-1.47534932717455	0.00523984671988875	0.00213327723642215
0.76	0.18169667829887	1.19983349423194	612.550912979332	48.7171526383935	-14.8016413989887	1.51947061715958	-1.47596984721279	0.00528084068720913	0.00239849068700115
0.77	-0.247304247026785	1.13581995911181	612.404351202443	48.6999029285393	-14.6562491743891	1.48700292973983	-1.479290632535	0.00527076224000689	0.00262827785670566
0.78	-0.560846365186824	1.10408301651426	612.965733961147	48.7003653399835	-14.5618430735229	1.46772925974234	-1.48581207530949	0.00519881350848306	0.00280322817146256
0.79	-0.723232195506177	1.10749330780419	614.207037656259	48.7162890688558	-14.5262904815761	1.46440990886449	-1.49540649505873	0.00506510167960872	0.00290933063834531
0.8	-0.711695942588842	1.14259854700041	616.025456181408	48.7469470619816	-14.5516666322508	1.47802016052755	-1.50734712374102	0.00488174418222609	0.00293922481498593
0.81	-0.520032649967789	1.20044679299202	618.248499734211	48.7925511118657	-14.6338133503665	1.50768052003152	-1.52050171497361	0.00467122949932874	0.00289310867758291
0.82	-0.160724475065658	1.2687509674201	620.652452551302	48.8531397267065	-14.7625243674846	1.55083696804626	-1.53362342620358	0.00446222339035351	0.0027790755289534
0.83	0.335344045107278	1.33466833643186	622.991624339364	48.9272981207652	-14.9224862771142	1.6036463460382	-1.545640687344	0.00428374140778776	0.00261259925589308
0.84	0.922058590099636	1.38732160931278	625.032764115613	49.0111307657568	-15.0949968187477	1.66148597246638	-1.55584978689128	0.00415909356565858	0.00241495857722712
0.85	1.54391360825086	1.41941183593678	626.587409265401	49.0978424458774	-15.2603114829807	1.71949121865654	-1.56394849091013	0.00410109991491647	0.0022106075715641
0.86	2.14354883033596	1.42772718963235	627.53526547856	49.1781176474252	-15.4002702400439	1.77303516706324	-1.56990723618272	0.00410976122175211	0.00202382261617684
0.87	2.66947166643752	1.41279139621547	627.833837516753	49.2412784551309	-15.5006916949726	1.81809764994727	-1.57373955887948	0.00417295718769806	0.00187528215967225
0.88	3.08230569063623	1.37810632304582	627.512860176201	49.2770145989188	-15.5529686867645	1.8515144028238	-1.57528275942153	0.00427001853620046	0.00177942512543278
0.89	3.3582312580242	1.32935282339407	626.65575018486	49.2773631193644	-15.5544173656575	1.87113226569873	-1.5741105040425	0.00437736261265076	0.00174336242826356
0.9	3.48901747070553	1.27362332000063	625.373420524378	49.2385812602917	-15.5072298854068	1.87590727345904	-1.56965791353727	0.00447492578912134	0.00176774068507379
0.91	3.47898879487795	1.21847839314814	623.77763066816	49.1625853140341	-15.4162941466366	1.86596465823487	-1.56155293642411	0.00455193286670275	0.00184935706658568
0.92	3.34014710819577	1.17054543724693	621.961118521244	49.0576891299162	-15.2865410587105	1.84260450259636	-1.55004432297815	0.00461062684052138	0.00198469437382148
0.93	3.08719825141442	1.13358661628657	619.989941617509	48.9384485911118	-15.1207044276269	1.80820658501516	-1.53633992778868	0.00466693115413486	0.00217313200021696
0.94	2.73421107262161	1.10636921044592	617.910022209513	48.824505151677	-14.9183137724137	1.76598543810926	-1.52266029873488	0.00474760478767144	0.00241858863596439
0.95	2.29402509624229	1.08106677982074	615.765568974661	48.7384416656835	-14.6763667234485	1.71958189184683	-1.5118898510195	0.00488421778618131	0.00272882137421637
0.96	1.78047676369649	1.0430758275385	613.622959389651	48.7028314212994	-14.3915479764823	1.67254066830934	-1.50685400834863	0.0051050962577498	0.00311241402912449
0.97	1.21236555619677	0.972907247410476	611.591104845274	48.7368617423333	-14.0632747938555	1.62778752266203	-1.50941391762642	0.00542706236200852	0.00357435562704689
0.98	0.617244429255666	0.850219551251678	609.829353859054	48.8530934645811	-13.696477828656	1.58725045665596	-1.51968252581904	0.00584909143441881	0.00411171089930074
0.99	0.03294438114135	0.659282509675233	608.537008549304	49.0550007155596	-13.3030281399502	1.55174438041154	-1.53567056629183	0.00634974247650233	0.00471097389333697
1	-0.494631357191505	0.394483096922722	607.923939901855	49.3358582765109	-12.9011189829129	1.52115772427222	-1.55355108138227	0.00688936233445547	0.00534821629660431
1.01	-0.917642085488128	0.0641956684974144	608.168030291252	49.6792936511177	-12.5125745692861	1.49487040595401	-1.56852132419362	0.00741680633102026	0.00599225340928078
1.02	-1.19509544771956	-0.308401043705561	609.37016314538	50.0614533545415	-12.1587519288496	1.47223993862091	-1.57601856954705	0.00787913370451221	0.00661006997631441
1.03	-1.30187116496977	-0.688201101028763	611.519353009673	50.4543566528573	-11.8561764151189	1.45295883503215	-1.57290126602536	0.00823186012540367	0.00717302508790901
1.04	-1.23523383462543	-1.0343239365731	614.478485701435	50.829745129667	-11.613140143952	1.43713222386485	-1.55820306886372	0.00844720224436968	0.00766213665257415
1.05	-1.01671965859238	-1.30812820117734	617.995572633672	51.1626654938743	-11.4281759608507	1.42503715580568	-1.53321364419295	0.00851839315425107	0.00807108482383734
1.06	-0.688680985854057	-1.48107607094461	621.738278418974	51.4341579841118	-11.290726286456	1.41666213279159	-1.50088400748062	0.0084593489750302	0.00840632030334731
1.07	-0.306428745322495	-1.54043947444017	625.343226513487	51.6327033632897	-11.1836770154963	1.41123121565929	-1.46480072379567	0.00830028749328771	0.00868453419664328
1.08	0.071783587555965	-1.49143913613656	628.468313776478	51.7544038223384	-11.0869444640823	1.40694519351424	-1.42812412409812	0.00808088011991681	0.00892843964919632
1.09	0.394202233985214	-1.35540649075898	630.83684909809	51.8021333152273	-10.9811298078866	1.40110544443576	-1.39288007246135	0.00784286455535999	0.00916212481141238
1.1	0.62216589169025	-1.16463710242121	632.266142275345	51.7840262259104	-10.8504062191366	1.39064495360321	-1.35983588038138	0.00762373603936317	0.00940711482727125
1.11	0.732735418667134	-0.955430208911835	632.678433215942	51.7116721436788	-10.6841775244114	1.37292752450633	-1.32894462740336	0.00745240130071112	0.00967983860734023
1.12	0.717623742066422	-0.761148255426649	632.096684366079	51.5982911425234	-10.4774781274627	1.3465541385547	-1.30010936613665	0.00734687981052418	0.00999064165942004
1.13	0.579755369297089	-0.606917058797483	630.630261611616	51.4570452319023	-10.2304141966357	1.31188480472699	-1.27389331804646	0.00731359187119851	0.0103440320266387
1.14	0.329191485697326	-0.506934445812631	628.45553917019	51.299558338693	-9.94708499052731	1.27106177323339	-1.25183296213703	0.00734763580504916	0.0107396284271177
1.15	-0.0201465028428064	-0.46450472130071	625.794752435571	51.134699901959	-9.63437241123227	1.22748206164757	-1.23618327274749	0.00743367298899689	0.0111733155206519
1.16	-0.452297914782929	-0.474150587596362	622.894379769723	50.9677269069921	-9.30082484993016	1.18485818648869	-1.2291676518364	0.0075474019493792	0.0116383112327384
1.17	-0.949821944992901	-0.524701024423431	620.003220886794	50.7999341240428	-8.95569690872889	1.1461577907672	-1.23202140824779	0.00765786416447645	0.012126073693316
1.18	-1.49383770170137	-0.602217310382994	617.350662245406	50.6289772712878	-8.60812423338335	1.1127693961237	-1.24422026852948	0.00773081785052221	0.0126270993463471
1.19	-2.06433729902802	-0.69195889736748	615.12692804321	50.4499655681658	-8.26643478225174	1.08417923616099	-1.26323282687623	0.00773312713576912	0.0131316447007226
