Time [s]	GRFml [N]	GRFap [N]	GRFv [N]	Mml [N.m]	Map [N.m]	Mv [N.m]	Mfree [N.m]	COPml [m]	COPap [m]
0.01	-2.16673811685585	0.111268995871222	710.988154336229	-8.78365419147767	17.1271450155187	1.14520545041295	-1.12113525522592	-0.00742255731004904	0.000594099538631598
0.02	-2.12918802897903	0.201621801226367	713.479237471287	-8.77817009381068	17.0206631155112	1.13291721128464	-1.11156260052573	-0.00736812887999838	0.000368296710380855
0.03	-2.07963031720784	0.290588885431655	715.805087562606	-8.78350952509989	16.8904079523252	1.12131888964027	-1.10271353907602	-0.00733141463370712	0.00011527659414573
0.04	-2.01019875728744	0.377792343111624	717.823854509194	-8.80815583386623	16.7200813327723	1.11074346114721	-1.09493687753385	-0.00732649116806505	-0.000182506044776765
0.05	-1.9088260625438	0.464095577518969	719.405439084968	-8.85751275132738	16.4968689444952	1.10110164221376	-1.08826993579466	-0.00736307262938973	-0.000538541735888798
0.06	-1.75842787110643	0.551302978982125	720.440626454639	-8.93326027412797	16.2118074118111	1.09195625578017	-1.08252606903502	-0.00744548438831627	-0.000962165113891467
0.07	-1.53878329784843	0.64118345501504	720.854404997315	-9.03334517534246	15.8601742270161	1.0827730789954	-1.0775022692595	-0.00757240450786845	-0.00145841598509111
0.08	-1.23075288974615	0.734179357777315	720.619411478469	-9.15254025860791	15.4419611697851	1.07323399731684	-1.07320417799883	-0.00773735562194056	-0.00202765223125562
0.09	-0.821738703742855	0.82838726296474	719.764905025353	-9.28341208274507	14.9623376281756	1.0634709645757	-1.06997441160522	-0.00792981773126999	-0.00266493340602003
0.1	-0.310851169283247	0.919361204308968	718.377900932912	-9.41749196183769	14.4318703296164	1.05411662721149	-1.06845404617933	-0.00813675468456021	-0.00335945156692674
0.11	0.287782510664719	1.00097837353112	716.59527361552	-9.5464441557503	13.8662114537822	1.0461472008007	-1.0693819041754	-0.00834430897895322	-0.0040944413497388
0.12	0.944729902390045	1.06715378119209	714.58794331758	-9.66305403964723	13.2850376260029	1.04057699725777	-1.0733057482751	-0.00853941527478996	-0.00484797023298394
0.13	1.61839997716604	1.11380250018714	712.540075406819	-9.76190390449214	12.7102073427685	1.03811681269956	-1.08031392211999	-0.00871110545520237	-0.00559478857250068
0.14	2.26114625295588	1.14030416333546	710.627179039086	-9.83965762518768	12.1633444042329	1.03891301333088	-1.08988452330671	-0.00885132577035208	-0.00630908408950909
0.15	2.8270539742882	1.14988709104203	708.996966384131	-9.89493725561039	11.6632624737673	1.04244601038695	-1.10090209748001	-0.00895516404554131	-0.00696766322239867
0.16	3.27967040698517	1.14874313798381	707.755917041129	-9.92784529481143	11.2237403712577	1.04760797867651	-1.11183304912431	-0.00902049390906268	-0.00755289605927184
0.17	3.59793015002562	1.1441401680995	706.962979162154	-9.93925961952895	10.8520998143477	1.05292627836298	-1.12100541674463	-0.00904717090962237	-0.00805478280201177
0.18	3.77898557089302	1.14213807614773	706.630171112433	-9.93008653107508	10.5488460590443	1.05686855655738	-1.12692058097335	-0.00903602994202302	-0.0084717170719068
0.19	3.8374437503475	1.14562389393446	706.728497895273	-9.90067710335117	10.308374866115	1.05816028283083	-1.12853227592193	-0.00898799113281079	-0.00880985253870742
0.2	3.80140397365036	1.15325048737829	707.19691382067	-9.85057485740532	10.1205118041279	1.05605557247289	-1.12544856113044	-0.00890354831596929	-0.00908131019426373
0.21	3.70642543026744	1.15956698840721	707.952147749773	-9.77866940493203	9.97250016074183	1.05051520989537	-1.11803059330398	-0.00878278756111284	-0.00930169563853583
0.22	3.58893422295858	1.15628263368362	708.897885404573	-9.68370587195979	9.85102028075535	1.04225680785422	-1.1073724689122	-0.00862589957771753	-0.00948747858645582
0.23	3.48052698651082	1.13431396135242	709.932713375368	-9.56498521391346	9.74389348595318	1.03265592800114	-1.09515488978108	-0.0084339738590048	-0.00965372440650575
0.24	3.40420919695253	1.08609165020153	710.956981225413	-9.42302735613573	9.64125858571515	1.0235020998594	-1.08338232807667	-0.00820975982876093	-0.00981250319168342
0.25	3.37298258286915	1.00756510337211	711.879064998509	-9.25998038085831	9.53616184713394	1.01665155742253	-1.07404277096978	-0.00795808883281968	-0.00997209489170581
0.26	3.39056178540842	0.899426601723452	712.621360657091	-9.07963937347412	9.42463336132754	1.0136581015122	-1.06876216302489	-0.00768576471219595	-0.010136914957633
0.27	3.45351956806613	0.767256105575557	713.125847705873	-8.88705824306381	9.30540913460842	1.01548488272758	-1.06854389607787	-0.00740090569041751	-0.0103079454559912
0.28	3.55393398892421	0.620531552432377	713.358518332701	-8.68785697056361	9.17948763755989	1.02238578313838	-1.07367036279418	-0.0071118954632915	-0.0104833967438395
0.29	3.6816710264421	0.470718052545119	713.311662431984	-8.48741104195587	9.04968245329866	1.03399271541436	-1.08379555770264	-0.00682622323882853	-0.010659351932065
0.3	3.8257441489741	0.328888180749135	713.003142207148	-8.29013965819308	8.92026116298717	1.04957118334801	-1.09819031926665	-0.00654952984838231	-0.010830247886186
0.31	3.97464601333778	0.203470197582408	712.472414879117	-8.09908061524047	8.79666826350846	1.06834101740245	-1.11604319766694	-0.00628512386822722	-0.010989188719589
0.32	4.11599796405569	0.0987168393513127	711.773983651719	-7.91586108896864	8.68524821442244	1.08973218601166	-1.13669766317208	-0.00603410350470746	-0.0111282210552222
0.33	4.23615475016784	0.0143144359191608	710.969809723037	-7.74106354841075	8.59284464990697	1.11347172206353	-1.15973330645912	-0.0057960495512388	-0.011238772912736
0.34	4.32042784523513	-0.053758324428682	710.122593069841	-7.57487134146	8.52617314420109	1.13946848798651	-1.18486558549533	-0.00557008677092996	-0.0113124340692335
0.35	4.35433797947557	-0.111380010931601	709.291476878342	-7.41779010441166	8.49094741186333	1.16754881198553	-1.2117176554668	-0.00535599355943872	-0.0113421314791543
0.36	4.32586785984142	-0.164015280653217	708.530717671955	-7.27120703226181	8.49085873518399	1.19716170401678	-1.23957512495034	-0.00515501101128979	-0.0113235645546237
0.37	4.22822386175175	-0.214741882508626	707.890585371691	-7.13758607210745	8.52662304375535	1.2271901857977	-1.26724614653118	-0.00497007811593964	-0.0112565801203057
0.38	4.0623052254146	-0.263209930605432	707.418770064095	-7.02019959651217	8.59537068624403	1.25596853255886	-1.2931109553851	-0.00480538486276616	-0.0111460648060581
0.39	3.83803954504238	-0.305859940841621	707.160327404255	-6.92244061682689	8.69062440126842	1.28152910682501	-1.31537290648253	-0.00466534537077901	-0.0110019722908755
0.4	3.57399312668099	-0.337295705456578	707.154821792875	-6.84690140310602	8.80298526462411	1.30201623596077	-1.33244520933422	-0.00455328547608957	-0.0108382941691558
0.41	3.29511974979157	-0.352312865005967	707.430572001888	-6.79449606400382	8.9214561004282	1.31613964075984	-1.34335227040267	-0.00447024858210376	-0.0106710761174117
0.42	3.02901978209251	-0.347874149013179	707.997254115432	-6.76390874524631	9.03513842725785	1.32351895180872	-1.34801099521212	-0.00441430529207365	-0.0105158789004578
0.43	2.80148349074845	-0.324373112128837	708.839035089008	-6.75155591877952	9.13491171850883	1.32480114286751	-1.34729034854784	-0.00438060192021394	-0.0103852790371199
0.44	2.63227566180253	-0.285809570814261	709.910567095254	-6.75208777366378	9.21469239905634	1.32150439228393	-1.34281649669159	-0.00436214502230303	-0.0102870207914101
0.45	2.5320500262834	-0.238894791059393	711.137558580649	-6.75927786702136	9.27198408448399	1.31563106018747	-1.33657350222767	-0.00435107680188129	-0.0102232567173743
0.46	2.50100462257446	-0.191461810185017	712.422521541306	-6.76702925008227	9.30763385994442	1.30916872107575	-1.33041802443309	-0.00434004131480814	-0.0101910050638566
0.47	2.52949389687494	-0.150750484550588	713.655067816133	-6.77020690502128	9.32493279248884	1.30363467015307	-1.32565663128744	-0.00432323504083665	-0.0101836141178684
0.48	2.60040134343564	-0.122111124285813	714.725132717414	-6.76509605559745	9.32836676485482	1.29980227913483	-1.32281413083138	-0.00429687939223966	-0.0101927690970407
0.49	2.69273170483868	-0.108452455107208	715.536934203911	-6.74944370964996	9.3223831224066	1.29768191191769	-1.32165596150343	-0.00425908650252926	-0.0102104844987823
0.5	2.78566060185082	-0.110445913301598	716.021368022661	-6.72219894417256	9.31047876169459	1.29673771823034	-1.32143904042766	-0.00420931616394093	-0.010230609238875
0.51	2.86221459141827	-0.127215229908542	716.144836084883	-6.68316102459143	9.29476940114867	1.29623812853537	-1.32128556613521	-0.00414775007361345	-0.0102495848842297
0.52	2.91185968759019	-0.157094695755119	715.913115666347	-6.63273938973227	9.2760290290685	1.29559442924759	-1.32053382829838	-0.00407489326995236	-0.0102664503035154
0.53	2.93154107635642	-0.198079233200069	715.369702268128	-6.57193561311237	9.25405557491044	1.29455590028969	-1.31893586739973	-0.00399156761817732	-0.0102822886319392
0.54	2.9250944621011	-0.247787648032306	714.588981287153	-6.50252153292726	9.22816295087368	1.29319606667724	-1.31663833695815	-0.00389925661008472	-0.0102994070669621
0.55	2.9013512828002	-0.303028850553985	713.665447334256	-6.42727146266101	9.1976240221359	1.29171532614271	-1.31397337664686	-0.00380058376833503	-0.0103205195880327
0.56	2.8715704308453	-0.359285358650124	712.700814884991	-6.35005906983944	9.16196533703623	1.29016307191492	-1.31116383108726	-0.00369963061978384	-0.0103481046452804
0.57	2.84694479199331	-0.410514461976464	711.791102804534	-6.27566831178612	9.12110010121018	1.28821628488951	-1.30808097101843	-0.0036018509169421	-0.0103839920673372
0.58	2.8368061482479	-0.449577243661063	711.01558457254	-6.20927310053121	9.07534553445447	1.28512952503276	-1.30417112622957	-0.00351348881292901	-0.0104291454997089
0.59	2.84782691221094	-0.469372201513084	710.428966912419	-6.15566710229231	9.02538999695487	1.27990380727479	-1.29860062183662	-0.00344059562216881	-0.0104835707445117
0.6	2.88411183970883	-0.464462053266	710.057479777602	-6.11842404595309	8.9722615227194	1.27163541912641	-1.29058231771858	-0.00338789058390987	-0.0105462890906906
0.61	2.94774553197183	-0.432746998121955	709.89892444255	-6.09920712447884	8.91732147447836	1.25993145399067	-1.27977294260875	-0.00335777582929064	-0.0106153443595184
0.62	3.03924591967966	-0.376641651674999	709.926247744379	-6.09741656052017	8.86228145903449	1.24524205145827	-1.26659371532889	-0.00334978209365233	-0.0106878408369824
0.63	3.15752085621371	-0.30329415003739	710.09389321715	-6.11028241943439	8.80922463693986	1.2289727754995	-1.25234020176474	-0.00336061016147826	-0.0107600272381427
0.64	3.29927362121703	-0.223625971944361	710.345958459197	-6.13340128009224	8.76060189838828	1.21330141042847	-1.23900793794178	-0.00338478097442774	-0.010827451385722
0.65	3.45819789638805	-0.150302603190116	710.62500769678	-6.16160728440309	8.71916666841342	1.2007141918653	-1.22885008856925	-0.0034157542385328	-0.0108852145470018
0.66	3.62455456878261	-0.0950714744254694	710.880268547238	-6.18998418167056	8.68781314531411	1.19336955626078	-1.22377435794009	-0.00344725602536311	-0.0109283494553449
0.67	3.78569438810869	-0.0661245470728641	711.073977432531	-6.21478515270911	8.66929978487962	1.19246334575252	-1.22474908026024	-0.00347449842227998	-0.0109523228675155
0.68	3.92776759241487	-0.0661837519111405	711.184931647944	-6.23404460873573	8.66587693095728	1.19778579724709	-1.23140148769181	-0.00349499641659901	-0.0109536181518711
0.69	4.03836890844332	-0.0918432358414107	711.208871763093	-6.24774151522586	8.67888662452827	1.20761985988087	-1.2419482934264	-0.00350878894086126	-0.0109302966738203
0.7	4.10941513841334	-0.134370666408566	711.156025809367	-6.25749091687932	8.70844332280727	1.21904183881147	-1.25351070872208	-0.0035180296614189	-0.0108823940277138
0.71	4.13934285288664	-0.18176558586774	711.046759500017	-6.26586793179407	8.75331287842187	1.22857290838042	-1.26275718873837	-0.00352608608754801	-0.0108120066140115
0.72	4.13384354774044	-0.221521765026291	710.906567864013	-6.27556880668522	8.81107037074367	1.23302532323434	-1.2667184061417	-0.00353642207638427	-0.010722980065926
0.73	4.10478119357428	-0.243356300705441	710.761522583454	-6.2886548395061	8.87854150609906	1.23032112287563	-1.26355922414549	-0.00355159577885655	-0.0106202135470571
0.74	4.06750646765827	-0.24120847078182	710.634850609937	-6.30609222250416	8.95244221512481	1.22005552255975	-1.25309134952451	-0.00357266189062611	-0.0105087104005711
0.75	4.03729067035743	-0.214054575630137	710.54478232026	-6.32770229272116	9.03005992667877	1.20363775490365	-1.23687209031382	-0.00359913393295497	-0.0103925941419621
0.76	4.02587687691609	-0.165441261840252	710.503392336465	-6.35250249174912	9.10979540017613	1.18395521816452	-1.21784521657167	-0.00362947955426063	-0.0102743350979407
0.77	4.03909789846712	-0.101990390516332	710.515987254828	-6.37929229906873	9.19141750510847	1.16464125295435	-1.1996090234619	-0.00366194903736217	-0.0101543833875242
0.78	4.07616117300506	-0.0313718428032888	710.58067688354	-6.40726346969054	9.27596654489272	1.14914225848893	-1.18550551393153	-0.00369543335433864	-0.010031290258504
0.79	4.13066994132702	0.0396773305648761	710.68802251971	-6.43641633207087	9.36534908354225	1.1398394826356	-1.17777836438776	-0.00373004970256463	-0.00990225613578438
0.8	4.19291670428939	0.106788711938209	710.820972903472	-6.46764222016887	9.46176407218008	1.13746508239637	-1.17702807082621	-0.00376725809931489	-0.00976391606462645
0.81	4.25262670401522	0.16855440211053	710.955546416115	-6.50245630743315	9.56715368984827	1.14096606000077	-1.18210649194192	-0.0038094819776533	-0.00961310435300561
0.82	4.30126237860659	0.226230848470874	711.062773442596	-6.54248747432423	9.68286313187992	1.14784126913009	-1.19046778315194	-0.00385937435866901	-0.00944735477529363
0.83	4.33323849753989	0.282748880694992	711.112200379202	-6.58890629465678	9.80962248738302	1.15484569599476	-1.19886730837196	-0.00391897655433238	-0.00926498780905177
0.84	4.34584709294179	0.341384938857188	711.076798150055	-6.64197410596521	9.9478526176687	1.15886039186346	-1.2042104965796	-0.0039890244870785	-0.00906478197313126
0.85	4.33817980842037	0.404494706395464	710.938547098278	-6.70083254235547	10.0981812195341	1.15769016366564	-1.20432216146892	-0.00406857711093089	-0.00884537523735612
0.86	4.30967805919418	0.472640645699905	710.69349301917	-6.76355754105688	10.2619729210785	1.15058047800935	-1.19843803055018	-0.00415501626914083	-0.00860464587969528
0.87	4.25901339415347	0.544293991585582	710.354886715428	-6.82741675851832	10.4416565932416	1.13832868889492	-1.18730231435751	-0.00424435312860438	-0.00833934483731191
0.88	4.18378833826213	0.616117100793907	709.953250470099	-6.88922443669516	10.6406840764527	1.12297854276325	-1.17286469960948	-0.00433171236633867	-0.00804518256726267
0.89	4.08115469763352	0.68368998546097	709.532850875115	-6.94568918206185	10.8630651388705	1.10720026536134	-1.15767812644844	-0.00441185935166688	-0.00771743035387085
0.9	3.94904392498178	0.742467759316189	709.144957253513	-6.99368263797619	11.1125612579414	1.09354132789715	-1.1441768807671	-0.00447966782559617	-0.0073519222285709
0.91	3.78745713326647	0.788743385551628	708.839184166018	-7.03039716833946	11.3917410023084	1.08376324935944	-1.13404224732461	-0.00453046674644408	-0.00694619706915289
0.92	3.59925827833101	0.820419269000092	708.654869354884	-7.05339157576931	11.7011595267079	1.07844968827818	-1.12783282891365	-0.00456023629959179	-0.00650045443670227
0.93	3.39013323939534	0.837436124739982	708.614582814945	-7.06054287313974	12.0388997919375	1.07698933951844	-1.12497697340003	-0.00456564535501158	-0.00601803962924835
0.94	3.16771132564394	0.841757498002195	708.721390027913	-7.04993707521801	12.4006099931312	1.07792671993937	-1.12411764765769	-0.00454394934481084	-0.00550531033130358
0.95	2.94015068450957	0.836870817625959	708.960491631279	-7.0197501277363	12.7800269560615	1.07956560963516	-1.12369545287347	-0.00449280779167627	-0.00497091859049409
0.96	2.71465087675609	0.826853885631424	709.304620991641	-6.96818826482477	13.1698414857525	1.0806342180838	-1.12258307537793	-0.00441012559081999	-0.00442470028600345
0.97	2.49633442808992	0.815168354438709	709.721506332037	-6.893560850012	13.5626850582661	1.08080042090738	-1.12056618164566	-0.00429404482380358	-0.00387644497084744
0.98	2.28777527112256	0.803452835771315	710.18117232612	-6.79453166535813	13.9520183425781	1.0808677476435	-1.11850934636573	-0.00414318513836565	-0.00333480314983875
0.99	2.08923426563503	0.790652046811311	710.661060845881	-6.67053174229399	14.3327682159873	1.08257870425191	-1.11814127488604	-0.00395714040580697	-0.00280649889711237
1	1.89947475662507	0.772790217854357	711.147810377783	-6.52223378649129	14.7016535066184	1.08807519668003	-1.12151481399385	-0.00373711041490532	-0.00229590446051126
1.01	1.71691494322077	0.743558189094477	711.635712685721	-6.35191914321962	15.0572179677809	1.09917912262624	-1.13030682461585	-0.00348643159761663	-0.0018049516489943
1.02	1.54082104157885	0.69565777649321	712.122906861226	-6.16355210366426	15.3996265749764	1.11672222894693	-1.1451839446247	-0.00321073181144427	-0.00133332637806766
1.03	1.37222919625369	0.622599499975816	712.606895094257	-5.96243751652714	15.7302820977745	1.14014811846354	-1.16544875370007	-0.00291751104366111	-0.000878902757318389
1.04	1.21429686369778	0.52046923266562	713.080839978058	-5.75446925327861	16.0513100391135	1.1675283934872	-1.18909620745568	-0.00261513530575852	-0.000438380934892901
1.05	1.07185190695101	0.389145134269556	713.531498070918	-5.54513644276281	16.3649699493152	1.19600259117284	-1.21327756979328	-0.00231146333416987	-8.06374356410178e-06
1.06	0.950067825155854	0.232592754878334	713.938919118547	-5.33857585503829	16.6730872847802	1.22251074043867	-1.23503242906214	-0.00201250811253073	0.000415359651672886
1.07	0.852450507668661	0.0581583851574374	714.277540296337	-5.13698133519424	16.9766409488669	1.24458669771543	-1.25205667201994	-0.00172157695181907	0.000834220710375533
1.08	0.778612276467055	-0.124883789620718	714.518184597129	-4.94057980189299	17.2756493682904	1.26095673669576	-1.26325964932928	-0.00143919674526727	0.00124967530941494
1.09	0.722513254627446	-0.307030364369084	714.630656263309	-4.74818779311714	17.5694426447827	1.27175165185966	-1.26893386550611	-0.00116385640961614	0.00166202404272847
1.1	0.671851029083996	-0.479945180599919	714.586902572169	-4.55815005828324	17.8572904984829	1.27827072387131	-1.27049106046836	-0.000893296342154293	0.00207149485082136
1.11	0.609033698792658	-0.63717905739889	714.364870335536	-4.36932325244413	18.1392119560799	1.28238670874597	-1.26986324750879	-0.000625874945026972	0.00247923046649395
1.12	0.513745117279757	-0.77415581811399	713.953105846438	-4.18176432449358	18.4166815922962	1.28579977148114	-1.2687757810181	-0.000361532524556618	0.00288807587002471
1.13	0.366653896546937	-0.88768397162601	713.355812897947	-3.99691537315598	18.6929227275218	1.28939478485529	-1.26813618759034	-0.000102055689329417	0.00330274542236331
1.14	0.153488357169857	-0.975425064079191	712.597573593818	-3.81728477914125	18.9725652214337	1.29291693855422	-1.26773803518671	0.000149362311090639	0.00372909685963368
1.15	-0.13140770367374	-1.03570516558263	711.726420807848	-3.64581723934063	19.2606287920513	1.29507105220347	-1.26637157064489	0.000388996103544703	0.00417252066716073
1.16	-0.482809717532578	-1.06782834145807	710.813676695494	-3.48524272752392	19.5610209117761	1.29400864372157	-1.26229934403693	0.000613487308102623	0.00463578609852894
1.17	-0.884145124863221	-1.072757138205	709.949195927981	-3.33766148677141	19.8749402718136	1.28804054651687	-1.25393869595003	0.000820401171677476	0.00511695877023077
1.18	-1.30900591746991	-1.05380490400435	709.231513945727	-3.20448187885128	20.1996818264835	1.2763416927091	-1.2405294438015	0.00100827116396973	0.00560811433779684
