Time [s]	GRFml [N]	GRFap [N]	GRFv [N]	Mml [N.m]	Map [N.m]	Mv [N.m]	Mfree [N.m]	COPml [m]	COPap [m]
0.01	-5.6589953755123	-6.62985134054214	757.531935432646	16.6094827283677	26.308598931171	-0.554535698818095	0.660765051136177	-0.0067806927569769	0.00540470657723896
0.02	-5.66850941784214	-6.64383130917896	759.620506623577	16.584305835716	26.4182254579862	-0.561281805323634	0.668583999392913	-0.00687216897678355	0.00545413471219236
0.03	-5.61764555136387	-6.64926970015483	761.472826338113	16.5591032883496	26.5133249892952	-0.561768322552082	0.671066568640581	-0.00695672939475767	0.00549526100680431
0.04	-5.46805394864949	-6.64217282294962	762.88867426849	16.5344696363881	26.5836915408124	-0.550979566797547	0.663832570745246	-0.00702772811288022	0.00552382381159927
0.05	-5.21630493061805	-6.62811956735331	763.74148699105	16.5118917756359	26.6243129643414	-0.526200992382288	0.644406470341985	-0.00707953883613432	0.00553903146365164
0.06	-4.89526458546483	-6.62239218780539	763.998858210665	16.4936018150015	26.6357513487642	-0.487362611800372	0.612534892463038	-0.00710833792437193	0.00554312467084855
0.07	-4.56297644822539	-6.64605284922342	763.724785022198	16.481996802413	26.6229197886318	-0.436795795812083	0.570038772837938	-0.00711290620783078	0.00553966105752041
0.08	-4.28338558790039	-6.7193436305223	763.062662225588	16.4788453405372	26.5927670031954	-0.378578135311363	0.520332704899579	-0.00709514389820209	0.00553124125932219
0.09	-4.10589018905486	-6.8546850125771	762.202597401115	16.4845778890593	26.5517114109185	-0.317731726689051	0.46781025088941	-0.00706002730136934	0.0055176219945019
0.1	-4.05067376012658	-7.05159175133914	761.340666202523	16.4979106086176	26.5036630592007	-0.259517961314607	0.417273245260282	-0.00701491083011851	0.00549497272863869
0.11	-4.10428444886227	-7.29509930701494	760.63986202224	16.5159213371552	26.4491757388897	-0.208959428167372	0.373496615937276	-0.00696830384689873	0.00545654540284191
0.12	-4.22608366646672	-7.55812761056933	760.201930550382	16.5345459466992	26.3858300787502	-0.170575858100292	0.340915840870701	-0.00692842481757439	0.00539447083462591
0.13	-4.36247420654819	-7.8070223958844	760.056110596664	16.5493506405497	26.3095381975212	-0.148213108548434	0.323352576186275	-0.0069018867426146	0.00530199913057522
0.14	-4.46354144234312	-8.00867040101479	760.165977700064	16.5563870995198	26.2162160335853	-0.144817359379861	0.323686033552169	-0.00689279209033788	0.0051753985881432
0.15	-4.49655333332926	-8.13728721789147	760.450602259461	16.5529471143062	26.103243067767	-0.162067080724805	0.34343271449139	-0.00690236233201869	0.00501491919753666
0.16	-4.45249225961401	-8.17923620444438	760.812629447799	16.5380777216466	25.9702898002997	-0.199890691066398	0.382286533199894	-0.00692907004842314	0.00482460246872907
0.17	-4.34458940323848	-8.13490197072973	761.164725490544	16.5127733585269	25.8193548144335	-0.256014075310013	0.43775309950302	-0.00696913952088229	0.00461111734930197
0.18	-4.20057790712325	-8.01747250071566	761.447342005109	16.4798164563813	25.6541142038123	-0.325746320732278	0.50504785147526	-0.00701725512855289	0.00438207865790291
0.19	-4.0521239581017	-7.84923815370493	761.634270232144	16.4432923114873	25.4788660836571	-0.402192131752935	0.577397138534482	-0.00706734651192309	0.00414438336914708
0.2	-3.9251822944097	-7.65651774437277	761.726711226061	16.4078606657748	25.2974139663553	-0.47697534923707	0.64678767793832	-0.0071133658948771	0.00390298898880864
0.21	-3.83399170812666	-7.46449254360087	761.740140849349	16.3779198171304	25.1121834427139	-0.541401906142923	0.705079854475815	-0.00715000321251114	0.00366033287762563
0.22	-3.77966601939464	-7.2930811851263	761.689995326195	16.3568324598613	24.9237494211381	-0.587836163313137	0.745276499645032	-0.00717328992377064	0.00341635725150635
0.23	-3.75260487223567	-7.15460130123783	761.581714470413	16.3463758724861	24.7308205329926	-0.610968892036882	0.762665438358286	-0.00718103661577496	0.00316895247984
0.24	-3.73687157096652	-7.05345369345607	761.408304278727	16.3465244504357	24.5306265249305	-0.608657621863691	0.755561812078717	-0.00717305295556447	0.00291460266479138
0.25	-3.71454364161921	-6.98756107207925	761.155292157362	16.3555842603344	24.3196015881693	-0.582126642447448	0.725469344537711	-0.007151119863539	0.00264909288888648
0.26	-3.66871727640254	-6.95091511282159	760.809989186044	16.3706103411131	24.0942444732272	-0.535492742625082	0.676632484851762	-0.00711871503825479	0.00236825269534541
0.27	-3.58491868554224	-6.93641682684417	760.370411360104	16.3879823876671	23.8520445686022	-0.474773811890052	0.615114873374887	-0.00708051975268131	0.00206879161029755
0.28	-3.45162008202638	-6.9382599339343	759.849560574912	16.404009769428	23.5923731619826	-0.406674279894866	0.547658826540637	-0.00704175074946034	0.00174928254418216
0.29	-3.26096513521944	-6.95335754252326	759.272823274154	16.4154730015604	23.3172422740839	-0.337476985947123	0.480615507512685	-0.00700737323489353	0.00141126514492695
0.3	-3.01053259295115	-6.98164606085638	758.669192910813	16.4200579274609	23.031831212459	-0.272297076407943	0.419177671550683	-0.00698127255949821	0.00106031096217479
0.31	-2.70616434096185	-7.02540152867487	758.059752259586	16.4166725255217	22.7446800250902	-0.214803546432948	0.367023202951311	-0.00696549823620929	0.000706772525337185
0.32	-2.36493632071614	-7.08789343677331	757.448363600421	16.405641306834	22.4674569891585	-0.167348850708851	0.32633850150517	-0.00695973226011348	0.000365882548078789
0.33	-2.01670376224346	-7.17176345842313	756.819245538368	16.3887560108667	22.214231293371	-0.131328272028843	0.298087954896049	-0.00696114780620782	5.69113039184943e-05
0.34	-1.7026403708901	-7.27748837190169	756.144088572145	16.3691445637743	22.0002288081563	-0.107555991689511	0.282360921947039	-0.00696478724622462	-0.000198762447661149
0.35	-1.46990454072352	-7.40222151554654	755.398150415543	16.350924277542	21.8401230852974	-0.0964949191552525	0.278661500377619	-0.0069644887159187	-0.000380577142806482
0.36	-1.36280998809946	-7.53923854371613	754.581326377947	16.3386396744957	21.7460140195851	-0.0982803828892104	0.286082026812059	-0.00695424343384887	-0.000472342052809993
0.37	-1.41223915071577	-7.67813875946021	753.737593712401	16.3365426009462	21.7253590057091	-0.112585542811971	0.303379052972127	-0.00692971366079387	-0.00046579180500822
0.38	-1.62602469103972	-7.80584862396043	752.965422679602	16.3478307405903	21.7792162043494	-0.138445141879192	0.329016031176176	-0.0068895402671072	-0.000363355748982885
0.39	-1.98324143591046	-7.90832319717693	752.413246818514	16.3739946358811	21.9011961095387	-0.17416133177218	0.361234935070939	-0.00683606857679742	-0.000179371590888988
0.4	-2.43463730748568	-7.9726627225786	752.257753207297	16.414416107772	22.0774593367253	-0.217365907680356	0.398178279542521	-0.00677523949128656	6.07955362309509e-05
0.41	-2.9099271571692	-7.98921226484817	752.66772389205	16.4663129248693	22.287932168068	-0.265235357870665	0.438030222515212	-0.00671560333527021	0.000323839148835436
0.42	-3.33078811904957	-7.9531644944536	753.760999147891	16.5250520380375	22.50866093638	-0.314785795479962	0.479111688711121	-0.00666665192689753	0.000573381050176847
0.43	-3.62669083125077	-7.86528751252219	755.565253643382	16.5847790930712	22.7149525077375	-0.363143935432854	0.519869970068736	-0.00663685313737949	0.000775713774716857
0.44	-3.74971820130404	-7.73164066085806	757.993483561521	16.639252713624	22.8847312900906	-0.407708481440402	0.558747863048318	-0.00663185357311225	0.000905214411532351
0.45	-3.6846073495801	-7.56244424408007	760.842077517775	16.6827361783623	23.0014558932007	-0.446172476920836	0.593981004431863	-0.0066532700131281	0.000948243814893335
0.46	-3.45142855388301	-7.37051594156546	763.81384184845	16.7107885242283	23.0560183702606	-0.476445036871868	0.623424326024927	-0.00669834002255976	0.000904682764231779
0.47	-3.10027065843435	-7.16977052659435	766.561993447804	16.7208133885585	23.0472823876394	-0.496560738096875	0.644522768726206	-0.00676049371142473	0.000786828936254258
0.48	-2.69945845362459	-6.9741576238342	768.745853217319	16.7122693905806	22.9812403961542	-0.50467555205613	0.654506295657696	-0.00683069622557686	0.00061602071165795
0.49	-2.32052392981035	-6.79713260171853	770.086324757267	16.6865184271105	22.8690896628537	-0.499214430179101	0.650814032182977	-0.00689924211765069	0.000417877638048236
0.5	-2.02386365105911	-6.65144207300555	770.409865883115	16.6463748208346	22.7247482536971	-0.47917007297579	0.631663653833456	-0.00695759269362883	0.00021730380469559
0.51	-1.84852900474653	-6.54880581287888	769.673109270974	16.59549362836	22.5623922746033	-0.444480486275405	0.596613978441323	-0.00699985388341429	3.43286949402999e-05
0.52	-1.80810379001975	-6.4990972509349	767.965270809281	16.5377710838538	22.3944875620623	-0.396363279611372	0.546949211094108	-0.00702359452452461	-0.000118493153565324
0.53	-1.89265563390542	-6.50887744800059	765.49038615012	16.4769049000677	22.2305641490671	-0.337477938281876	0.485752999433806	-0.00702988057539311	-0.000236901056454131
0.54	-2.07499203205171	-6.57952748657377	762.534889689507	16.4161819899991	22.0767317264759	-0.271827956502357	0.417627397393119	-0.00702260408432998	-0.000324211274998931
0.55	-2.31850085722324	-6.70558221344612	759.427442823904	16.3584589460826	21.9357541139863	-0.204389151282519	0.348115597820538	-0.00700735566223432	-0.000389596934843917
0.56	-2.58398412070963	-6.87402128087117	756.497399361923	16.3062243181704	21.8074497850147	-0.140532174451477	0.282970704174491	-0.00699016906166283	-0.00044593395061554
0.57	-2.83396100958267	-7.06512362166658	754.036659395474	16.2616196066827	21.6892620477687	-0.0853668772064436	0.227446379334502	-0.00697643046237861	-0.000507604709558906
0.58	-3.03442681953313	-7.25506623075457	752.267906434614	16.226353566718	21.5769850579691	-0.0431527638932949	0.185758557672027	-0.00697011577033235	-0.000588383013937044
0.59	-3.15535998629906	-7.41989348543624	751.321092462378	16.2015395143779	21.4657473935885	-0.0168887001138105	0.160793212798285	-0.00697336132503923	-0.000699318819833539
0.6	-3.17182337313124	-7.54000185665935	751.219734887354	16.1875639190064	21.3513617635257	-0.00813004224134555	0.154044201783497	-0.00698626349697062	-0.000846516778141071
0.61	-3.06707498155224	-7.60404882938337	751.878763102669	16.1841101098946	21.2320161191154	-0.0170091567669609	0.165694156153613	-0.0070067909507523	-0.00102888682863145
0.62	-2.83785685226143	-7.61127825312222	753.115623667274	16.1903990460436	21.1100461550494	-0.0423845302450683	0.194727957803439	-0.00703077809328778	-0.0012362613212637
0.63	-2.50047826029891	-7.57161734569588	754.675478778268	16.2055956289322	20.9932914899181	-0.0820323508253312	0.238999411127044	-0.00705209570273302	-0.00144856375678193
0.64	-2.09511081164242	-7.50342464109921	756.269319069426	16.2292186524027	20.8954239140226	-0.132822130647672	0.295240250345217	-0.00706318371765446	-0.00163679881365647
0.65	-1.68543637647654	-7.42931396912468	757.620883494702	16.2613437845479	20.8347469739242	-0.190867002504864	0.359073370961448	-0.00705611079290469	-0.00176638380705046
0.66	-1.35169273912385	-7.37093119582395	758.515169072843	16.302436810503	20.8313263597464	-0.251684521020967	0.425134875011645	-0.00702417116672016	-0.00180275058995261
0.67	-1.17707979268381	-7.343837522393	758.839086726927	16.352790946069	20.9028399523587	-0.310424512051231	0.487401816417191	-0.00696378337905668	-0.00171835893351935
0.68	-1.22985280504451	-7.35370096616758	758.604558686465	16.4117157901672	21.0600632086762	-0.362208954685436	0.53976561366493	-0.00687621735340549	-0.00149954658261214
0.69	-1.54543435385378	-7.39478188612824	757.946758252445	16.4767606954121	21.3032233908675	-0.402590933317024	0.576805387689299	-0.00676856672135895	-0.00115130040844685
0.7	-2.11374573061605	-7.45122104089083	757.095211261366	16.5432865058433	21.6204058919228	-0.428090003107071	0.594631241926779	-0.00665348677696675	-0.000698280824047381
0.71	-2.87622169879257	-7.5009677121264	756.32212233295	16.6046052563035	21.9887387707789	-0.436716637814713	0.591613604341002	-0.00654753443194145	-0.000181286469119968
0.72	-3.73466596731068	-7.52147057960177	755.878781557637	16.6527240772942	22.3783290026788	-0.428372628161838	0.568809967070957	-0.00646837494049513	0.000350404533141391
0.73	-4.57081193462842	-7.49570262869175	755.93518359437	16.6795350254179	22.7581069783816	-0.405015835809625	0.529948962439496	-0.00643149835774259	0.000849122702389071
0.74	-5.27215568577033	-7.41690299258136	756.538404460568	16.6781661886398	23.1021241897765	-0.370508885897933	0.480923249878979	-0.00644726478008162	0.00127878958587468
0.75	-5.75740321705281	-7.29070240175348	757.601252947882	16.6441920228312	23.3946525459205	-0.330128246541292	0.428855091245499	-0.00651900185010379	0.00162214179128806
0.76	-5.99453385329343	-7.13401139337715	758.925058459179	16.5764781959169	23.6327265285319	-0.289782885393192	0.380903753740444	-0.00664255459984187	0.00188322337591007
0.77	-6.00627841866222	-6.97098800968108	760.251230432688	16.4775541831687	23.8254664190675	-0.255065856003869	0.343055170043651	-0.00680726828372213	0.00208446055409989
0.78	-5.86130885294382	-6.82726011425827	761.32812441554	16.3535065789813	23.9904104728608	-0.23032063388957	0.319152645023785	-0.00699802503565838	0.00225914132185012
0.79	-5.65361097393427	-6.72406185947102	761.97527104369	16.2134362071848	24.1478994843659	-0.217929412033905	0.310385927018314	-0.00719776684171158	0.00244139627887346
0.8	-5.47605116281322	-6.67388605882538	762.12764556448	16.0685310359315	24.3150603601238	-0.218008234721402	0.315360625977246	-0.00738994933957793	0.00265643398383186
0.81	-5.39587387371379	-6.6786847387968	761.848324358963	15.9308105684027	24.5009861218917	-0.228616543750361	0.330738069659002	-0.0075605316647227	0.00291363395183092
0.82	-5.43915480865218	-6.73078960988074	761.306954441728	15.8116315076199	24.7043057248249	-0.246463293113031	0.352294013125186	-0.0076993211725408	0.00320420050298337
0.83	-5.58827053240027	-6.81589394640946	760.731187279647	15.7201178582167	24.9136123276357	-0.26794521028403	0.376127307043659	-0.00780066776553967	0.00350371966450608
0.84	-5.79221266555301	-6.9169275802944	760.345569501759	15.6617633423998	25.1104025674041	-0.290230974186387	0.39969310347626	-0.00786359289845151	0.00377856938478349
0.85	-5.98553401742165	-7.01761107789285	760.315067117848	15.637499562038	25.2735240561682	-0.312059531054376	0.422367209218795	-0.00789144786583251	0.0039941430406667
0.86	-6.10927094990804	-7.10484360085812	760.707731809371	15.6434862707411	25.383825613748	-0.333985096297646	0.445373280994476	-0.00789116495377584	0.00412254656215283
0.87	-6.12714984037993	-7.16965798585413	761.484155744692	15.6717507976262	25.4278213575624	-0.357969139330492	0.47109355332301	-0.00787214049078699	0.00414786553560459
0.88	-6.03264681878215	-7.20701325970758	762.512885075015	15.7116136436423	25.3996364930578	-0.386438024822084	0.501977330014157	-0.00784480206245619	0.00406806000547238
0.89	-5.84605613052966	-7.2149998972028	763.603867150753	15.7516441839118	25.3011098066664	-0.421112533744542	0.539390433571708	-0.00781897044749202	0.00389365359453964
0.9	-5.6042099164196	-7.19404794778533	764.548535855692	15.7817525069452	25.140463456452	-0.461997471193306	0.582764020040455	-0.00780221492861266	0.00364424793578294
0.91	-5.34759843692752	-7.14651878814743	765.155962919943	15.7949794240066	24.9302473734735	-0.506863057479686	0.629296878063266	-0.00779848506040515	0.00334425853152487
0.92	-5.10972844359985	-7.07675767821381	765.278589131066	15.788607965406	24.6852677629407	-0.551379234577373	0.674282864020798	-0.00780733824280377	0.0030190997527999
0.93	-4.91183904056417	-6.9914095005947	764.826253815011	15.7643719836257	24.4209771211236	-0.589848789060383	0.711944035864448	-0.00782402917266267	0.00269251364352663
0.94	-4.76346099218443	-6.89963018585561	763.771298512234	15.7277461899029	24.1524706735774	-0.616307130574157	0.736517374187166	-0.00784056654420529	0.0023851140726503
0.95	-4.66690294019033	-6.81279270848348	762.148982226494	15.6865184228489	23.8939454775741	-0.625674929761071	0.743306586931265	-0.00784759745002617	0.00211376098784888
0.96	-4.62249440942793	-6.74339694871407	760.056181653468	15.6490151654883	23.6583338774477	-0.614679963065131	0.729467954825832	-0.00783671793932894	0.00189123212394571
0.97	-4.63166759574857	-6.70313942629318	757.648463081683	15.6224279679288	23.4568509494777	-0.582377540128291	0.694414356772627	-0.00780262230755158	0.00172581619123863
0.98	-4.69643899605483	-6.70044145315416	755.132855569761	15.6116446220835	23.2983545247285	-0.530239224473535	0.639843235119551	-0.00774447919352006	0.0016207845705738
0.99	-4.81582233479685	-6.73807598118785	752.75262725252	15.6188296529367	23.1886197503648	-0.46189097581866	0.569477640808876	-0.00766609930970363	0.00157402415360786
1	-4.98130402623696	-6.8117278232247	750.761826281549	15.6437651501557	23.129782384559	-0.382630727483182	0.488633410930494	-0.00757480641981578	0.00157827003431327
1.01	-5.17409555090438	-6.9102282615036	749.390900385815	15.684725710626	23.1202367748246	-0.298841829886276	0.403698203020684	-0.00747933715070936	0.00162228362656769
1.02	-5.366241902544	-7.01777256467053	748.808973624847	15.7395004389329	23.1551662778539	-0.217371120131965	0.321560011597906	-0.00738743178392809	0.0016930079400998
1.03	-5.52609740764796	-7.11775807411639	749.091527177926	15.8061516843722	23.2276717242621	-0.144896769415617	0.248989289641089	-0.00730390425342609	0.00177831870918926
1.04	-5.62681379937203	-7.1972129416335	750.202787161779	15.8832296477128	23.3302258284848	-0.0872980539548599	0.191981376431194	-0.00722983010630118	0.00186964527959638
1.05	-5.65504913850468	-7.25041172500563	751.999450909511	15.9694011022937	23.4560121489868	-0.04905921831588	0.155101929006324	-0.00716310354135807	0.00196361066352096
1.06	-5.61665731548549	-7.28039787232648	754.257046398315	16.0627087457813	23.5996829028997	-0.0327733173539255	0.140923983428736	-0.00710012325682963	0.00206201672247835
1.07	-5.53685614545203	-7.2977630738692	756.713808529194	16.1598499582988	23.7572202837184	-0.0388324402191589	0.149671072493209	-0.00703795606776836	0.00216995382111529
1.08	-5.45408248424309	-7.31695899422936	759.121563060306	16.2558731208906	23.924877511307	-0.0653800294373624	0.179166396426681	-0.00697615924811923	0.00229241539764036
1.09	-5.40887140036867	-7.35128861782309	761.290601539757	16.3445231648362	24.0975175946375	-0.108559085081336	0.225133128904095	-0.00691758878802318	0.00243034992686808
1.1	-5.43092836825981	-7.40820149808335	763.116883073158	16.4191883901579	24.2669389826463	-0.163032653673963	0.281814048803665	-0.00686792672922032	0.00257738621574483
1.11	-5.52845229567749	-7.48641313962352	764.584829470038	16.4741258261735	24.4208698929993	-0.22270104587957	0.342806726509863	-0.00683416236959344	0.00271839201778273
1.12	-5.68335119426851	-7.57572911678173	765.746025337697	16.5054978573438	24.543173455656	-0.281507957138421	0.401965562552993	-0.00682265157582873	0.00283056027688772
1.13	-5.85432986041557	-7.65953271112273	766.681130902589	16.5118137552077	24.6154596460961	-0.334217056466055	0.454212714416788	-0.00683749433713299	0.00288698480967009
1.14	-5.98740327809908	-7.71904120446147	767.457110556051	16.4936211019521	24.6198503482807	-0.377044808273226	0.496121611052426	-0.00687977191530553	0.00286191106065392
1.15	-6.03096929734374	-7.73795309458776	768.093020806908	16.4526282124791	24.5422395336259	-0.408047906820203	0.52617856712591	-0.00694777073350739	0.00273628070548698
1.16	-5.95096775335988	-7.70613645754337	768.544776182092	16.390707162123	24.375174274054	-0.427186335977357	0.544681469791523	-0.00703788442533015	0.00250202819149692
1.17	-5.741433427253	-7.62148487179356	768.713424030198	16.3092984078193	24.1195378895185	-0.436024625287096	0.553296248088275	-0.00714562624457582	0.00216390194360383
