Time [s]	GRFml [N]	GRFap [N]	GRFv [N]	Mml [N.m]	Map [N.m]	Mv [N.m]	Mfree [N.m]	COPml [m]	COPap [m]
0.01	0.455640836722553	4.88246542629264	899.627712896063	-4.12207373113131	7.48664045726143	1.04857809400058	-1.09107644095988	-0.0161632932345892	0.00256529525796012
0.02	-0.883266212655808	4.75033217177566	899.977923021975	-4.04784922286009	7.94058474907818	1.04082705255628	-1.07878494313282	-0.0160758355526905	0.00306494119089962
0.03	-2.15720247072894	4.62194749268726	900.712657675852	-3.97161034435925	8.3873886405115	1.04005257145662	-1.07377740899297	-0.0159845734597047	0.00355183566519185
0.04	-3.29270733153174	4.50125095309224	902.186814509742	-3.89230476019041	8.81546881184018	1.05149709697048	-1.08159530315607	-0.0158869406314032	0.00400887550509693
0.05	-4.20448759285925	4.38994348835615	904.645267480784	-3.80839398474491	9.20212518923666	1.07756166660031	-1.10488556645005	-0.0157804259768115	0.00440839361368894
0.06	-4.80429289125355	4.28630428326026	908.180969486085	-3.71765200688543	9.51488698523671	1.11746366025035	-1.14301685657704	-0.0156625318716391	0.00471417101600402
0.07	-5.02016968114866	4.18491685133502	912.709472241821	-3.61738065263287	9.71835920539677	1.16771750951003	-1.19252232758324	-0.015531056259259	0.00488914434050514
0.08	-4.81935933286147	4.07774893600306	917.965513564773	-3.50506746436275	9.78403426752719	1.22319650862541	-1.24814397403911	-0.0153847166056549	0.00490597639476298
0.09	-4.2260002236723	3.956592674685	923.526165171175	-3.37931323238452	9.69949902478622	1.27840112105713	-1.30411721907887	-0.0152239385704425	0.0047565824696047
0.1	-3.32621859439096	3.81628695882027	928.861478231216	-3.24067955014851	9.47381808187438	1.32857564571488	-1.35533979689047	-0.0150514622932894	0.00445716282914327
0.11	-2.25729439314101	3.65768468681878	933.408106833876	-3.09204804935526	9.13728216363142	1.37044003764915	-1.39818029224633	-0.0148723752310765	0.00404690408331532
0.12	-1.18271192375185	3.48922502304633	936.655532967321	-2.93819563980164	8.73556117763268	1.40246494872082	-1.4308327594795	-0.0146933150004638	0.00358058264375444
0.13	-0.259271800770707	3.32630586970767	938.230134446574	-2.78455502782157	8.31995570945171	1.42475074837776	-1.45325405884284	-0.0145208730725978	0.00311711516802748
0.14	0.395256205288106	3.18832273880325	937.960968691908	-2.63545747833833	7.93643657399616	1.43864197203737	-1.46679755696499	-0.0143595713404016	0.00270714637322267
0.15	0.725714923450563	3.09401167835981	935.913491418355	-2.49241782284724	7.6163147652374	1.44621838099915	-1.47367928743121	-0.0142100425548192	0.00238285385101422
0.16	0.748636711080924	3.05633454649409	932.383171798197	-2.35310488900941	7.37077431683064	1.44977547464286	-1.4763986871618	-0.0140681033726533	0.002152392345729
0.17	0.544896814309882	3.07836758836896	927.848889952102	-2.21148873998051	7.19038915038816	1.45136851539496	-1.47720811864611	-0.013925213318837	0.00200010439108644
0.18	0.238085247546568	3.15142289096377	922.8943267001	-2.05930143679201	7.04946481887519	1.45246460344732	-1.4776996286754	-0.0137704064200084	0.00189217097803901
0.19	-0.0359410714441712	3.25601961926063	918.112355836479	-1.88850393127693	6.91391133556676	1.45373340904026	-1.47855919817655	-0.0135932925006654	0.00178611623390312
0.2	-0.160970950133132	3.36552011486557	914.011100384261	-1.69407435884234	6.75060281856392	1.45500275469422	-1.47952392565683	-0.013387322970454	0.00164177418769523
0.21	-0.066326054407643	3.45150318376534	910.939877997341	-1.47626318701219	6.53594890851413	1.45539722097917	-1.47955688762092	-0.0131523520450881	0.00143111497842952
0.22	0.25916436072872	3.48948974299078	909.048752075862	-1.24156908683454	6.26171259088155	1.45365426944935	-1.47722010498579	-0.0128956706610589	0.00114472527159976
0.23	0.768005362144922	3.46359827252046	908.287849053838	-1.00204844792312	5.93686546036771	1.4485702938313	-1.47117869257778	-0.0126311104009313	0.00079362965849894
0.24	1.3689124370737	3.36908634203856	908.443816670647	-0.773064888381427	5.58528272510531	1.43947958642	-1.46072121681492	-0.0123763753665054	0.000406305281889674
0.25	1.95144947593378	3.21238942651745	909.20292350532	-0.570050887542816	5.2400955552053	1.42663453650475	-1.44615359582477	-0.012149279391702	2.18961072041002e-05
0.26	2.41378956248382	3.00896985015528	910.225211298753	-0.405142223688993	4.93628767545157	1.41135841576878	-1.42893668520755	-0.0119638788164445	-0.000318505314034379
0.27	2.68638458911747	2.77980471487703	911.21291073422	-0.284571325604126	4.70346234067904	1.39589343015859	-1.41149809265927	-0.0118275047170424	-0.000580276980210015
0.28	2.74570699380523	2.54752719000189	911.959092388119	-0.207471920696873	4.56054599973462	1.38295555186123	-1.39674308702184	-0.011739421797873	-0.000741363338673418
0.29	2.61512513684765	2.33308518894023	912.368349477176	-0.166341268022412	4.51359753403097	1.37510335853486	-1.38738573065054	-0.0116913751402391	-0.00079472798591973
0.3	2.35351484498472	2.15341692303303	912.448628892527	-0.148961514914362	4.55702754261609	1.3740929945644	-1.38528234081227	-0.011669782806455	-0.000746846403786972
0.31	2.03538032575866	2.02024342582953	912.280321533456	-0.141229637828615	4.67763161057672	1.38039871549226	-1.39095024964537	-0.0116589394081839	-0.000612959163840798
0.32	1.72824053804891	1.93979410745095	911.973741604208	-0.13017248995214	4.86013569764996	1.39302584991953	-1.40339558655036	-0.0116444086024878	-0.000410613364200341
0.33	1.47342130334761	1.91317501353915	911.62803713658	-0.106451167913705	5.09261485331716	1.4096530797826	-1.42027919191286	-0.0116158225294514	-0.000153399038236801
0.34	1.27521563617302	1.93712793130387	911.303010703684	-0.0658495951605782	5.37025433524474	1.42704975202424	-1.43835694259866	-0.0115685283280911	0.000153348235015005
0.35	1.10102849615049	2.00502285832485	911.010773907458	-0.00952323537871054	5.69643505005646	1.44165362575294	-1.45407184625545	-0.011503842172022	0.000513710898218944
0.36	0.892214167367825	2.10798981321068	910.727861827005	0.0569238428134542	6.08089837240314	1.45017957329731	-1.46416390752883	-0.0114279998244604	0.000938956151404269
0.37	0.58252855313591	2.23609039296928	910.422129781318	0.125225594529265	6.53556722455168	1.45015345845676	-1.46619187059218	-0.0113501579725218	0.00144260308557698
0.38	0.119103643284153	2.37937902804249	910.084231488305	0.186648370953109	7.0692480647107	1.44030625885599	-1.45890581084164	-0.0112799599400624	0.00203424310314343
0.39	-0.519882085943905	2.52867206774321	909.752079750762	0.234095823564289	7.68273776580409	1.42079851392256	-1.44244730449754	-0.0112252180746929	0.00271391164393187
0.4	-1.31585467883218	2.67588808346671	909.51889874908	0.263688190190266	8.3657318560745	1.39326229542794	-1.41837197506909	-0.011190190416228	0.00346864913007228
0.41	-2.21158278101481	2.81395789850105	909.520695102385	0.275523487466853	9.09641615674861	1.36065105103861	-1.38949141145612	-0.0111747652516883	0.00427226905863543
0.42	-3.12359559606316	2.93648092684606	909.905632373346	0.273522074073344	9.84387109646369	1.32689198824413	-1.35953310455141	-0.0111746512250562	0.00508844785014967
0.43	-3.96166488268009	3.03743925637773	910.793786423754	0.264459126008612	10.5726438532727	1.29635577866711	-1.33263331560157	-0.0111824487727106	0.00587632528078508
0.44	-4.6495188789519	3.11129097506786	912.239128120879	0.256458915837143	11.2482721675129	1.27319721809926	-1.31271245044117	-0.011189297345619	0.00659712733933432
0.45	-5.14055251569303	3.15361733248496	914.2052014715	0.25732484092695	11.8423407210917	1.26066574394818	-1.30282428802071	-0.0111866894420452	0.00722009532024953
0.46	-5.42396854629002	3.16223582423638	916.561973588769	0.273089274965291	12.3358713215705	1.26051507163902	-1.30459904237098	-0.0111680370749687	0.00772629036237144
0.47	-5.52004742962965	3.13841919991342	919.105081059246	0.307086106044357	12.720415229106	1.27263859336495	-1.31789841521765	-0.0111296682149006	0.00810954494741672
0.48	-5.46698395124352	3.08770749808091	921.592257510813	0.359695622681857	12.9969416279138	1.29501711504432	-1.34076417478869	-0.0110710976049276	0.00837472045816806
0.49	-5.30458661735207	3.01985735901907	923.787134661684	0.428725502530606	13.1732589353218	1.32399930519913	-1.3696809271799	-0.0109946155524745	0.0085342091262654
0.5	-5.06103755589035	2.94774125970575	925.499165408786	0.510226369902658	13.2610512829821	1.35486363974088	-1.40010774828719	-0.0109044133732485	0.00860403265237797
0.51	-4.74750422584685	2.88538779562163	926.61032043224	0.59944876425487	13.2735516060568	1.38255392260093	-1.42718043035121	-0.0108055595695717	0.00860080982900635
0.52	-4.36220635562396	2.84567900049178	927.083602695854	0.691662330878745	13.2244447131814	1.40245122001297	-1.44645715834594	-0.0107031236993599	0.00854034153781424
0.53	-3.90178219895793	2.83834322146725	926.953783657386	0.78267052391545	13.127976677324	1.41104656110026	-1.45457832081738	-0.0106016236935536	0.00843780747551737
0.54	-3.37489753501217	2.86874467140957	926.305442486135	0.869016344226954	12.9996917251571	1.40640735250738	-1.44973346724778	-0.0105047995178231	0.00830888364387672
0.55	-2.81210217519527	2.93764017210845	925.246114456671	0.948014474597786	12.8569481030562	1.38837809511673	-1.43186978062501	-0.0104155683595042	0.00817073967492199
0.56	-2.26731742296533	3.04171026851648	923.882557710163	1.0177994685325	12.7184840781114	1.35851140373944	-1.40262853815186	-0.0103359607110362	0.00804198774492548
0.57	-1.80950593954786	3.17444841069677	922.30604160491	1.07752487666913	12.6027550155419	1.31977482999846	-1.36504702462286	-0.0102668970301436	0.00794116733970024
0.58	-1.50682382099882	3.32700295276492	920.58899136119	1.12771324058546	12.5253460517778	1.27610944376368	-1.32309972098972	-0.0102078094022637	0.00788403853431002
0.59	-1.40846002287825	3.48878101690993	918.791466056968	1.17061031297631	12.4962343836429	1.23192051897863	-1.28116465707636	-0.0101562681057157	0.00788053268340305
0.6	-1.53034200426591	3.64790473800476	916.972942813774	1.21031439271131	12.5178372423041	1.19156294496172	-1.24348881265123	-0.0101078584124221	0.007932442678038
0.61	-1.84958977838327	3.79179620476753	915.2035359839	1.25247981292775	12.5845761475795	1.15885857133737	-1.21370180761934	-0.0100565193989798	0.00803274343012855
0.62	-2.3095623002494	3.90815658916598	913.569381536546	1.30352779913174	12.6842060898254	1.1366670410958	-1.19440656798399	-0.00999541010999427	0.00816690800357284
0.63	-2.83373322492102	3.98640766845433	912.169182537686	1.3694855300597	12.8005941532149	1.12653548914891	-1.1868708771854	-0.00991816653885202	0.00831593933950309
0.64	-3.34380485977001	4.01938801116468	911.102086093354	1.45473944529799	12.9171961707894	1.12847078679059	-1.19085345390613	-0.00982023734092674	0.00846031203004843
0.65	-3.77641491086319	4.00488373385434	910.450131070688	1.56106498852282	13.0203142204831	1.14089313075003	-1.20460846272067	-0.00969990807161769	0.00858378440065072
0.66	-4.09378041860204	3.94652707841236	910.260497018038	1.68724940722435	13.1013496984693	1.16082186728721	-1.22510524362582	-0.00955867696041302	0.00867614551621243
0.67	-4.28613038340253	3.8537315306593	910.533072250092	1.8294673902098	13.1576165859197	1.18430440884765	-1.24846579647135	-0.00940081719907437	0.00873433011089714
0.68	-4.36673274358026	3.74058355505377	911.217366565829	1.98234891845697	13.1917081042573	1.20703605789117	-1.27056755975596	-0.00923219907012707	0.008761818856379
0.69	-4.36257464370242	3.62387314010327	912.22001917573	2.14046402018449	13.2097791422238	1.22505689262676	-1.28770431174218	-0.00905867502192204	0.00876668539842618
0.7	-4.304553343977	3.52062923398871	913.42100641831	2.29981023324281	13.2193253534578	1.23537921389005	-1.29716884108159	-0.00888447696178651	0.00875894198933108
0.71	-4.22029058089591	3.44559382847517	914.694164789617	2.45887441638401	13.2270792739333	1.23641181990065	-1.29763334685532	-0.00871108595933834	0.00874792416805564
0.72	-4.13093971260512	3.40903429710852	915.926612237469	2.61896099177427	13.2375282112376	1.22810220409042	-1.28925530082413	-0.00853690100734183	0.0087403529172434
0.73	-4.05148549946794	3.4152004782235	917.032365686312	2.7836977191449	13.2523411994275	1.21179350762169	-1.27350871019204	-0.00835779560305605	0.00873947041155593
0.74	-3.9928285104251	3.46162313141186	917.957595721365	2.95787584491903	13.2707338673823	1.18986158346314	-1.25280694709757	-0.00816838682804399	0.0087453318950676
0.75	-3.96377217874613	3.53934695229814	918.677730442166	3.14597252214109	13.2905569186973	1.16523692880448	-1.23002213696854	-0.00796363883202544	0.00875602473932768
0.76	-3.97174106602999	3.63409567870147	919.189052912212	3.35078066899125	13.3097133928942	1.14091927461256	-1.20800949286664	-0.00774034367632037	0.00876934466794183
0.77	-4.02212770073807	3.72826785124307	919.498757909929	3.57252012778092	13.327428114962	1.11956695005571	-1.18921918748049	-0.00749808158731413	0.00878434303052816
0.78	-4.11699286310786	3.80354994347028	919.617321823195	3.80865456848313	13.3449303152205	1.10320489054383	-1.175438391107	-0.00723942536350719	0.00880219839941698
0.79	-4.25406092907769	3.84381250507378	919.555679839194	4.05444733777246	13.36526575787	1.09306032164423	-1.16766795631344	-0.00696935845674129	0.00882605762628569
0.8	-4.42657395795356	3.83784655175914	919.327656561651	4.3041112967084	13.392198883168	1.08951322781696	-1.1661126669859	-0.00669406418387974	0.00885979477130788
0.81	-4.62393717406305	3.78143868914817	918.956059849557	4.55227725757681	13.4284424886913	1.09214082037184	-1.1702541062279	-0.00641937856126296	0.00890597635077156
0.82	-4.83264274612603	3.67831533122778	918.479438743525	4.79543551858184	13.4736886331605	1.09983634362431	-1.17897771604568	-0.00614926967095597	0.00896360478817199
0.83	-5.03696901827774	3.53963657581733	917.956108672813	5.03299734989059	13.5230364439444	1.11098598280236	-1.19073415452655	-0.00588471178974759	0.00902635053944145
0.84	-5.21937035410081	3.38198551227998	917.46274986882	5.26768149643869	13.5663704660039	1.12368886607796	-1.20372366130384	-0.0056232603553773	0.00908192116704548
0.85	-5.3609771940053	3.22413445973075	917.086481473221	5.50505934357975	13.5890307077675	1.13600332953368	-1.21609717331487	-0.00535949968101646	0.00911295107599813
0.86	-5.44283307931703	3.08319465411469	916.911348024065	5.75228419265262	13.5737784630841	1.14619918218561	-1.22616793375442	-0.00508633610776366	0.00909938932108367
0.87	-5.4482071583716	2.97097323882345	917.002022220728	6.01625164672581	13.5036905654038	1.15299204445233	-1.23262209808706	-0.00479687932293704	0.0090219259837333
0.88	-5.36565919672231	2.89139038519504	917.388639369178	6.30162765635942	13.3653198071806	1.15573221771441	-1.23470723201752	-0.0044864580677878	0.00886566179339071
0.89	-5.19187889847874	2.83961715133767	918.056659590129	6.60926656317891	13.1513387069112	1.15451739682351	-1.2323665848314	-0.00415422846543989	0.00862310280984896
0.9	-4.93308681979985	2.80321343532369	918.944493363122	6.9354741404015	12.861989095102	1.15019844109276	-1.22628045087238	-0.00380390546455134	0.00829570564021254
0.91	-4.60417070264491	2.76506624738512	919.949697358727	7.27235274697199	12.504973859849	1.14425537214387	-1.21778116964999	-0.00344337749165102	0.00789358052259675
0.92	-4.22559818192356	2.70747557624057	920.942470172059	7.60916035964748	12.0938616000136	1.13854140309463	-1.20863037472807	-0.00308328456360552	0.00743347077618273
0.93	-3.81908298271495	2.61643033874251	921.783584295613	7.93432525949066	11.6454937940552	1.1349258069542	-1.20068410242732	-0.00273494218577852	0.00693560768126367
0.94	-3.40352572523569	2.48504734440715	922.343206116644	8.23758434765769	11.1771471494801	1.13490346177563	-1.1955125493124	-0.00240817125874693	0.00642033063973979
0.95	-2.99263461823457	2.31533967458117	922.517372440058	8.51171169318935	10.7042184377552	1.13926508851867	-1.19406987321949	-0.00210958956777196	0.00590536316518797
0.96	-2.59491172509221	2.11789418902476	922.239971324094	8.753464379621	10.2389597100687	1.14792246040379	-1.19650996085864	-0.00184174585254449	0.00540434640952803
0.97	-2.21570212596642	1.90956334021264	921.489455478986	8.96362600476082	9.79038720225296	1.15995010729383	-1.20221034513765	-0.00160320699259242	0.00492676039886653
0.98	-1.86018237711363	1.70977001940425	920.290690648602	9.14627987093522	9.36506933893124	1.17384534911069	-1.2100059941286	-0.00138944249942075	0.00447888415781011
0.99	-1.53584320600724	1.53634967621206	918.712945060737	9.30761418481227	8.9682231239879	1.18794021223307	-1.21856693762504	-0.00119417191898097	0.00406513466863356
1	-1.25329478683476	1.40192767437837	916.864970552176	9.45461337783676	8.6045101162122	1.20084586594471	-1.2268027525766	-0.00101078811934507	0.00368908685840602
1.01	-1.0249383514253	1.31164578288525	914.887615239517	9.5939339831945	8.27812391375218	1.21179309231722	-1.23416246063436	-0.000833530587702414	0.00335370901920207
1.02	-0.86189676182211	1.26267757319205	912.943830507918	9.73114422340343	7.99210956168428	1.22076006456005	-1.24072824895771	-0.000658211786671914	0.00306074367216325
1.03	-0.770255121996903	1.24551965200365	911.205684004527	9.87037532512845	7.74720921577484	1.22834526898217	-1.24706838587826	-0.000482442698823138	0.00280956066322707
1.04	-0.747914696866789	1.24662981601492	909.838291541252	10.0143278064531	7.54075247794058	1.23542864324543	-1.25389809205072	-0.000305421666781269	0.0025960558035848
1.05	-0.783162524328613	1.25169499894096	908.981410215141	10.1645132971508	7.36612736916236	1.24273960739541	-1.26166889011884	-0.000127427293855731	0.00241218138812249
1.06	-0.855515905709544	1.24870557086801	908.730540757062	10.3215895597286	7.21318543117307	1.25048918317939	-1.27024064824599	5.08070984894804e-05	0.00224648549816975
1.07	-0.93872142117082	1.23010673114733	909.12038775711	10.4856545684485	7.06963142032417	1.25820793936463	-1.2787707287455	0.000228656675990035	0.00208569724814245
1.08	-1.00519558231526	1.19357515469512	910.114032191993	10.6563988438441	6.92313894450595	1.26486292791312	-1.28588368577976	0.00040595312760161	0.00191705454629543
1.09	-1.03086240282892	1.14137069827662	911.60089326701	10.8330712360725	6.76372027677961	1.26922554141346	-1.2900842276219	0.000583025457075448	0.0017308430286424
1.1	-0.999348876264624	1.07863546726648	913.40540105452	11.0142865396099	6.58581535054291	1.27036335672675	-1.29028063233183	0.00076043181993446	0.00152255752913
1.11	-0.904799001228722	1.01132407815144	915.30642840474	11.1977787813965	6.3896465719641	1.26807083757334	-1.28623245799451	0.000938484098245818	0.00129420182347684
1.12	-0.753008514028476	0.944530521875634	917.065352109457	11.3802573594792	6.1815630325312	1.26306330927805	-1.27874999240982	0.00111675278867918	0.00105444955032785
1.13	-0.560964821648887	0.88177705836938	918.458688862194	11.5575286120613	5.97330481991124	1.25683912717979	-1.26955441068387	0.00129377331541691	0.000817623654344402
1.14	-0.355045834393841	0.825404329338537	919.310103551067	11.7249879278474	5.78030311350495	1.25124101919949	-1.26083073822142	0.00146713261225295	0.000601653995803419
1.15	-0.168069351259083	0.777707418108725	919.516513407801	11.8784734575908	5.61927068992348	1.24787193754815	-1.25462463581354	0.00163399850224144	0.000425317421948235
1.16	-0.0352313938120592	0.742105296762997	919.063989013647	12.0153324105134	5.50543212520328	1.24759178982415	-1.25230068289066	0.00179199588663936	0.000305156616593527
1.17	0.0110493727704352	0.723576377621706	918.030883695057	12.135432359407	5.44980401695397	1.25030481894558	-1.25426396604039	0.0019401869678547	0.000252529017945868
1.18	-0.052911237945618	0.727886456156556	916.577678207206	12.2418011034209	5.45696363603207	1.2551424295052	-1.26004978207403	0.00207983446702409	0.000271258686633358
1.19	-0.236145979239731	0.759671561360399	914.925009587337	12.3406288169976	5.52372273805319	1.26098892863885	-1.26874254050349	0.00221465378888319	0.000356334636898326
