Time [s]	GRFml [N]	GRFap [N]	GRFv [N]	Mml [N.m]	Map [N.m]	Mv [N.m]	Mfree [N.m]	COPml [m]	COPap [m]
0.01	15.8478007041458	-2.64146325331924	581.561844277696	-23.5923593118434	-5.52728289249694	0.544770876529609	1.1625580388023	0.000755970805147638	0.00213184935216008
0.02	15.7781134759121	-2.76836263914645	582.010376027585	-23.5579700508035	-5.5681495374377	0.605956049183711	1.2181524209941	0.000693284879934674	0.00203873990263755
0.03	15.7120569265493	-2.89233858783601	582.469600198806	-23.5250440165204	-5.60951425200932	0.664998796886895	1.27179689877932	0.000630156943123836	0.00194707989201994
0.04	15.6520600390184	-3.01080434451188	582.941058118571	-23.4951909140064	-5.65138642915867	0.720339154775751	1.32209523135775	0.000566593677146333	0.00185952409955146
0.05	15.6002673025768	-3.12143308692503	583.425665979619	-23.4699764841758	-5.69375546901118	0.77057187444161	1.36779081966283	0.000502626924135849	0.00177869387791891
0.06	15.55841668062	-3.22226283188888	583.923396385215	-23.4508517816397	-5.73657274387547	0.814517272935864	1.40783055098158	0.000438337475274848	0.00170707986834066
0.07	15.5277454399401	-3.31177757352523	584.433028613062	-23.4390896138494	-5.77973739741601	0.851278613561721	1.44141673741407	0.0003738724705601	0.00164695345889711
0.08	15.508930079732	-3.38896004182214	584.951991289218	-23.4357313360579	-5.8230873848955	0.880282591426257	1.46804395889832	0.000309455040981954	0.00160028987970599
0.09	15.5020637057882	-3.45331382331934	585.476313294343	-23.4415462643864	-5.86639662653984	0.901300799768344	1.48751877358922	0.000245385678430798	0.00156870473123415
0.1	15.5066712171512	-3.50485500941875	586.00068966353	-23.457004967121	-5.90937857076953	0.914451431158127	1.4999615035511	0.000182035579469201	0.00155340483080563
0.11	15.5217598659009	-3.54407581361935	586.518659718441	-23.4822667138949	-5.95169590051542	0.920181807229189	1.50579053566421	0.000119832822208319	0.00155515359165308
0.12	15.5459003222263	-3.57188453820839	587.022885429705	-23.5171804828385	-5.99297560798815	0.919233536327623	1.50569070297994	5.9242681462738e-05	0.00157425071719097
0.13	15.5773314773783	-3.5895277266298	587.505509767781	-23.5612982091218	-6.03282824554935	0.912593096846954	1.50056825550449	7.43673126796587e-07	0.00161052575941718
0.14	15.614080940353	-3.5985012135782	587.958568212364	-23.6138984459225	-6.07086985710108	0.901431385285353	1.49149563860918	-5.51989332806084e-05	0.00166334499303327
0.15	15.6540925686133	-3.60045704018357	588.374422189056	-23.6740183194729	-6.1067449197404	0.887036226313948	1.47964974260206	-0.000108160357126928	0.00173163103190055
0.16	15.6953524062809	-3.59711285216312	588.746181361274	-23.7404915895691	-6.14014858336571	0.870742013942719	1.46624746207819	-0.00015778257461045	0.0018138946074903
0.17	15.7360050282773	-3.59016951284565	589.068082601266	-23.8119907509455	-6.17084658119179	0.853860554478221	1.45248232264429	-0.000203797996008153	0.00190827790138687
0.18	15.7744534134632	-3.58124135353597	589.33579705047	-23.8870713870291	-6.19869138323717	0.837616845618595	1.43946562627688	-0.000246049104693905	0.00201260875261777
0.19	15.8094369756006	-3.5718018969973	589.546642683078	-23.9642173611084	-6.22363345753272	0.82309299561568	1.42817507763586	-0.000284502828682712	0.00212446493422948
0.2	15.8400841341591	-3.56314619112944	589.699687721342	-24.0418858396235	-6.24572686477674	0.811182813010285	1.41941323177308	-0.00031925868094009	0.00224124750716116
0.21	15.8659376687746	-3.55636924783926	589.79573945347	-24.1185515266962	-6.26512881302586	0.802558834940149	1.4137774007195	-0.000350550014653658	0.0023602620104476
0.22	15.8869529376195	-3.55235865289341	589.837222687145	-24.1927497929303	-6.2820932102483	0.797652763385343	1.41164192241425	-0.00037873808855457	0.00247880593317493
0.23	15.9034707306954	-3.55179832563919	589.827961388449	-24.2631185616839	-6.29695864553749	0.796649492762361	1.41315297533701	-0.000404299015174876	0.00259426053551669
0.24	15.916167974504	-3.5551797536493	589.772885178056	-24.3284388458982	-6.31013157858033	0.79949418127055	1.41823545381465	-0.000427804056502593	0.00270418464937792
0.25	15.9259906308541	-3.56281685062025	589.677688545155	-24.3876737015278	-6.32206580002246	0.805911176463971	1.42661083175032	-0.000449894116923973	0.0028064076097555
0.26	15.9340738946356	-3.57486087996313	589.548474313642	-24.4400050942577	-6.33323942670427	0.815433077853609	1.43782445730373	-0.000471249639029545	0.00289911797633233
0.27	15.9416551773874	-3.59131259627467	589.391413686621	-24.4848677995122	-6.34413080582661	0.827437822060257	1.45128035049039	-0.000492557408371693	0.00298094424788475
0.28	15.9499853772167	-3.61202978436406	589.212452986503	-24.521979024254	-6.35519471823442	0.841191416643896	1.46628132517106	-0.000514475993773347	0.00305102341194723
0.29	15.9602436168854	-3.63672959065463	589.017092148512	-24.5513620177278	-6.36684019716775	0.855893827000901	1.4820721258706	-0.000537601669003325	0.00310905298180258
0.3	15.9734600353098	-3.6649862961171	588.810252525748	-24.5733615980989	-6.37941112512967	0.870725529836781	1.49788325304509	-0.000562436664890996	0.00315532222820306
0.31	15.9904504106655	-3.69622632229132	588.596242267398	-24.588649332283	-6.39317055315864	0.884892374599764	1.51297323920276	-0.00058936148303337	0.00319071868299256
0.32	16.0117654492821	-3.72972315464027	588.378817264233	-24.5982161270862	-6.40828942269023	0.897666624847884	1.52666732181987	-0.000618612769311926	0.00321670672610103
0.33	16.0376565669623	-3.76459540072005	588.161325359075	-24.6033502641654	-6.42484008136485	0.908422366050831	1.53839072494724	-0.000650267915484301	0.00323527618684578
0.34	16.0680589860303	-3.79981130455471	587.946912172146	-24.6055994592678	-6.4427946919477	0.916663844422921	1.54769509639067	-0.000684237158581708	0.00324886037760016
0.35	16.1025920300459	-3.83420269076597	587.738759419945	-24.6067163403622	-6.4620283579788	0.922045722012031	1.5542770369686	-0.000720263516269961	0.00326022477213682
0.36	16.1405756635564	-3.86649054006674	587.540321803747	-24.6085877830196	-6.48232654798061	0.924384675527353	1.55798808697736	-0.000757930469538294	0.00327232953870973
0.37	16.1810616270899	-3.89532327657883	587.355526989714	-24.6131497497372	-6.50339620505031	0.923662210148418	1.55883598544239	-0.000796676916610787	0.00328817119790446
0.38	16.2228769743024	-3.9193274913335	587.188905201304	-24.6222905632276	-6.52487978863638	0.92001898600379	1.55697747105068	-0.000835818599917831	0.00331061062908001
0.39	16.2646774325158	-3.93716937680311	587.045620484098	-24.6377467942469	-6.54637141332617	0.913741347085967	1.55270332920636	-0.000874574965248225	0.00334219631635621
0.4	16.3050077730506	-3.94762375835531	586.931384438591	-24.6609970452334	-6.56743422379318	0.905241085168158	1.54641678567168	-0.000912100249258413	0.00338499293072202
0.41	16.3423662793366	-3.94964643047794	586.852244483831	-24.6931597459394	-6.58761816980037	0.895029752360849	1.53860668195835	-0.000947517496748203	0.0034404259383344
0.42	16.3752704196682	-3.94244466978895	586.814251573047	-24.7349015428134	-6.60647741143119	0.883689045572176	1.5298171207621	-0.000979954163052027	0.00350915279725238
0.43	16.4023209468904	-3.92554040209215	586.823025584968	-24.7863628798979	-6.62358668188418	0.87183891752863	1.52061542443146	-0.001008577938243	0.00359097040168694
0.44	16.4222618394759	-3.8988206035385	586.88324910399	-24.8471068880779	-6.63855605214566	0.860105118461094	1.51156029419184	-0.00103263142216502	0.00368476676412852
0.45	16.4340337507271	-3.86257012468685	586.998130723143	-24.9160967141217	-6.65104366830541	0.849087839521089	1.50317198804427	-0.00105146427671881	0.0037885225674948
0.46	16.4368189330712	-3.81748320032234	587.168886222244	-24.9917049671324	-6.66076615947931	0.839333016136792	1.49590615445829	-0.00106456149215194	0.00389936531014322
0.47	16.430075945403	-3.76465136159953	587.394289094715	-25.0717571170281	-6.66750653567174	0.831307662756106	1.49013267916945	-0.00107156644824344	0.00401367549719201
0.48	16.4135628303496	-3.70552717797113	587.670340365405	-25.1536085655534	-6.67111950614535	0.825380358874714	1.48612054347437	-0.00107229755849801	0.00412724093107434
0.49	16.3873478651931	-3.64186507702915	587.990101317381	-25.2342528736077	-6.67153424771695	0.821807702135429	1.48402928073633	-0.00106675748527638	0.00423545187174526
0.5	16.3518074456485	-3.57564226259124	588.34372193896	-25.3104564366737	-6.6687547381872	0.820727202692197	1.48390718386447	-0.00105513422623966	0.00433352692215361
0.51	16.3076111544744	-3.50896432101311	588.718683369125	-25.378912925068	-6.66285784311	0.822156731436892	1.48569599206256	-0.00103779379942341	0.00441675717780184
0.52	16.2556945913468	-3.44396133709938	589.100255510254	-25.436409209821	-6.65398940492131	0.826000272257626	1.48924140004643	-0.00101526477412124	0.00448075465248367
0.53	16.1972210844714	-3.38268112897032	589.472152741878	-25.4799934158338	-6.64235863250136	0.832059385134303	1.49430841231706	-0.000988215462698673	0.00452169039259447
0.54	16.1335339482248	-3.32698649016002	589.817352929534	-25.5071352818192	-6.62823112644081	0.840049482063282	1.50060032704432	-0.000957425142233499	0.00453650808834084
0.55	16.0661014667999	-3.27846307593923	590.119029320022	-25.5158692145062	-6.61192089985822	0.849619769349084	1.50777998852084	-0.000923751145300919	0.00452310037326627
0.56	15.9964572363691	-3.23834381363329	590.361532950719	-25.5049113028784	-6.59378176520057	0.86037553259721	1.51549189557438	-0.000888093982705574	0.00448043728559806
0.57	15.9261388478948	-3.20745452005453	590.531356089113	-25.473743052993	-6.5741984523132	0.871901345629668	1.52338379018426	-0.000851362791169839	0.00440863938255282
0.58	15.8566280987891	-3.18618387514786	590.618005757433	-25.422656611046	-6.55357780047828	0.883783777418306	1.53112646494222	-0.000814443314939945	0.00430899152503456
0.59	15.7892959476423	-3.17447915762746	590.614720882208	-25.3527586157303	-6.5323403259215	0.895632252366913	1.53843070596515	-0.000778170339350464	0.00418389711364547
0.6	15.7253552454543	-3.17186733835155	590.518976793717	-25.2659323846793	-6.51091240640907	0.907096883550522	1.5450605144156	-0.000743306030100579	0.00403677626576201
0.61	15.6658238774366	-3.17749939510868	590.332735910566	-25.1647607032492	-6.48971924756724	0.917882335063376	1.55084201033633	-0.000710525047508462	0.00387191479246274
0.62	15.6115003388864	-3.19021419278431	590.062422240458	-25.0524138578322	-6.46917870505267	0.927757062843636	1.55566770352553	-0.000680406664347124	0.00369427361174825
0.63	15.5629529754412	-3.20861707849531	589.718618216305	-24.9325095687197	-6.44969593846547	0.936557613802931	1.55949610502166	-0.000653433484700186	0.00350927022618162
0.64	15.520523191728	-3.23116755462065	589.315503566335	-24.8089529895595	-6.43165877474283	0.944188008752156	1.56234693700599	-0.000629995799035405	0.00332254497854582
0.65	15.4843419404345	-3.25627005930458	588.870075546716	-24.6857658553495	-6.41543357003934	0.950614572228648	1.56429246561014	-0.000610400164931246	0.00313972494169196
0.66	15.4543578261142	-3.28236200990463	588.401206237221	-24.5669141328769	-6.40136128982005	0.955856878921727	1.56544571636294	-0.000594880506289013	0.00296619754570102
0.67	15.4303742796665	-3.30799381709789	587.928604299855	-24.4561431638829	-6.3897534866921	0.95997574080483	1.56594652134213	-0.000583609893560419	0.00280690451964465
0.68	15.4120925621041	-3.33189648856524	587.47175463931	-24.3568283501341	-6.38088785237645	0.963059343472165	1.56594647653	-0.000576711206173237	0.00266616460923792
0.69	15.3991569093983	-3.35303361693478	587.048909314376	-24.2718480130797	-6.37500305934922	0.965208741412049	1.56559394567287	-0.000574265076126715	0.00254753104681515
0.7	15.3911979831666	-3.37063587528792	586.676196924559	-24.2034833042732	-6.37229269041401	0.96652393275647	1.56502022564173	-0.000576313848698991	0.00245368713235775
0.71	15.3878709675088	-3.38421750702762	586.366906179581	-24.1533481017181	-6.37289817769481	0.967091653804066	1.56432788645907	-0.000582860744443225	0.00238638076068601
0.72	15.3888851431123	-3.3935755821023	586.130983578955	-24.1223498628229	-6.37690082851758	0.966975868633154	1.56358212250137	-0.000593863932115473	0.00234639649696188
0.73	15.394022537932	-3.39877390015273	585.974766584304	-24.1106805689415	-6.38431319231963	0.966211692336252	1.56280571281225	-0.00060922578628601	0.00233356201005085
0.74	15.4031442337716	-3.40011427766058	585.900954082543	-24.1178353200432	-6.39507020455138	0.964803196430441	1.56197790703168	-0.000628778164461066	0.0023467844135223
0.75	15.4161840129921	-3.39809851330461	585.908797093249	-24.1426549193466	-6.40902071273782	0.962725224593799	1.5610372523819	-0.000652265053539974	0.00238411136864278
0.76	15.4331301597072	-3.39338456638006	585.99447623252	-24.1833879863024	-6.42592012801048	0.959929020993417	1.55988808122057	-0.000679324362082052	0.00244281164601452
0.77	15.4539972833585	-3.3867404194248	586.151619798758	-24.2377677698097	-6.44542503516049	0.956351167036167	1.5584101114334	-0.000709470934373027	0.00251947014623398
0.78	15.4787909160719	-3.37899876570134	586.371908482337	-24.3030988789921	-6.46709062115169	0.951925058149161	1.55647039328921	-0.000742083002487882	0.00261009303191213
0.79	15.5074682732678	-3.37101512214649	586.645710123626	-24.3763495474839	-6.49037173616402	0.946593948918153	1.55393668077284	-0.000776394251150852	0.0027102194889598
0.8	15.5398989093386	-3.36363128866655	586.962690633807	-24.4542457126329	-6.51462827859592	0.940324465946954	1.55069122093793	-0.00081149343774854	0.00281503757430479
0.81	15.575829025627	-3.35764533019589	587.312354628582	-24.5333640197458	-6.53913539875028	0.933119440424289	1.54664394315962	-0.000846333091983361	0.00291950249021457
0.82	15.6148529047337	-3.35378852162033	587.684480550322	-24.6102217442345	-6.56309875481373	0.925028947676809	1.54174408725936	-0.000879748238119631	0.00301845634468784
0.83	15.6563943883877	-3.35270903189359	588.069428789625	-24.6813624577374	-6.58567474531714	0.916158554267503	1.53598942669557	-0.000910485375092269	0.00310674893677599
0.84	15.6997005420763	-3.35496158331852	588.458316099165	-24.7434369602942	-6.60599530591435	0.906673954853802	1.52943240858712	-0.000937241167216588	0.00317935930471165
0.85	15.7438487290887	-3.36100193897141	588.843063928079	-24.793279495507	-6.62319651993524	0.896801417565643	1.52218273275268	-0.000958709502392683	0.00323151768867789
0.86	15.787767327032	-3.37118486112862	589.216340822847	-24.8279795239722	-6.63644997804164	0.88682373190797	1.51440611325351	-0.000973634832324774	0.00325882721649984
0.87	15.830269338126	-3.38576414382626	589.571428623587	-24.8449493469858	-6.64499555780304	0.877071649391445	1.50631919475957	-0.000980869086337098	0.00325738407308216
0.88	15.8700972406107	-3.40489343513714	589.902048070227	-24.8419876709323	-6.6481741013357	0.867911106051388	1.4981808204103	-0.000979429005351137	0.00322389423509316
0.89	15.9059766605034	-3.42862679919779	590.20218126981	-24.817338830018	-6.64545836543838	0.859726800064302	1.49028005750904	-0.000968550519975638	0.00315578412378208
0.9	15.9366758537648	-3.45691828696996	590.465926335645	-24.7697469053305	-6.63648061443788	0.852902950536061	1.48292157411871	-0.000947736821406154	0.0030513018365973
0.91	15.9610676052429	-3.48962014830468	590.687413850869	-24.6985034647632	-6.6210553242081	0.847802271011961	1.47640911696284	-0.000916797047749402	0.00290960504473532
0.92	15.9781899828566	-3.52647968832092	590.860806407589	-24.6034871749588	-6.59919566168467	0.844744341733262	1.4710279639468	-0.000875873009234245	0.0027308312622026
0.93	15.9873024289556	-3.5671351162127	590.980392315966	-24.4851931698376	-6.57112268535279	0.84398464948339	1.46702730899019	-0.000825452059452635	0.00251614606201453
0.94	15.9879339090879	-3.61111102980208	591.04077374931	-24.3447498539096	-6.5372665599248	0.845695577591841	1.46460357905532	-0.000766365025539962	0.00226776497873194
0.95	15.9799202458458	-3.65781440818348	591.037139154354	-24.1839208082805	-6.49825946927857	0.849950569265029	1.46388567982976	-0.00069976896814793	0.00198894531486057
0.96	15.9634283104827	-3.7065321389884	590.96560064612	-24.0050896692686	-6.45492031953222	0.856712556412384	1.46492311431361	-0.000627115381701454	0.00168394486035666
0.97	15.9389653931011	-3.75643118350235	590.823570051203	-23.8112262606887	-6.40823172232042	0.865827548689238	1.46767781515579	-0.000550105203973975	0.00135794561539968
0.98	15.907372788595	-3.8065624834235	590.610142727578	-23.6058328605958	-6.35931011224099	0.877024022354055	1.4720203760936	-0.000470632633008009	0.00101694193125791
0.99	15.8698033868807	-3.85586964070036	590.326456460241	-23.3928702373058	-6.30937016130923	0.889918447930502	1.47773116192683	-0.000390720218792944	0.00066759398918384
1	15.8276838117146	-3.90320326006831	589.975993531923	-23.176663953948	-6.25968489184248	0.904026964794673	1.48450652528885	-0.000312447996315307	0.000317049146488967
1.01	15.7826623850329	-3.94734163528923	589.564797196437	-22.9617923667768	-6.21154304867182	0.918782867282611	1.49197007156895	-0.000237879562798523	-2.72646915527239e-05
1.02	15.7365448784572	-3.98701818648026	589.101578777772	-22.752958680084	-6.16620536973966	0.933559229861552	1.49968860485619	-0.000168987996128632	-0.000357867951321693
1.03	15.6912206275128	-4.02095571905577	588.597697932199	-22.5548503222442	-6.12486139490713	0.947695687919232	1.50719207628397	-0.000107584393109421	-0.000667473383752143
1.04	15.6485821053995	-4.04790717803858	588.067005679887	-22.3719897300598	-6.08858838507449	0.960528124657348	1.5139965636689	-5.52516075696223e-05	-0.000949236841400899
1.05	15.6104414604855	-4.06670212184247	587.525547122866	-22.2085813346534	-6.05831379985011	0.971419810312609	1.51962906167912	-1.32855191566448e-05	-0.00119700561134523
1.06	15.5784477942672	-4.07629764993314	586.991127900583	-22.0683600998876	-6.03478261595661	0.979792411186554	1.52365267834363	1.73541133210008e-05	-0.0014055545235804
1.07	15.5540090749642	-4.07583200943185	586.482755099046	-21.9544473471114	-6.01853057413557	0.98515524224858	1.52569073694915	3.60814519069809e-05	-0.00157079989242721
1.08	15.5382225298962	-4.06467860552508	586.01996935727	-21.8692197857287	-6.00986423157139	0.987131182914834	1.52544828708029	4.270957525912e-05	-0.00168998160407947
1.09	15.5318171262684	-4.04249768632653	585.62209024616	-21.8141976390114	-6.0088484790042	0.985477810154935	1.52272964165261	3.74615377659732e-05	-0.00176180434850384
1.1	15.5351113314174	-4.00928260779974	585.307401643495	-21.7899574932653	-6.01530196253778	0.980102520153051	1.51745077564716	2.09667208187162e-05	-0.00178653010244996
1.11	15.5479887458229	-3.96539735501823	585.092307834881	-21.7960749938283	-6.02880063212944	0.971070698275775	1.50964573410849	-5.75787988442086e-06	-0.00176601547798343
1.12	15.5698934418232	-3.91160194812272	584.990494453681	-21.8311017558693	-6.0486894216578	0.958606341923727	1.49946657945146	-4.13413034982719e-05	-0.00170368941548285
1.13	15.5998459456156	-3.84906253480925	585.012131088909	-21.8925798503706	-6.07410184749454	0.943084923778863	1.48717683107413	-8.41065247910427e-05	-0.00160446886326534
1.14	15.6364798079525	-3.77934339507549	585.163154302139	-21.9770959738038	-6.10398709157835	0.925018683926813	1.47313877863629	-0.000132131300266	-0.00147461247700101
1.15	15.6780976672817	-3.70437877137687	585.44467066346	-22.0803759335469	-6.13714391006173	0.905034937489845	1.45779544789243	-0.000183319995868122	-0.00132151491108209
1.16	15.7227446721161	-3.62642338130997	585.852518913082	-22.1974184145281	-6.17226048075612	0.883848359170916	1.44164833132249	-0.000235483784632812	-0.00115344687608812
1.17	15.7682961552923	-3.54798164050427	586.377028096	-22.3226651874362	-6.2079590757448	0.862228538060104	1.42523223845474	-0.000286426024011032	-0.000979248713314361
