Time [s]	GRFml [N]	GRFap [N]	GRFv [N]	Mml [N.m]	Map [N.m]	Mv [N.m]	Mfree [N.m]	COPml [m]	COPap [m]
0.01	20.1613739321602	-4.87141379074076	660.11714487418	-57.7530957482992	-4.73988915310679	-1.755018844896	-0.0263350738798068	-0.000570355291073027	0.00141945646780528
0.02	19.7286611259503	-4.70516536638008	662.183786755706	-57.9148670446539	-4.58588992479878	-1.64557984852716	0.0470942821810175	-0.000319477179933815	0.00138655269288729
0.03	19.2995146891242	-4.54053547426937	664.217529012172	-58.0756866313212	-4.43944465949146	-1.53711059340506	0.119792710412731	-8.03956334153727e-05	0.00135631972735256
0.04	18.8798717225446	-4.37953974442456	666.183147003447	-58.2339209783737	-4.30496857347637	-1.43116359583038	0.190727387274984	0.000140030389073917	0.00133090460201811
0.05	18.4754178404125	-4.22400570148726	668.046821112351	-58.3879338717932	-4.18623379811489	-1.32923641327374	0.258903125474065	0.000335957886641451	0.00131230077615861
0.06	18.0914337424673	-4.07551673425795	669.777288864547	-58.5361109386692	-4.08614863456301	-1.23273088560722	0.323388387371511	0.000502872034719727	0.00130222665698924
0.07	17.7326596238944	-3.93536983207746	671.346928045549	-58.6768926056834	-4.0065946258898	-1.14291588591313	0.383339298118142	0.000637809087453062	0.00130202206639153
0.08	17.4031810914914	-3.80454859664913	672.732727636767	-58.8088155592867	-3.94833359383757	-1.06089462160725	0.438021101808651	0.000739477481191074	0.00131257026851289
0.09	17.1063389815331	-3.68371190289229	673.917105725348	-58.9305612941605	-3.9109913589183	-0.987577326261952	0.486826540429728	0.000808271943295583	0.00133425100987047
0.1	16.8446642623677	-3.57319751320049	674.888537647342	-59.0410089294446	-3.893118968494	-0.923659977712572	0.529290671564549	0.000846182370408194	0.00136692737404005
0.11	16.6198381554994	-3.47303905272754	675.64196353539	-59.1392882996382	-3.89232637361251	-0.869609480441222	0.565101687389801	0.000856605576459498	0.00140996631251904
0.12	16.4326767934783	-3.38299410630676	676.178952082296	-59.2248285167161	-3.90547807532339	-0.825655568119965	0.594107362956555	0.000844073574783771	0.00146228972002516
0.13	16.2831391815499	-3.30258084071916	676.507606521928	-59.2973968429709	-3.92893570917844	-0.791789519190568	0.616316851112608	0.000813916777200972	0.0015224501544821
0.14	16.1703569304502	-3.23112049035538	676.642209295442	-59.3571228614451	-3.95882918239742	-0.76776963324061	0.631897655926437	0.00077188429572129	0.00158872305971341
0.15	16.0926841296336	-3.16778323440317	676.6026132468	-59.4045035911951	-3.9913360564945	-0.753133283354696	0.641167754068242	0.000723746301193979	0.00165920592003793
0.16	16.0477657552535	-3.11163537481935	676.413399015393	-59.4403863336086	-4.02294850414562	-0.747215231562297	0.644582990002792	0.000674904940905843	0.00173191438703159
0.17	16.0326230628684	-3.06168621319269	676.102830013979	-59.4659275777658	-4.05070837090216	-0.749171762243521	0.642720040505925	0.000630040404621335	0.00180486618328325
0.18	16.0437544098686	-3.01693353162538	675.701647369984	-59.482528124634	-4.07239353189279	-0.75801004456705	0.636255420656011	0.000592817113616197	0.00187614546467692
0.19	16.0772498118415	-2.97640702457212	675.241756792758	-59.4917465695076	-4.08664263528819	-0.772621975762815	0.62594117996981	0.000565671517166738	0.00194394309691996
0.2	16.1289172135371	-2.93920933874908	674.754866829112	-59.4951952482101	-4.09301016146546	-0.791821583195012	0.612578105281294	0.000549697592443681	0.00200657160151822
0.21	16.1944179379094	-2.90455451522769	674.271142754925	-59.4944245373574	-4.09194912512614	-0.814384881408197	0.596987395970308	0.000544639051039217	0.00206245687474169
0.22	16.2694080939795	-2.8718035793512	673.817941903702	-59.4908028419892	-4.08472429307192	-0.839090902827517	0.579981895134484	0.000548988906816426	0.00211011168366262
0.23	16.3496819406441	-2.84049680757329	673.418694206352	-59.4854005659305	-4.07326406035454	-0.864762464563985	0.562338034464837	0.000560188147844435	0.00214809797715859
0.24	16.431312413074	-2.81038185981596	673.091985982316	-59.4788867359345	-4.05996372271094	-0.890305118702623	0.544769669455994	0.000574906652502425	0.00217498596362804
0.25	16.5107833335479	-2.78143656634311	672.850895702915	-59.4714466780886	-4.0474564574002	-0.914742679976175	0.527904937449828	0.00058938213686267	0.00218931766671922
0.26	16.5851073672073	-2.75388477711332	672.70261792336	-59.4627282119514	-4.0383706108375	-0.937247751126202	0.512267161979352	0.00059978768281057	0.00218958146088712
0.27	16.651923654127	-2.72820340046416	672.648396471674	-59.4518222737654	-4.03509272216872	-0.957165785973868	0.498260657653461	0.000602595920338338	0.00217420225952858
0.28	16.7095693386775	-2.70511865233927	672.683771114953	-59.4372817934174	-4.03955503149289	-0.974031449629338	0.486162070841169	0.000594908536143426	0.00214154999540826
0.29	16.7571199778299	-2.68558966770731	672.799124269997	-59.417180162173	-4.05306409028567	-0.987576352108916	0.47611763656113	0.000574723377723374	0.0020899671650324
0.3	16.7943950517876	-2.67077802991621	672.980496945703	-59.3892079051071	-4.07618368163291	-0.997727634416754	0.468146455756564	0.000541117567212076	0.0020178147343527
0.31	16.8219264860415	-2.66200245969985	673.210627078018	-59.350803401725	-4.10868083937059	-1.00459735453137	0.462149612405544	0.000494332990750906	0.00192353466595745
0.32	16.8408901392518	-2.66067884845424	673.470149777203	-59.2993108788313	-4.14953867591542	-1.00846312679846	0.45792466715011	0.000435759383963349	0.00180572660177331
0.33	16.8530024889555	-2.66824696145776	673.738888676142	-59.2321566265647	-4.1970343870194	-1.00974097856411	0.455184792306486	0.000367819071330123	0.00166323559646005
0.34	16.8603870954289	-2.68608638634031	673.997161306238	-59.1470326408635	-4.24887561645293	-1.00895186623447	0.453581561759517	0.000293765425411237	0.00149524702540815
0.35	16.8654176599046	-2.71542554665864	674.227019775147	-59.0420758237216	-4.3023837408255	-1.00668370317791	0.452730190429179	0.000217413673799633	0.00130138377043992
0.36	16.8705464272417	-2.75724871235798	674.413351256461	-58.9160305859767	-4.35470893639373	-1.00355106098512	0.452235847277006	0.000142827408219427	0.00108179956455365
0.37	16.8781281362033	-2.81220678948235	674.544770904334	-58.7683832547481	-4.4030594053085	-1.00015488652307	0.451719561318138	7.39868667323845e-05	0.000837261176238974
0.38	16.8902505412607	-2.88053814494149	674.614252433429	-58.5994580893087	-4.44492606248847	-0.997044611290044	0.450842219844821	1.44657622311722e-05	0.000569211278748025
0.39	16.9085826094336	-2.96200572938189	674.619458088478	-58.4104668930665	-4.47828439950209	-0.994684908312542	0.449325236215661	-3.28577709608783e-05	0.000279803753902602
0.4	16.9342507796834	-3.05585625173546	674.562749095224	-58.2035070515772	-4.50175711413803	-0.993429077955008	0.44696664759476	-6.60334668141282e-05	-2.80958843482532e-05
0.41	16.9677521683189	-3.16080612915204	674.45087870543	-57.9815061472166	-4.51472427418079	-0.993500631678765	0.443651686798731	-8.41962398848584e-05	-0.000350950180015422
0.42	17.0089113833931	-3.2750574323265	674.29439121034	-57.7481148754855	-4.51737201815715	-0.994984116826106	0.439357240876239	-8.76359878741288e-05	-0.000684631663494098
0.43	17.0568848065906	-3.39634516346363	674.106770304029	-57.5075535620652	-4.51067574774677	-0.997825619903214	0.434150034871296	-7.77739766958637e-05	-0.00102454535581517
0.44	17.1102129972389	-3.52201507774512	673.903397467011	-57.2644208903642	-4.49631904247499	-1.0018427414354	0.428178826351524	-5.7047089847005e-05	-0.00136578623832601
0.45	17.1669184934553	-3.64912905327802	673.700394300743	-57.0234762447915	-4.47655470782191	-1.00674319711196	0.421661324139863	-2.87085150388168e-05	-0.00170332254899169
0.46	17.2246429762301	-3.77459290668163	673.513430931096	-56.789409136446	-4.45401904109151	-1.01215061323576	0.414866913489283	3.43970876445603e-06	-0.00203219317414118
0.47	17.2808147735556	-3.89529971628025	673.356585028961	-56.5666103373977	-4.4315141934633	-1.01763559244908	0.408096546279124	3.53610395287017e-05	-0.00234770608839463
0.48	17.332835248477	-4.00828030805087	673.24133240825	-56.3589595044415	-4.41177611915376	-1.02274976544969	0.401661316419059	6.31202107538777e-05	-0.00264562485056405
0.49	17.3782709386073	-4.110851704381	673.175740745155	-56.1696431938988	-4.39724682424419	-1.02706034425862	0.395861279160343	8.32128314276325e-05	-0.00292233143355446
0.5	17.4150375469068	-4.20075411319202	673.163923345831	-56.00101530246	-4.38986935874953	-1.03018266971186	0.390965993941891	9.28614265614585e-05	-0.0031749558052263
0.51	17.4415621132737	-4.27626747743705	673.205791091359	-55.8545092344283	-4.39092225358933	-1.031808404619	0.387198090208384	9.02531915866461e-05	-0.00340146525631263
0.52	17.456910940838	-4.33629969434154	673.297119041058	-55.7306076758725	-4.40090702309771	-1.0317273554189	0.384720896890026	7.46995958229666e-05	-0.00360070910369999
0.53	17.4608730510279	-4.38044028348876	673.429921224751	-55.6288719845222	-4.41949817323761	-1.02984138698097	0.383630862438702	4.67045702805848e-05	-0.00377241683621915
0.54	17.4539919641684	-4.4089754231768	673.593104552636	-55.5480291484601	-4.44556020275883	-1.02616949345384	0.383955144324461	7.93569584675666e-06	-0.00391714995328761
0.55	17.4375422467243	-4.42286274033152	673.773352158953	-55.4861103105302	-4.4772307481396	-1.02084375922384	0.385654381990461	-3.88991796542509e-05	-0.00403620977090891
0.56	17.4134512765384	-4.42366686053672	673.95616939047	-55.4406312794092	-4.51206372404049	-1.01409663818566	0.388630300883036	-9.02598584233121e-05	-0.00413150550658577
0.57	17.3841707605216	-4.4134593181653	674.127013343129	-55.4088025104371	-4.54722146891718	-1.00624064405369	0.392737444012833	-0.000142049632233458	-0.00420538914082989
0.58	17.3525063865686	-4.39468880870828	674.272420308671	-55.3877539566327	-4.57970090628315	-0.997642128183532	0.397798012086321	-0.000189937359088946	-0.00426046589024204
0.59	17.3214173027655	-4.37002976583931	674.381045289164	-55.3747591226076	-4.60657589755889	-0.988691278646871	0.403618538331351	-0.000229700799260545	-0.00429939143344844
0.6	17.2937996248876	-4.34221871992936	674.444533990474	-55.3674426906634	-4.62523652441892	-0.979770768633865	0.410006956330944	-0.000257564834494859	-0.00432466895721387
0.61	17.2722696660194	-4.31388873490232	674.45816005722	-55.363957239318	-4.63360612048369	-0.97122558939076	0.416788562358045	-0.000270508669311531	-0.00433846020032193
0.62	17.258962922526	-4.28741236416767	674.421177931208	-55.3631167674749	-4.63031847860368	-0.963336512863877	0.423819443747867	-0.000266518351972768	-0.00434242456681386
0.63	17.2553639886259	-4.2647630021247	674.336863344501	-55.364477820759	-4.61484067516435	-0.956299347250182	0.430996145282356	-0.000244764787668892	-0.0043375988176003
0.64	17.2621805507625	-4.24740327544359	674.212237492314	-55.3683627690593	-4.58753114906306	-0.95021169492749	0.438260665328431	-0.000205692636814516	-0.00432432684201113
0.65	17.2792715675616	-4.23620730683545	674.057495533923	-55.3758239316129	-4.54962772748607	-0.945068330447505	0.445600287154293	-0.000151011836224239	-0.00430224485238641
0.66	17.3056358879664	-4.23142142394853	673.885183317681	-55.3885514815575	-4.50316581017214	-0.940765631157942	0.453042221155798	-8.35906199352062e-05	-0.00427032256829508
0.67	17.3394631813534	-4.23266533927509	673.709186263479	-55.4087320717961	-4.45083247538133	-0.937114767016943	0.460643515626377	-7.25642913713877e-06	-0.00422695622650038
0.68	17.3782444751022	-4.23897317371847	673.543609533666	-55.4388686122177	-4.39576741515338	-0.933862645461374	0.468477139649416	7.3481530594055e-05	-0.00417010521723969
0.69	17.4189351619512	-4.24887112098861	673.401637720179	-55.4815743406263	-4.34132593412221	-0.930718967433842	0.476615507379511	0.000153767698480988	-0.0040974612938479
0.7	17.4581593881979	-4.26048622644306	673.294464490231	-55.5393560738282	-4.29082240592107	-0.927387232662592	0.485112962999218	0.000228767886816882	-0.00400663785051729
0.71	17.4924415669726	-4.27167883387476	673.230377733487	-55.6144021850184	-4.24727431413948	-0.923597178009045	0.493988858063825	0.000294040365734583	-0.00389536662932191
0.72	17.5184486235311	-4.28018985591475	673.214074079943	-55.7083903962079	-4.2131671613917	-0.919135971978447	0.503212821783177	0.000345880411476224	-0.00376169006738521
0.73	17.5332256403782	-4.28379322766473	673.246259092297	-55.8223289508885	-4.19025908383201	-0.913875536554788	0.512693659465775	0.000381610092678019	-0.00360413886108017
0.74	17.5344079079424	-4.28044374586591	673.323567330713	-55.956442270384	-4.17944105888359	-0.907793623625509	0.52227303625095	0.000399789264080538	-0.00342188576235913
0.75	17.5203939842359	-4.26841097182438	673.438811549381	-56.1101089900148	-4.18066435963811	-0.900986720511052	0.531724740376195	0.000400330094515395	-0.00321486785248574
0.76	17.4904671118089	-4.24639094013427	673.581544440039	-56.2818565591269	-4.1929417118778	-0.893673465510534	0.540759901869058	0.000384505360090898	-0.00298387052441698
0.77	17.4448560323418	-4.21358898651341	673.738891582365	-56.4694126423435	-4.21442284913593	-0.886187975023151	0.549038095984155	0.000354849406969907	-0.00273056734738694
0.78	17.3847306056192	-4.16976897719175	673.896592506762	-56.6698096577321	-4.24253928579166	-0.878963264162303	0.556183810786652	0.000314959308307399	-0.00245751123047643
0.79	17.3121323552136	-4.1152664574327	674.04016970916	-56.8795352009223	-4.27420759935921	-0.87250572274216	0.561807329532398	0.000269211553178641	-0.00216807418820709
0.8	17.2298447748556	-4.05096559147188	674.156134421934	-57.0947180752155	-4.30607576963193	-0.86736232707331	0.565528697746659	0.00022241601452921	-0.00186633572936755
0.81	17.1412125832929	-3.97824208764123	674.233133838908	-57.3113373764262	-4.33479354557467	-0.864082868107973	0.567003142325021	0.000179433551446241	-0.00155692337191841
0.82	17.0499227841898	-3.89887644050303	674.262947705124	-57.5254407126023	-4.3572856943275	-0.863179909719978	0.565946116980381	0.000144786209402272	-0.00124481268339892
0.83	16.9597630965828	-3.81494363818665	674.241252559931	-57.7333572537866	-4.3710065120268	-0.865089421580499	0.562156092476763	0.000122289551547977	-0.000935097995702336
0.84	16.874374870268	-3.72868686088509	674.168088770751	-57.9318919171911	-4.3741551976889	-0.870135039226558	0.555533308461443	0.000114735251668196	-0.000632747905842848
0.85	16.7970178793968	-3.64238354874854	674.047987619837	-58.1184885399026	-4.36583453058548	-0.8784986870256	0.546092957474797	0.000123648829726779	-0.000342361298609331
0.86	16.7303633856551	-3.55821249440421	673.889741489907	-58.2913522494867	-4.34613954182895	-0.890199873085224	0.533971663404608	0.000149142470364653	-6.79395957901424e-05
0.87	16.6763296680613	-3.47813030870761	673.705827708492	-58.4495242299176	-4.3161682128715	-0.905085360559087	0.519426611403352	0.000189876425695349	0.000187310744932501
0.88	16.6359710089249	-3.40376475221817	673.511523757691	-58.5929054691207	-4.27795225924707	-0.922830183021594	0.502827236568592	0.000243134826051822	0.000421134459790279
0.89	16.6094271591776	-3.33633109305988	673.323776228774	-58.7222296109885	-4.23431230194607	-0.942950158576467	0.484639931098776	0.000305013177879126	0.00063233516383536
0.9	16.5959358886112	-3.27657595123199	673.159906150192	-58.8389884575176	-4.18864770519719	-0.964825229689699	0.46540673227373	0.000370705938496227	0.000820831042798592
0.91	16.5939066926212	-3.22475115081674	673.036247508848	-58.9453167274321	-4.14467659921712	-0.987732175597918	0.445719362687078	0.000434874003401049	0.000987658413808323
0.92	16.6010494127923	-3.18061806819074	672.966822734991	-59.0438451607009	-4.10614569478324	-1.01088456946995	0.426190279111099	0.000492064525223769	0.00113492544419851
0.93	16.6145477451954	-3.14348098039928	672.962157998859	-59.1375327973916	-4.07653210508205	-1.03347733252997	0.407422532907543	0.000537150039501523	0.00126571980265761
0.94	16.6312646214905	-3.11224611728246	673.028332346221	-59.2294901494082	-4.0587603035416	-1.05473290905023	0.389980255548368	0.000565751139609792	0.00138397479665811
0.95	16.6479644527046	-3.08550161842672	673.166338565561	-59.322804987969	-4.05495647830613	-1.07394597169782	0.374361474659017	0.000574607418250949	0.00149429905374431
0.96	16.6615363456332	-3.06161248016165	673.371811383723	-59.4203816202205	-4.06625994547778	-1.09052367235776	0.360974765577965	0.000561865207699024	0.00160177548681101
0.97	16.6692026757427	-3.03882390692995	673.635151758491	-59.524802921281	-4.09270713847685	-1.10401876938477	0.350120979737524	0.000527257507795692	0.00171173644965253
0.98	16.6686987835924	-3.01536628155968	673.942046656617	-59.6382221739372	-4.1331983040231	-1.11415346345336	0.341980988643462	0.000472160681182178	0.0018295236669931
0.99	16.6584119318478	-2.98955523431799	674.274353956692	-59.762289139155	-4.18555080785316	-1.12083242316007	0.336610056018431	0.000399523006041501	0.00196024343297614
1	16.6374708274297	-2.9598809847653	674.611294219958	-59.8981119541489	-4.24663635435149	-1.12414423078663	0.333939106140203	0.000313670858863563	0.00210852920195012
1.01	16.6057807360764	-2.92508218950661	674.930867128499	-60.0462536575695	-4.31259295516388	-1.12435127430761	0.333782793223192	0.000220008061469388	0.0022783244626618
1.02	16.5640032173302	-2.88420086571352	675.211392225536	-60.2067595920393	-4.37909663865685	-1.12186889750526	0.335853896043027	0.000124631900044713	0.00247269823057382
1.03	16.513483494142	-2.83661646947926	675.433062628421	-60.3792098275515	-4.44167312796618	-1.11723534111968	0.339783173922287	3.38949694544555e-05	0.00269370343458296
1.04	16.4561321556019	-2.78205877300456	675.579397533746	-60.5627892416638	-4.496026405872	-1.11107461479778	0.34514344783782	-4.60548767280966e-05	0.0029422850961647
1.05	16.3942710121365	-2.72060068523111	675.638484926773	-60.7563670903766	-4.53835949838348	-1.10405489134774	0.351476349187254	-0.000109723477079347	0.00321824101483621
1.06	16.3304552625071	-2.65263348239182	675.603919659881	-60.958577854707	-4.56566308559937	-1.09684528195833	0.358319950254223	-0.000152676628822495	0.00352023340394107
1.07	16.267285533698	-2.57882795865678	675.475363084017	-61.1678958365922	-4.57594968717163	-1.09007391733179	0.365235393033987	-0.000171875252527663	0.00384584630753812
1.08	16.2072237321275	-2.50008569733145	675.258677252677	-61.3826973252137	-4.56841502711283	-1.08429012297833	0.371830692378403	-0.0001659156357479	0.00419168124787606
1.09	16.1524259885826	-2.41748495619849	674.965617454506	-61.6013060251966	-4.54351348217832	-1.07993314916849	0.377780111101424	-0.000135156722881728	0.0045534826680589
1.1	16.1046043581323	-2.33222554933351	674.613099221591	-61.8220196492656	-4.50294086963387	-1.07730942220519	0.382837872073334	-8.17232378888255e-05	0.00492628523939537
1.11	16.0649264894976	-2.24557662263395	674.22208759121	-62.0431179172188	-4.44952475931624	-1.07657965985413	0.386845448589189	-9.38115676695633e-06	0.00530457655745931
1.12	16.0339594050804	-2.15883042709858	673.816184870006	-62.2628544466812	-4.38702947815513	-1.07775648458328	0.389732208497668	7.67094861750675e-05	0.00568247050762408
1.13	16.0116600757859	-2.07326418677359	673.420016265773	-62.4794369546389	-4.31988948067321	-1.08071242375403	0.391509722949791	0.00017035058830249	0.00605388796779877
1.14	15.9974119010035	-1.99011104981774	673.057528698353	-62.6910016275162	-4.2528902867714	-1.08519745814715	0.392260533226997	0.000264748117533111	0.00641274202883128
1.15	15.9901027844244	-1.91054001996926	672.750325593067	-62.8955883238642	-4.19082031010819	-1.09086461981422	0.392122555380297	0.00035300982990543	0.00675312436346999
1.16	15.988237484751	-1.83564380349261	672.516158852427	-63.0911233698277	-4.13811929338117	-1.09730159302397	0.391270564465127	0.000428661828180023	0.00706948795206713
