Time [s]	GRFml [N]	GRFap [N]	GRFv [N]	Mml [N.m]	Map [N.m]	Mv [N.m]	Mfree [N.m]	COPml [m]	COPap [m]
0.01	0.259728527668239	2.40987417309449	580.798244659271	-0.839960616555426	8.90398972180973	0.541648867834928	-0.578956290847992	-0.00689685193977163	-0.0188863379454186
0.02	0.500179438803456	2.18188840824718	580.32038023114	-0.843035814551876	8.97816117768438	0.60856626611138	-0.642973653458572	-0.0069018965094455	-0.0187417724535802
0.03	0.707630017216213	1.98301641002675	579.937220428575	-0.853059391169729	9.06253532929605	0.663795423471641	-0.695750069318508	-0.00691882668550492	-0.0185821444214171
0.04	0.851247095362083	1.83826839999459	579.736702666123	-0.874938154854005	9.16523918977599	0.698031042840504	-0.728354986016124	-0.00695601433632753	-0.0183956945250825
0.05	0.914278697844224	1.76247483728441	579.789901217821	-0.909433046207691	9.28839658361532	0.707272017136971	-0.736997495651815	-0.00701466566854148	-0.0181805785699762
0.06	0.898299664289814	1.75755587325934	580.144007571388	-0.952511395817802	9.42708771096879	0.693746640456229	-0.723910771670223	-0.00708769767235085	-0.0179465147778709
0.07	0.823519010177239	1.81249692311116	580.81505147827	-0.996176994709561	9.57022640172443	0.665166730234273	-0.696610957803722	-0.00716118151040868	-0.0177131154820192
0.08	0.725028535953806	1.90603689640053	581.781309341574	-1.03057186693032	9.70299520035344	0.632586195563124	-0.66580474410979	-0.00721799985013716	-0.0175055344791997
0.09	0.645714960943144	2.01144012012677	582.978785099571	-1.04680200624733	9.81015636054393	0.60750437051066	-0.642574051538596	-0.00724277100436188	-0.0173486238352796
0.1	0.627256434658478	2.10225616198012	584.300167873818	-1.03975593941198	9.87948599388829	0.599004717954449	-0.635609258381818	-0.00722677117185089	-0.0172609181763107
0.11	0.701007425301907	2.15780182969034	585.598547285875	-1.01018419932961	9.90469683420856	0.611637233053321	-0.64917798288331	-0.00717157870838581	-0.0172495693299103
0.12	0.880554889892857	2.16723840874553	586.69707578066	-0.965472397427854	9.88741385125012	0.644492672096879	-0.682259186106946	-0.00709044212337073	-0.0173070318219075
0.13	1.15734278073983	2.13148425839046	587.405585242255	-0.918826168186128	9.83795071825008	0.691576332408354	-0.72893863632615	-0.00700686242694393	-0.0174100060448964
0.14	1.5001629052222	2.06268029336575	587.544510294213	-0.886934228274853	9.77476271758144	0.743272566056708	-0.779853760649513	-0.00695048363862483	-0.0175209303740435
0.15	1.85867851972645	1.98140671163256	586.974960918926	-0.886521804308044	9.72254498397193	0.7884767347934	-0.824270038992251	-0.00695099527184728	-0.0175921147654088
0.16	2.17059302192384	1.91225863399447	585.631393181346	-0.930485286235623	9.70906371710123	0.816892482930402	-0.852299455240886	-0.00703125454877429	-0.0175723134415552
0.17	2.37159612881386	1.87867706627971	583.55061567889	-1.02444867630108	9.7610030598689	0.821036755284629	-0.856820565840499	-0.00720112235228731	-0.0174150712005309
0.18	2.40674939075706	1.89806088403525	580.888957452805	-1.16455609404285	9.89937909460527	0.797619608363415	-0.834785114580093	-0.00745348351272002	-0.0170875946624409
0.19	2.24150397264579	1.97812198570229	577.919581838235	-1.33709606913572	10.1353395003516	0.748119505892277	-0.787746268641937	-0.00776354892431774	-0.0165783842867864
0.2	1.87021301844006	2.11517806325345	575.004969961493	-1.52017365009554	10.4673057310625	0.678519264643725	-0.721580870969082	-0.00809185998977568	-0.0159016823862109
0.21	1.32005873607702	2.29464523743582	572.545310334315	-1.68718785128453	10.8803027802506	0.598286617161302	-0.645488085051987	-0.0083905788937686	-0.0150971679188628
0.22	0.648970327171517	2.49350236320437	570.910510460132	-1.81145080684637	11.3479136137492	0.518777020361952	-0.570433047289592	-0.00861186459012053	-0.0142243018981762
0.23	-0.0626491834259134	2.68410010208675	570.369547758732	-1.87101383788924	11.8366654107547	0.451310123907227	-0.507274850443098	-0.00871661907413646	-0.0133520881861196
0.24	-0.725051234703225	2.83851064287388	571.033630392794	-1.85271291007746	12.311988539885	0.405224144562231	-0.464873517428421	-0.00868177973575279	-0.0125463454800302
0.25	-1.25449984317482	2.93269428063046	572.827780616939	-1.75461343994378	12.7444168668966	0.386233498144829	-0.448498208837337	-0.00850464501546666	-0.0118574152785561
0.26	-1.58763978328451	2.95000749947419	575.499159255028	-1.58636482040419	13.1145974725013	0.395389084723145	-0.458839262754293	-0.00820334866477612	-0.0113112299266159
0.27	-1.69195557668351	2.8838219108244	578.661460326392	-1.3673831860187	13.4159953170784	0.428857419332922	-0.491844886857575	-0.0078133764012952	-0.0109058000548495
0.28	-1.57044222426803	2.73911174464935	581.865721733688	-1.12318704738724	13.6548059492408	0.478597986813623	-0.539460534232341	-0.00738078357474425	-0.0106137337780162
0.29	-1.25997536379277	2.5327677857076	584.681602428495	-0.880556099300637	13.8473119669501	0.533848576290193	-0.591167753599917	-0.00695340003433476	-0.010389852711682
0.3	-0.824109863717119	2.2922328229033	586.771284953073	-0.662427080368126	14.0155061976635	0.583160550295784	-0.636040255074396	-0.00657171677515467	-0.0101818050530601
0.31	-0.341870372977767	2.0520483984604	587.940903559318	-0.483544563427508	14.182101912364	0.616599738498323	-0.664905560235152	-0.00626127980917723	-0.0099410922151541
0.32	0.105502600766584	1.84823695822027	588.16058364351	-0.347812221996903	14.3660270575145	0.627677461156217	-0.672159976811647	-0.00602822591216978	-0.00963214944565666
0.33	0.447773448649058	1.71112665055701	587.551776489058	-0.248018277384286	14.5792352592054	0.614617242224231	-0.656849600946747	-0.00585906626193311	-0.00923784775980008
0.34	0.636839441234909	1.65804198314582	586.347495330164	-0.168150386269832	14.8252926727819	0.580690875473168	-0.622788141386877	-0.00572499859175757	-0.00876070954177072
0.35	0.653840012288251	1.6878632019641	584.835816398077	-0.0879368433689516	15.0998316927898	0.533545574477449	-0.577694551017774	-0.00559002881067894	-0.00821999307545473
0.36	0.510710596706942	1.77944604402989	583.299014750168	0.0113264250422653	15.39265767981	0.483650075873612	-0.53154608826143	-0.0054212127649339	-0.00764547107573704
0.37	0.245465320576254	1.89513104736892	581.960172719553	0.141027054510828	15.6910556152376	0.442166704154568	-0.494504107264361	-0.00519863839784307	-0.00706919649265886
0.38	-0.0882221642979127	1.98919363042797	580.946683339858	0.301055899724214	15.9836527934197	0.418672233048314	-0.474846632622976	-0.00492258964888692	-0.00651685447616807
0.39	-0.435056996165453	2.01950008812949	580.276480481289	0.478430732757921	16.2640555455506	0.419182919555671	-0.477324566594827	-0.00461579915169352	-0.00600044444006731
0.4	-0.75243535301253	1.9593813244995	579.868609795305	0.649339090104982	16.5334361878228	0.444885554005832	-0.502260527821172	-0.00431977637472747	-0.00551394982644149
0.41	-1.02121661098139	1.80629479997427	579.57532693063	0.784356068412812	16.8013658161772	0.491846980529015	-0.545556939423551	-0.00408567452807174	-0.00503322989824817
0.42	-1.24981612063846	1.58445444169038	579.228739817286	0.855710723035618	17.0845106527245	0.551788216935443	-0.599602096159671	-0.00396166684757748	-0.0045205578643942
0.43	-1.47024923475111	1.34016618824307	578.691770534991	0.844820400353926	17.4033066461921	0.613792960983276	-0.654886900569069	-0.00397991498900807	-0.00393312666711937
0.44	-1.7271309565279	1.13068484299834	577.901733966413	0.748098568756226	17.7772842408676	0.666610712978045	-0.701997467777041	-0.00414656686581683	-0.00323371193676947
0.45	-2.06283201584461	1.00937743679984	576.895845265137	0.579372382548457	18.2201576885958	0.701058011058092	-0.733557876176196	-0.0044376409846606	-0.00240088974863073
0.46	-2.50323410584155	1.01121040030841	575.811709999908	0.368069938979918	18.7359505673562	0.711964501187502	-0.74568959784509	-0.00480222761736426	-0.00143608788531674
0.47	-3.04835087005234	1.14265094804389	574.861745502522	0.153446363321101	19.3172107862367	0.69918611638047	-0.738645494794873	-0.00517252140606417	-0.000365445330059944
0.48	-3.67052944422858	1.37892008704159	574.287118646799	-0.0237984261402445	19.9458135743784	0.667415666858988	-0.716460112880737	-0.00547833146545207	0.000764177108679043
0.49	-4.32055887229428	1.66947825662701	574.302269701958	-0.130418647072702	20.5961266233932	0.624820005048896	-0.685698405254075	-0.00566244551690476	0.00189405804491394
0.5	-4.93961422276999	1.95028484440931	575.043692649341	-0.147777180314088	21.2396549704131	0.580844801445829	-0.65362106238771	-0.00569294157372779	0.00296500311878711
0.51	-5.47335471648247	2.15947059387165	576.535470566554	-0.0754498975047538	21.849911857503	0.543760578706332	-0.626247036780009	-0.00556933879475019	0.00392826512748407
0.52	-5.88413723874726	2.25217986255445	578.679465357688	0.0695768078813678	22.4062886359611	0.518601330750739	-0.606828487703779	-0.00532112926043748	0.00475327407541881
0.53	-6.15819180052741	2.21072389463021	581.271506570201	0.257802893248742	22.8960890273038	0.506039248753335	-0.595142423029582	-0.00499925690594349	0.00543051603193601
0.54	-6.30630049063124	2.04766512770137	584.038449419518	0.454836681671038	23.3144924944857	0.502474405392428	-0.587775057500644	-0.00466293185176492	0.00596935751795219
0.55	-6.35839563597295	1.80150878520981	586.686415954289	0.629718890012804	23.6628049662115	0.501277049587474	-0.579296794312134	-0.00436528488204968	0.00639197538172637
0.56	-6.35398402217683	1.52664552833314	588.948928885211	0.761841486286462	23.9457599154393	0.49480729199885	-0.563982302181314	-0.00414149324244029	0.0067254218426519
0.57	-6.33109784744819	1.28049375128086	590.625005855316	0.844838247973512	24.1687577750352	0.476645032360039	-0.537593705783451	-0.004002155110853	0.00699405019296284
0.58	-6.31653149791347	1.11113681999473	591.600784744201	0.886712165108451	24.3357928542946	0.443440890093781	-0.498750693671796	-0.00393314677513046	0.00721410845587894
0.59	-6.31959040795586	1.04818520021967	591.85268863107	0.906486628850336	24.4485082771902	0.395938220679552	-0.449547356598067	-0.00390143625935468	0.00739150417006995
0.6	-6.33065687513339	1.098433506474	591.434354127807	0.92853147891427	24.5064611054284	0.338959859978934	-0.395290410131955	-0.00386485255628277	0.00752283430909417
0.61	-6.32475856750057	1.24656056349127	590.452701954662	0.976197971415272	24.5083706672595	0.280420748761134	-0.343458264270831	-0.00378300078711902	0.00759899380793017
0.62	-6.26918964203091	1.46001606981473	589.040168232722	1.06640342116824	24.4539175783418	0.229646088088337	-0.30215454291973	-0.00362652520505524	0.00761016262457237
0.63	-6.13328373412694	1.69656447753734	587.330097060651	1.20638483986706	24.3455725357505	0.195400526544581	-0.278418974765518	-0.00338266105129748	0.00755077336814786
0.64	-5.89789265801046	1.91274119554879	585.440716198164	1.39315266729262	24.1899537271117	0.184058366028602	-0.276759444033567	-0.00305619822977732	0.00742317002777027
0.65	-5.56216067909547	2.07161359914601	583.470301652036	1.61543513469799	23.9983242613336	0.198284349069268	-0.298199170668553	-0.00266623451204984	0.00723904145939769
0.66	-5.14584389922783	2.1485872390213	581.502668117789	1.85731119578255	23.7860285118134	0.236475044294322	-0.340017495902252	-0.00224008458130021	0.00701828031138019
0.67	-4.68656012011274	2.13444902316421	579.618841851373	2.10241806955637	23.5709018887515	0.293056262567286	-0.396224115226669	-0.00180621605561071	0.00678556990819923
0.68	-4.23265358165723	2.03534161345254	577.908647082444	2.33762770591649	23.3709300987424	0.359563754570866	-0.458664044130969	-0.00138804921815128	0.00656559100808152
0.69	-3.83344665596674	1.86988907282131	576.475772762132	2.55536579530228	23.2016266584856	0.426277162221999	-0.518524928823459	-0.000999977658492468	0.00637810920817344
0.7	-3.52922671967123	1.66419581434432	575.431975168996	2.75418759846246	23.0736886065466	0.484061601579984	-0.567934574310798	-0.000646234218458996	0.00623423484035479
0.71	-3.34325950235041	1.44583397192381	574.879942989589	2.93769548934054	22.9914492669844	0.52602823247637	-0.601318577294766	-0.000322461211695879	0.00613481681788247
0.72	-3.2775142223375	1.23811721948089	574.888802124957	3.11226795086112	22.9524790424441	0.548672005124948	-0.616246616102318	-1.92320228615817e-05	0.00607133274553834
0.73	-3.31286197915179	1.05586261591818	575.469699969179	3.28429476316457	22.9484321897631	0.552273195249931	-0.613619649510624	0.000273576425672606	0.00602895262903447
0.74	-3.41353622912096	0.903471107330222	576.560032262436	3.45765498267534	22.9669627829592	0.540524671451201	-0.597205461258394	0.000562719109541976	0.00599088963690575
0.75	-3.5348272133048	0.775600050574629	578.023075141174	3.63205323379939	22.9943013597119	0.519520343719851	-0.572673213445436	0.000848796225360049	0.00594286472340394
0.76	-3.63241806336459	0.660101006420328	579.665514293967	3.80259284097139	23.0179450419456	0.496367611285744	-0.546372327916996	0.00112535616675058	0.00587656004462556
0.77	-3.67148044162222	0.542402666106409	581.269980688681	3.96066846118222	23.0288963481428	0.477742337263048	-0.524129380007004	0.00138005659399643	0.00579127450976907
0.78	-3.63364568843232	0.41024152704551	582.634986043821	4.09596249449738	23.0229945838912	0.46868617775213	-0.510302012013344	0.00159760043604629	0.00569350878180058
0.79	-3.52029829025775	0.257625280560013	583.612158688417	4.19907998151716	23.0010998494776	0.471867482388709	-0.507248721834772	0.00176377238074799	0.00559475505916285
0.8	-3.35134487020537	0.0871328069229964	584.131210453169	4.26420032354925	22.9681693094502	0.48741119959673	-0.515270258260332	0.00186963427233677	0.00550821624965403
0.81	-3.15964772290854	-0.0899595069833276	584.206419101563	4.29109453396111	22.9315420554145	0.513274639172789	-0.532973356729243	0.00191485147828696	0.00544542766098438
0.82	-2.98247211557222	-0.255770014965941	583.923512659164	4.2859691363051	22.8989466944276	0.546028133810315	-0.557918783726652	0.00190925363018113	0.00541374469277578
0.83	-2.85223489344678	-0.389703168993096	583.411137555914	4.26084082798449	22.8768014753646	0.581814802299127	-0.587358982456028	0.00187208114514026	0.00541539042575606
0.84	-2.78919006370265	-0.473323557781017	582.805058217052	4.23147722528679	22.8692637092195	0.617230748052579	-0.618859101850059	0.00182888119179481	0.00544828721813972
0.85	-2.79822173618473	-0.495127665459007	582.214822269672	4.2142895483174	22.8782280963593	0.649897602716392	-0.650635736025645	0.00180659096426572	0.00550834225702923
0.86	-2.87068570219301	-0.454054135602237	581.701512395438	4.22285118130543	22.9041465743857	0.678591872622733	-0.681536131367745	0.00182784878201725	0.00559236969851773
0.87	-2.99059164423349	-0.360754602271489	581.271822689914	4.26486548457964	22.9472500876192	0.702931704916003	-0.71069829563921	0.00190587054570857	0.00570056336945091
0.88	-3.14288817339348	-0.236105626472798	580.889045643435	4.34036502691764	23.0085979253174	0.722766385435487	-0.737047146689809	0.00204121911275057	0.00583749238606002
0.89	-3.32075761913628	-0.107116701678094	580.496910352741	4.44167940453312	23.090426887294	0.737521833691654	-0.75885475397433	0.00222143752637094	0.00601099909829794
0.9	-3.52901543013121	-0.00111701512859343	580.048792483973	4.55529521672956	23.1955174126715	0.745784513691456	-0.773591236857426	0.00242385653339261	0.00622904310829275
0.91	-3.78196713974842	0.0603460138883198	579.533495787913	4.66523555222907	23.32566061606	0.745335054503291	-0.778205535740666	0.00262105637935428	0.00649526187715438
0.92	-4.0960395341076	0.0663052214679231	578.989907148034	4.75713499837545	23.47967175834	0.733684672887739	-0.769822122467607	0.00278767525298318	0.00680456308948074
0.93	-4.47950731656818	0.0186103852238785	578.506037833389	4.82192192098527	23.6516196008701	0.70897232443492	-0.746671000771093	0.00290675951935426	0.00714021833484046
0.94	-4.92293898569573	-0.0689151563864229	578.202388548467	4.85805479541502	23.8299408966411	0.670920964655155	-0.708948704541751	0.00297384915129073	0.00747360576507677
0.95	-5.39404733988615	-0.174016837372879	578.20395896498	4.87162546887684	23.997879798861	0.621494459571362	-0.659290704662688	0.00299755830230353	0.00776703356130132
0.96	-5.83935096809309	-0.271131853085327	578.60829841651	4.87425839138832	24.1353126190886	0.564974132583867	-0.602637898054521	0.00299642514023324	0.00797919725457619
0.97	-6.19284624164831	-0.336655498560207	579.457889886719	4.87941651253451	24.2216212452729	0.507364228404009	-0.545471454920988	0.00299296259744208	0.00807207661665166
0.98	-6.38954390319388	-0.353092772914958	580.723698469064	4.89824064005725	24.2389948455523	0.455268896998874	-0.49460219979294	0.00300674821404612	0.00801770341368552
0.99	-6.38009806021677	-0.311390135745153	582.303487290996	4.93620875433776	24.1754485107824	0.414568287476159	-0.455851478879554	0.00304871059404788	0.00780332360402891
1	-6.14242644936243	-0.211406028055583	584.034637598248	4.99163403424405	24.0269515634693	0.389283563445632	-0.43299021345386	0.00311836440485547	0.0074339552443678
1.01	-5.68725881220468	-0.0609776617137753	585.717936086957	5.05640946444672	23.7982938688977	0.380936088653216	-0.427200126335289	0.00320474316341568	0.00693200173011604
1.02	-5.05650774324678	0.125788476453455	587.146982553026	5.11866640839506	23.50259393383	0.388513555861006	-0.437130137623972	0.00329053404052926	0.00633419145430808
1.03	-4.31547636340526	0.330521567156205	588.137751555757	5.16640832527781	23.1595902069565	0.408940840983096	-0.459423260357503	0.00335788131526682	0.00568652497032252
1.04	-3.54144962701435	0.532702711778603	588.554001033052	5.19092239628734	22.793018510967	0.437808544965897	-0.489467113245265	0.00339386656245899	0.00503808297439945
1.05	-2.81170427281343	0.711933389588152	588.325877822146	5.18894165989682	22.4274646746484	0.470093584015353	-0.522118517979501	0.00339394236831503	0.00443454504214574
1.06	-2.1934009320076	0.850398241449663	587.46046840437	5.16304466917568	22.0851132680507	0.500706949033837	-0.55225534092268	0.0033624589432808	0.00391218881577582
1.07	-1.73658298662751	0.935343768389083	586.043783104839	5.12042613525269	21.782810783524	0.524859830661967	-0.575153522291343	0.00331052066767568	0.00349305428266183
1.08	-1.47021147892808	0.961104712754555	584.233832329894	5.07069747300411	21.5298314832411	0.538364095740327	-0.586795802244765	0.00325230784580099	0.00318188079440263
1.09	-1.40037741792916	0.930062347453739	582.244522244886	5.02359149129165	21.3266709310693	0.538012266693174	-0.584237746040974	0.00320136749794997	0.00296531671201816
1.1	-1.50983102448064	0.852058743942478	580.320625522658	4.98730000138889	21.1650864687537	0.522104576860804	-0.566082796830966	0.00316812111429998	0.00281370677111165
1.11	-1.75863252119593	0.742210297111808	578.705397555111	4.96776712000663	21.0294513389804	0.49105028383649	-0.532994988455029	0.00315912344241409	0.00268544610806248
1.12	-2.08660235412467	0.617600603784733	577.604386603133	4.96879384426544	20.8992970134024	0.447841051466866	-0.488071302856756	0.00317777689577836	0.00253346673107119
1.13	-2.41874239763957	0.493753114448881	577.151045258893	4.99248888330877	20.7527081887836	0.398143134335122	-0.436860648218119	0.00322562479315902	0.00231296159087285
1.14	-2.67447448597472	0.381895581162006	577.381044303689	5.03955420614743	20.5700432747925	0.349813847247392	-0.386874636366674	0.00330324417090921	0.00198906554851991
1.15	-2.78033872424113	0.287769030355715	578.221924760393	5.10911824817793	20.337327785984	0.311801624269268	-0.346569237966278	0.0034101428997978	0.00154302944431078
1.16	-2.68411124146216	0.212197240957495	579.502481196553	5.19819893942734	20.0486581946868	0.292585418285145	-0.323939828552552	0.00354372800241465	0.000975549345758053
1.17	-2.36687401324185	0.153025477031759	580.982236319532	5.30120336923454	19.7070935843483	0.298479279146904	-0.325009265632555	0.00369802716671241	0.000306390427219139
