Time [s]	GRFml [N]	GRFap [N]	GRFv [N]	Mml [N.m]	Map [N.m]	Mv [N.m]	Mfree [N.m]	COPml [m]	COPap [m]
0.01	5.12189765642147	6.49535120385797	527.507509815984	-48.1141353879897	2.1633971311676	-0.762140573333098	-0.321581571897555	0.00235705487557459	0.00802025900063365
0.02	5.10421998026647	6.25123327963672	527.347453108135	-48.0071626544115	2.10680504359275	-0.622365483569436	-0.182645214736313	0.00225181379682642	0.00784630604535033
0.03	5.08763790654785	6.00942840680549	527.186144577929	-47.9015080176733	2.05211475960447	-0.485374645670432	-0.0464556674078058	0.00215009525217978	0.00767493015485164
0.04	5.07288759438503	5.77303301747967	527.025236172039	-47.7986610809076	2.0008279132137	-0.353780908821818	0.084428266552214	0.00205471652577731	0.00750863898745961
0.05	5.06068006943739	5.54494859421302	526.866416198185	-47.6999591215497	1.95432241952066	-0.230019321324953	0.207626935912282	0.00196826370916127	0.00734964903033866
0.06	5.0516664308186	5.32780604041683	526.711401169902	-47.6065432757178	1.91378628516723	-0.116252083192264	0.321031652142224	0.00189296737722648	0.00719980565131037
0.07	5.04640394420165	5.12390408810935	526.561929345553	-47.5193287938242	1.88016246357713	-0.0142873618272561	0.422882475527012	0.00183059905500373	0.00706052956672752
0.08	5.04532484330118	4.935163836128	526.419753841379	-47.4389909545925	1.85410789071681	0.0744840182530327	0.511828218385173	0.0017823941984828	0.00693279279739586
0.09	5.04870967107413	4.76310065067582	526.286632777218	-47.3659669644644	1.83596875407375	0.149131146024688	0.586966059611542	0.00174900539366648	0.00681712487514818
0.1	5.05666688343894	4.6088137414332	526.164313735963	-47.3004729021804	1.82577288020457	0.209203267720603	0.647859425176963	0.00173048735297343	0.00671364776360747
0.11	5.06912020219401	4.47299280159262	526.054509954161	-47.2425336037536	1.82323896900272	0.254727437094235	0.694534068357441	0.00172631321836556	0.00662213584820419
0.12	5.08580484274747	4.35594022223169	525.958866157056	-47.1920224166862	1.82780133875766	0.286184580745708	0.727453498761433	0.00173541979592388	0.00654209557939876
0.13	5.10627327166818	4.2576066111584	525.878912815723	-47.1487070590153	1.83864794289897	0.304466138864097	0.747475988962275	0.00175627774466275	0.00647285802879827
0.14	5.12991059626512	4.17763670859757	525.816008800646	-47.1122974482115	1.85476872707953	0.310814405578711	0.755796274318661	0.00178698149125888	0.00641367681237852
0.15	5.15595909066711	4.11542233331072	525.771273852558	-47.0824913388516	1.87501094501177	0.306750421142355	0.7538757145453	0.001825352784702	0.00636382358449027
0.16	5.18355076444299	4.07015873926168	525.745513861685	-47.0590139199512	1.8981378552678	0.293993730870615	0.743365081570751	0.00186905136161179	0.00632267361351481
0.17	5.21174632815189	4.04090072963936	525.739143482477	-47.0416481400861	1.92288727315331	0.274378512268803	0.726024271506323	0.00191568616588981	0.00628977478651946
0.18	5.23957845184254	4.02661506451458	525.752111936332	-47.0302533953071	1.94802672981535	0.249770488993653	0.703643119828541	0.00196292093884798	0.00626489469807923
0.19	5.26609688852117	4.02622610047283	525.783838794819	-47.0247712578034	1.97240245966392	0.221988720994702	0.677967153134666	0.00200856873234782	0.00624804217170932
0.2	5.29041287641439	4.03865219239294	525.833166936697	-47.0252180568728	1.99498005156882	0.192735820349596	0.650631574615879	0.00205067094233794	0.006239461529711
0.21	5.31174025961669	4.0628311343949	525.898339620141	-47.0316652573165	2.01487530717027	0.163539437970696	0.623106098633642	0.00208755773830951	0.00623960003596906
0.22	5.32943097879072	4.09773377379635	525.977007650647	-47.0442096248094	2.0313745961897	0.135707050098336	0.596652472412163	0.00211788818297669	0.0062490510388888
0.23	5.3430029675892	4.14236584565832	526.06627096655	-47.0629360421969	2.04394472984679	0.11029520088935	0.572295701485178	0.00214066979090471	0.00626847728516892
0.24	5.3521590160767	4.19575898815014	526.162756692714	-47.0878764782672	2.05223303965853	0.0880934835861547	0.550809180378601	0.00215525865523623	0.00629852051198196
0.25	5.35679578607165	4.25695275095846	526.262732983775	-47.1189689635126	2.05605890764767	0.0696227192020178	0.53271316722367	0.00216134247366929	0.00633970462562616
0.26	5.35700283236514	4.32497014280437	526.362255006256	-47.1560204702588	2.05539841285317	0.0551460634537318	0.518285370452422	0.00215890973956773	0.00639234043849572
0.27	5.35305214179129	4.39878982792924	526.457336451186	-47.1986773259114	2.0503640173389	0.0446911761959459	0.507581869310038	0.00214820896767399	0.00645644000216815
0.28	5.34537929463955	4.47731843221255	526.54413730194	-47.2464062304959	2.0411813048765	0.0380811488826135	0.500466190285356	0.00212970206432586	0.00653164802704305
0.29	5.3345578327963	4.55936652630207	526.619156474729	-47.2984881477082	2.02816471253683	0.0349716192547331	0.496644121400246	0.00210401583230999	0.00661719675078591
0.3	5.32126875107899	4.64363169897723	526.679416635912	-47.3540263551906	2.01169397744223	0.0348914115286236	0.495701768077765	0.00207189515738544	0.0067118889870573
0.31	5.3062671923472	4.72869171824662	526.722628155665	-47.4119688507151	1.99219268663472	0.0372841166245916	0.497144430552686	0.00203416072280048	0.00681411207018781
0.32	5.29034841954442	4.81301011685825	526.7473198764	-47.4711441993827	1.970109904458	0.0415482521657807	0.500434096915221	0.00199167322617077	0.00692188315754767
0.33	5.27431497142867	4.89495566668877	526.752926157754	-47.5303088561742	1.94590540116042	0.0470739895482704	0.505023673599035	0.00194530512681369	0.00703292402373004
0.34	5.25894661010094	4.9728361728779	526.739822410675	-47.5882030854448	1.92003856205763	0.0532748727769553	0.510386486333562	0.00189592002798197	0.00714476124822523
0.35	5.24497427489946	5.04494588779403	526.709304859134	-47.6436118896933	1.89296065941261	0.0596134449577004	0.516040045639523	0.00184435898464536	0.00725484572208814
0.36	5.23305881241944	5.1096246921396	526.663514296597	-47.6954269033939	1.86510985377475	0.0656202065002049	0.521563547179082	0.00179143239321816	0.00736068382145376
0.37	5.2237748014989	5.16532609759554	526.605307804163	-47.7427050340643	1.83690808304589	0.070905819107672	0.526609035482028	0.00173791571170061	0.00745997153109632
0.38	5.21759937719267	5.21069017568127	526.538086407878	-47.7847197519994	1.80875890959878	0.0751669103830849	0.530906570372515	0.00168454709829638	0.00755072232946773
0.39	5.21490561452671	5.24461678982482	526.465590117905	-47.8210013322624	1.78104542933354	0.0781862000672519	0.534264075191513	0.00163202513925458	0.00763137980868667
0.4	5.21595978718316	5.26633407014161	526.39167439515	-47.8513630093749	1.75412749021161	0.0798279423826434	0.536562798168238	0.00158100513461158	0.00770090679836694
0.41	5.22092168306466	5.27545697447497	526.320083585795	-47.8759108727867	1.72833769927652	0.0800298494064359	0.537749474416191	0.00153209287649281	0.00775884414906283
0.42	5.22984714103953	5.27203105411509	526.254237102336	-47.8950363533325	1.703975985929	0.0787927255716603	0.537826335246715	0.00148583542768711	0.00780533422785201
0.43	5.24269206277951	5.25655719142962	526.197043076203	-47.9093912623323	1.68130279994994	0.0761690086511407	0.536840080228073	0.00144270901999332	0.0078411064677666
0.44	5.25931733186149	5.2299940742789	526.150751946173	-47.9198464755229	1.66053131924687	0.0722512900282793	0.53487081809751	0.00140310477356662	0.00786742484723368
0.45	5.27949431204665	5.19373646519771	526.11685917482	-47.9274364321342	1.64181929130501	0.0671616943508035	0.532021812154117	0.0013673134275881	0.00788599978674923
0.46	5.30291086451101	5.14956883278692	526.09606229254	-47.9332925763136	1.6252613069975	0.0610427574815148	0.528410653788024	0.00133551061856234	0.00789886945793253
0.47	5.32917808313504	5.09959553852078	526.088273111176	-47.938569641524	1.61088238779346	0.0540501760142379	0.524162255068321	0.00130774441147944	0.00790825772615511
0.48	5.3578381612105	5.0461504001791	526.092681613986	-47.9443692166153	1.59863374984613	0.0463475360095231	0.519403818017743	0.00128392676618826	0.00791641772738184
0.49	5.38837393926252	4.99168996380007	526.107864096643	-47.951665296974	1.58839149380664	0.0381028861201907	0.514261722610527	0.00126383041153733	0.00792547127488757
0.5	5.42022071664135	4.93867609375594	526.13192494345	-47.9612364941085	1.57995876995685	0.0294868208158086	0.508860092821049	0.00124709222627842	0.00793725480272715
0.51	5.45278082425109	4.88945443296665	526.162659238384	-47.9736092494221	1.57307170465965	0.0206715981019933	0.503320661484218	0.00123322372649141	0.00795318232826563
0.52	5.48544125052226	4.84613581206761	526.197722398797	-47.9890157892133	1.56740907186472	0.0118307421505159	0.497763467159244	0.00122162868298168	0.00797413495660843
0.53	5.51759430026281	4.81048774626002	526.234793236018	-48.0073697032086	1.56260538089175	0.00313857722085026	0.49230788195489	0.00121162729273559	0.00800038481046429
0.54	5.54866087349875	4.78384273414899	526.271718232877	-48.0282609799013	1.55826675740771	-0.00523079882384486	0.487073486444222	0.0012024857603794	0.00803155905595601
0.55	5.57811551861909	4.76702918262393	526.306627218725	-48.0509711537432	1.55398874449519	-0.0131054752134196	0.482180370716569	0.00119344965855995	0.00806664705808458
0.56	5.6055119900084	4.76032947946212	526.338013764839	-48.0745079859929	1.5493749665958	-0.0203188379737997	0.47774854068508	0.00118377907186167	0.00810405082170287
0.57	5.630507678062	4.76346810617302	526.364777202361	-48.0976578910162	1.54405549648686	-0.0267138614147165	0.473896235345312	0.00117278331774723	0.00814167595688865
0.58	5.6528850305671	4.77563083843257	526.386226834655	-48.1190532100444	1.53770375281952	-0.0321484287364269	0.470737101988685	0.00115985299751109	0.00817705765726157
0.59	5.67256799261155	4.79551414821594	526.402052331613	-48.1372504952476	1.53005083410225	-0.0365013593683494	0.468376320342142	0.00114448726402863	0.00820751379000617
0.6	5.68963158766914	4.82140203568169	526.412267143988	-48.1508152576288	1.52089635797854	-0.0396786836521917	0.466905901559704	0.00112631449119838	0.00823031533459004
0.61	5.70430305761291	4.85126581203388	526.417133811899	-48.1584081966491	1.51011510920157	-0.0416196146158978	0.466399503214447	0.00110510496987192	0.00824286320192527
0.62	5.71695346595767	4.88288094545335	526.417081097837	-48.1588677937637	1.49765908741219	-0.042301630645684	0.466907187629153	0.00108077480348603	0.008242859997364
0.63	5.72807931764436	4.91395406633957	526.412622882878	-48.151284323051	1.48355486442741	-0.0417441054352691	0.468450600595272	0.00105338079211121	0.00822846558638013
0.64	5.73827451226314	4.94225267091494	526.404287760793	-48.1350607976325	1.4678964860245	-0.040010000907925	0.471019055651591	0.00102310672967929	0.00819842635363975
0.65	5.74819376294306	4.96572999412041	526.392566381778	-48.1099571006135	1.45083446088589	-0.0372052680334928	0.474566973371942	0.00099024214760827	0.0081521697359154
0.66	5.75850940800462	4.98263793741178	526.377881054183	-48.0761144986743	1.43256164695977	-0.0334757683539957	0.479013046660537	0.000955155072809314	0.00808985783456825
0.67	5.76986424189134	4.99162179309122	526.360579189949	-48.0340588481901	1.41329705389789	-0.0290017209134563	0.484241386735139	0.000918260788664127	0.0080123965180228
0.68	5.78282352514266	4.99179173199729	526.340949193131	-47.9846820128969	1.39326871506564	-0.0239898783002142	0.490104758976417	0.000879988862349966	0.00792139923137923
0.69	5.7978296406426	4.98276751979681	526.319254658938	-47.9292022498538	1.3726968351056	-0.0186638240457263	0.496429855265328	0.000840750810571128	0.00781910755367513
0.7	5.81516290267963	4.96469458783015	526.295780561108	-47.8691055181256	1.35177838648851	-0.0132529448661652	0.503024384464547	0.000800910710991418	0.00770827320325418
0.71	5.83491177600016	4.93823129109417	526.270883686417	-47.8060707574171	1.33067421433918	-0.00798075067832016	0.509685611029799	0.000760760834559853	0.00759200852552074
0.72	5.85695522833383	4.9045088261877	526.245039071646	-47.7418831139063	1.30949952222749	-0.00305328213569056	0.516209848298507	0.000720503993373244	0.00747361436957958
0.73	5.88095915159735	4.86506675604618	526.218874657185	-47.6783398091728	1.28831836664184	0.0013516465082728	0.522402330043549	0.000680243799657989	0.00735639556979167
0.74	5.90638779781919	4.82176831527989	526.193187736364	-47.6171538178604	1.26714250240573	0.00509367291479434	0.528086849289248	0.00063998345225754	0.00724347493245349
0.75	5.93253005953371	4.77670059251209	526.168938897194	-47.5598607151888	1.24593461573251	0.00807699079802815	0.533114569612952	0.00059963305129766	0.00713761666351681
0.76	5.9585392690995	4.73206527209867	526.147221789237	-47.5077339641165	1.22461567732431	0.010254895074049	0.537371477927485	0.000559024834853187	0.00704106957544796
0.77	5.98348409237696	4.69006585946386	526.129209912168	-47.4617135344893	1.20307586581795	0.0116315147948268	0.540784050670563	0.000517935177138863	0.0069554392294018
0.78	6.00640714374977	4.65279722657207	526.116084398534	-47.4223520968256	1.1811882709698	0.0122606813062549	0.543322835287844	0.000476111724777087	0.006881596481777
0.79	6.02638723651648	4.62214292939871	526.108949144159	-47.3897821386595	1.15882440209885	0.0122420789490949	0.545003791899069	0.000433303707215402	0.00681962781446004
0.8	6.04260077284864	4.59968511345672	526.108741360978	-47.3637062516595	1.13587041212127	0.0117150081292551	0.545887382274341	0.000389293260795401	0.00676883045553281
0.81	6.05437771448279	4.58663099033637	526.116146495622	-47.3434115852947	1.11224290770243	0.0108502410847652	0.546075522914167	0.000343925563619247	0.00672775277287628
0.82	6.06124787409063	4.58375889504284	526.131526372479	-47.327808120631	1.08790325293535	0.00984055774540227	0.545706627600544	0.000297135688858202	0.00669427788281921
0.83	6.06297391207106	4.5913858773799	526.154868385761	-47.3154890574644	1.06286938338835	0.00889060542621267	0.544949047576251	0.000248970334808788	0.00666574599468486
0.84	6.05956836851455	4.60935769415133	526.185761687774	-47.3048103063655	1.03722432008959	0.00820672908574926	0.54399327343317	0.000199602958054365	0.00663910883800777
0.85	6.05129323309791	4.63706100094327	526.223403796988	-47.2939849125137	1.01112079538479	0.00798737063318233	0.543043293528258	0.000149341290764202	0.00661110770834666
0.86	6.03864186422204	4.67345653526489	526.266638144656	-47.2811872849971	0.984781657675786	0.00841454283533116	0.542307512555451	9.86267284798952e-05	0.00657846531837271
0.87	6.0223044081419	4.7171311733242	526.314020095878	-47.2646614291504	0.958495991004614	0.00964675604660148	0.541989624438039	4.80255927340458e-05	0.00653808082892804
0.88	6.00311913138428	4.7663659611499	526.363906228347	-47.2428270319209	0.932611149190659	0.0118136273071257	0.542279809156236	-1.78723308521742e-06	0.00648721720841818
0.89	5.98201316381174	4.81921659175011	526.414559409912	-47.2143772637149	0.907521145022777	0.0150122459201112	0.543346585855009	-5.0051358178726e-05	0.00642367044579996
0.9	5.95993696844754	4.87360234236826	526.464260707437	-47.178362544841	0.883652037977196	0.0193052222377704	0.545329606321288	-9.59493357465863e-05	0.0063459111070816
0.91	5.93779734273098	4.92739921263524	526.511418528127	-47.1342552662652	0.861445118201761	0.0247202207283049	0.54833361537514	-0.000138638958705381	0.00625319022865348
0.92	5.91639387641215	4.97853292233846	526.554665692194	-47.0819915141736	0.84133878385547	0.0312506857346959	0.552423740291273	-0.000177287692601488	0.00614560350190076
0.93	5.89636353585984	5.02506753686887	526.592936319316	-47.0219871643135	0.823750051811938	0.0388574164736744	0.557622203745324	-0.000211107487715524	0.00602411001303334
0.94	5.87813743528085	5.06528578242412	526.625516350147	-46.9551272047947	0.809056630945701	0.0474706403361536	0.563906489076301	-0.000239388256638943	0.00589050432790984
0.95	5.86191294219936	5.09775757778234	526.652064015559	-46.8827287207807	0.797580428755104	0.0569922694100992	0.571208928955877	-0.000261528429750638	0.00574734330678764
0.96	5.84764312082062	5.12139392380821	526.672599358882	-46.806479529979	0.789573264135633	0.0672980987842742	0.579417644898054	-0.000277061193079181	0.00559783154530918
0.97	5.8350442329271	5.13548402799472	526.687464735598	-46.728355892827	0.785205430905631	0.0782398070142178	0.588378740061423	-0.000285675254540056	0.00544567161637313
0.98	5.82362069151667	5.13971436562607	526.697260791518	-46.65052394213	0.784557607407162	0.089646736459539	0.597899643335411	-0.000287229260095937	0.00529488719738708
0.99	5.81270559860775	5.13416925336933	526.702764515999	-46.5752304045494	0.787616445650212	0.101327549533724	0.607753516814643	-0.000281759277600806	0.00514962859651377
1	5.80151388988172	5.1193133941828	526.704837395636	-46.5046887621296	0.794274006428772	0.113071961403377	0.617684665418126	-0.00026947907174959	0.00501397105872441
1.01	5.78920423544735	5.09595770236242	526.704332339062	-46.4409671921644	0.804331040812549	0.124652826698514	0.627414917089272	-0.000250773199318322	0.00489171649330664
1.02	5.77494526832277	5.06521049352177	526.702007865341	-46.3858844215092	0.817503958540151	0.135828896383241	0.636650963224974	-0.000226183251562305	0.00478620891407446
1.03	5.7579814663928	5.02841678881696	526.698457085823	-46.340919057676	0.83343517441034	0.146348554023383	0.64509265041044	-0.000196387852467552	0.00470017295638955
1.04	5.73769410949781	4.98708900354419	526.694057374163	-46.3071370599293	0.851706388516913	0.155954785988685	0.652442187449389	-0.000162177279543288	0.0046355834018495
1.05	5.71365315463392	4.94283264201248	526.688944484475	-46.2851408568883	0.871854238477425	0.164391540550945	0.658414172077915	-0.000124423799510527	0.00459357180292788
1.06	5.68565657863233	4.89727078614021	526.68301245989	-46.275042286611	0.893387664842002	0.171411494383268	0.66274625177813	-8.40489956650046e-05	0.00457437417892435
1.07	5.65375466870855	4.85197113640523	526.675938212676	-46.2764601238932	0.915806257667047	0.176785084072552	0.66521012136747	-4.19894979890704e-05	0.00457732148707635
1.08	5.6182578218808	4.80837914205932	526.667227391161	-46.2885415626433	0.93861880565078	0.180310490678307	0.665622440694641	8.37396777900743e-07	0.00460087229732753
1.09	5.57972756119645	4.76776035421524	526.656276292935	-46.3100057284842	0.961361251788105	0.181824104634614	0.663855146554666	4.356671609875e-05	0.00464268494825157
1.1	5.53895160534819	4.73115457158703	526.642443307246	-46.3392061859951	0.983613273209617	0.181210863937317	0.65984455240998	8.54159703917502e-05	0.00469972455223708
1.11	5.49690485921891	4.69934365458421	526.625122779072	-46.3742085366542	1.00501274891662	0.178413766319361	0.653598594100331	0.000125711159149142	0.00476839864582539
1.12	5.45469905787705	4.67283409753163	526.603814316326	-46.4128786168228	1.02526745761372	0.173441818259181	0.645201601056723	0.000163907489024054	0.00484471411523503
1.13	5.41352444295712	4.65185461581077	526.57818136759	-46.4529765163786	1.04416345753421	0.166375707658406	0.634816055493363	0.000199603906775948	0.0049244473078998
1.14	5.37458724433395	4.63636817346335	526.548094267625	-46.4922516416279	1.06156973829878	0.157370574684775	0.622680943950903	0.000232550829117135	0.0050033189793077
1.15	5.33904686769415	4.62609709691323	526.513654712517	-46.5285343144038	1.07743889710854	0.146655402483318	0.60910649644785	0.000262650756964518	0.00507716590387723
1.16	5.30795655584104	4.62055923894755	526.475200580747	-46.5598198900088	1.09180377208039	0.134528746452542	0.594465332478574	0.000289951778272768	0.00514210155793014
1.17	5.28221092195532	4.61911261464242	526.433291945213	-46.5843420360544	1.10477015704884	0.121350753009955	0.579180270454529	0.000314634277438093	0.00519465920114076
1.18	5.26250318492593	4.62100555853197	526.388680823528	-46.6006325831709	1.11650591632312	0.107531668202467	0.563709286835538	0.000336991468379024	0.00523191186515158
