Time [s]	GRFml [N]	GRFap [N]	GRFv [N]	Mml [N.m]	Map [N.m]	Mv [N.m]	Mfree [N.m]	COPml [m]	COPap [m]
0.01	-1.18759012953298	1.10297855779269	556.439977570677	-13.0890726701963	22.9824052218808	0.361341356222847	-0.37894768562014	0.000453311313882709	0.00094216414781223
0.02	-1.22904715738481	0.887894680440731	557.63879222311	-13.1255600394934	23.0007515983977	0.346536710362144	-0.354235759224382	0.000442752229935173	0.000888440044178818
0.03	-1.26492410981085	0.702761155020031	558.729873753645	-13.1623971891829	23.018473900789	0.335687419067622	-0.3348452311576	0.000427024521350794	0.000841692143955575
0.04	-1.29051254953425	0.571087703534511	559.620485895087	-13.2004175375622	23.0347978392283	0.33167763159539	-0.324738465483064	0.00040071939196884	0.000807473451023499
0.05	-1.30316255339202	0.505057724919134	560.249832193699	-13.2400420555124	23.0488194507833	0.335612006090958	-0.325582823259526	0.000360506441836272	0.000788679281571003
0.06	-1.30276785796073	0.503993711921559	560.597749531285	-13.2809922842931	23.0595585604917	0.346670744935237	-0.336531690777863	0.000306018394284013	0.00078499876955479
0.07	-1.2916438559083	0.556114721979817	560.685654410534	-13.3220520638904	23.0661189891281	0.362532080684767	-0.354723312365854	0.000240325193392121	0.000793153123898216
0.08	-1.27385958158681	0.642689922430484	560.569703061489	-13.3609368923111	23.0679371780756	0.380169879915783	-0.37626643942128	0.000169886066871183	0.000807882048652675
0.09	-1.25421397232242	0.743060258609107	560.327952748236	-13.3943756562233	23.0650396492447	0.396724619890205	-0.397343068783236	0.000103863837995211	0.000823390512573963
0.1	-1.23708302722141	0.838982694427641	560.044607266598	-13.4185086652889	23.058180497552	0.410159614148506	-0.415070546001255	5.27444532527621e-05	0.000834784773418251
0.11	-1.2253193533636	0.917277686974679	559.79480687006	-13.4296268154928	23.0487331443197	0.419532993134974	-0.427906947245581	2.63649872169758e-05	0.000839008960692889
0.12	-1.21933279876074	0.970549937006672	559.632888825309	-13.4251364325781	23.0382872053952	0.424881015136384	-0.435582996483002	3.16834330628124e-05	0.000834977040950813
0.13	-1.21649661129928	0.996455483492958	559.585903329388	-13.4044937938073	23.0280333132628	0.426848944125427	-0.438713578624516	7.08267058204815e-05	0.000822922048264785
0.14	-1.21110972377054	0.996340094729986	559.652836291788	-13.3697873055722	23.0181487895371	0.426269430009345	-0.438318412091784	0.000140013648203707	0.000803319902148214
0.15	-1.1952027244881	0.973996594234423	559.808827026198	-13.3257036294445	23.0074540976908	0.423860933932494	-0.43544946201361	0.000229794637725655	0.000775934095362141
0.16	-1.16036092830581	0.934902057424859	560.012891730635	-13.2787925257029	22.9935476706785	0.420126401660806	-0.431016612278279	0.000326696188992837	0.000739471195637997
0.17	-1.10038574515389	0.885840456153842	560.217332413582	-13.2361819192071	22.9734541040424	0.415425459067701	-0.425784990021265	0.000415921320688351	0.000692048273275903
0.18	-1.01412466017729	0.834531326182433	560.377067282152	-13.2040953660609	22.9446059178221	0.410121186158794	-0.420444239016318	0.000484400375620586	0.000632279593566487
0.19	-0.907423407981262	0.788897528640256	560.457442355617	-13.1866053493202	22.9058200521748	0.404691233155822	-0.415647738306923	0.000523355886206001	0.00056047681976229
0.2	-0.793168744927907	0.755879851168717	560.439544784779	-13.1849842737854	22.8579064286038	0.399736907435754	-0.411974648504728	0.000529692715607877	0.000479377594269415
0.21	-0.688922085901621	0.740072930721822	560.322531415681	-13.1978207106449	22.8036760049583	0.395892180037028	-0.409839036371736	0.000505892840278688	0.000394013575907792
0.22	-0.612552138334943	0.742701257923409	560.122945697591	-13.2218268509674	22.7473448801251	0.393689542523999	-0.409414684558557	0.000458545239265695	0.000310707339211513
0.23	-0.577180152192446	0.761427645536127	559.871384684173	-13.2530585086589	22.6935558227434	0.39345555722122	-0.41063836735852	0.000396023533149936	0.000235565036340923
0.24	-0.587210954320308	0.791185056365076	559.607168970735	-13.288161298106	22.6463586294842	0.39528337997476	-0.41330601523517	0.00032602920165381	0.000173029312704187
0.25	-0.636958422025419	0.825789275120217	559.371845226482	-13.3252674145486	22.6084592491915	0.399081901215958	-0.41721704948001	0.00025370703589922	0.000124991018012388
0.26	-0.712436511581021	0.8597423895812	559.202426123327	-13.3642842026254	22.5808945695429	0.404660076894316	-0.422288648093601	0.000180834735261093	9.06804968099362e-05
0.27	-0.795657656960119	0.889554908901559	559.125296627998	-13.4065027287455	22.5631032484426	0.411792043054313	-0.428573846530969	0.000106255889742224	6.72233337787875e-05
0.28	-0.869800807401473	0.914145063169963	559.151739282643	-13.4536622123669	22.5532394604974	0.420227372778316	-0.436168163939902	2.7355691507025e-05	5.05206886277088e-05
0.29	-0.923325095208292	0.934306883492686	559.276029264434	-13.5067782071888	22.5485675100042	0.429647453118058	-0.445050130402177	-5.79290487090489e-05	3.60957277735219e-05
0.3	-0.951642350478613	0.951659354999501	559.476881227653	-13.5651271095733	22.5458611360828	0.439601976707603	-0.45493842950788	-0.000149233061426002	1.97109529658235e-05
0.31	-0.95607511627592	0.967685511471181	559.722501158692	-13.6257455260723	22.5418362028575	0.449472494007975	-0.46524309094311	-0.000242648750465202	-2.21438993236456e-06
0.32	-0.941006475432968	0.983342590134922	559.978528340252	-13.6836535651538	22.5336851940794	0.458499005538148	-0.475144341165863	-0.000330779898749745	-3.2216558500886e-05
0.33	-0.910837671948992	0.999339600579556	560.21694397851	-13.7327880334462	22.5197162410156	0.465878784570702	-0.48377381375589	-0.000404021124732368	-7.12877494165598e-05
0.34	-0.868293364811846	1.01674379936277	560.423076850959	-13.7674041292593	22.4999589019784	0.470917389268049	-0.490428063778505	-0.00045275604990469	-0.000118304085896082
0.35	-0.8148018109512	1.03733593440615	560.59777171049	-13.7835465986824	22.476471678475	0.473191360075265	-0.494733612552463	-0.000469888812341446	-0.000169641293822298
0.36	-0.752522360145612	1.06323673923444	560.753001411482	-13.7801565440251	22.4530711333061	0.472675469274433	-0.496707879609297	-0.000453009466728993	-0.000219351576642546
0.37	-0.686655149409144	1.09574505874101	560.901563049214	-13.7594816043581	22.434352491315	0.469793982888768	-0.496706211068314	-0.000405573262035275	-0.000260176944291868
0.38	-0.626414432239744	1.13385462304039	561.044236509317	-13.7266637093218	22.4241560961928	0.46537171419818	-0.495288785205235	-0.000336723413121631	-0.000285364000313815
0.39	-0.583628239466965	1.17326500877675	561.159730613007	-13.6886234579488	22.4239403703416	0.460482692007611	-0.493063243908002	-0.000259738574621804	-0.000290839754165717
0.4	-0.569096251988764	1.20665211442479	561.202808251002	-13.652562853084	22.4316995559283	0.456218299790303	-0.490552697831468	-0.000189443836153491	-0.000276997296268511
0.41	-0.588054923554849	1.22548242266456	561.11370292834	-13.6245014524615	22.4419953724947	0.453418965889268	-0.488112125011852	-0.000139188885588726	-0.000249301305165983
0.42	-0.636776519624553	1.22293347563388	560.837817780711	-13.608216391075	22.4473339637493	0.452429668600601	-0.485886693250919	-0.000118096908990117	-0.00021723119737832
0.43	-0.702105727550631	1.19685454175073	560.35015145167	-13.6047971714253	22.4406133136087	0.452945140896105	-0.48379089276819	-0.000129202290519603	-0.000191657040598869
0.44	-0.764652877860643	1.15148867896643	559.675778528167	-13.6128185381045	22.4178850052102	0.454001595108396	-0.481495612553792	-0.000168862251456958	-0.000181378182558978
0.45	-0.804847783045116	1.09703041649675	558.897577179873	-13.6289615716271	22.3804283859025	0.45414565131338	-0.47843483945847	-0.00022752563433992	-0.00018998233007228
0.46	-0.809752752234391	1.04690481170852	558.145773884102	-13.6488350354251	22.3352605472737	0.451769389337128	-0.473866292325699	-0.000291655383992784	-0.000214199556942518
0.47	-0.778011725600196	1.01359430355521	557.569896236985	-13.6677779741519	22.293694515492	0.445550439366792	-0.467021289556971	-0.000346388999301062	-0.000244482795282275
0.48	-0.720837935654465	1.00450070737701	557.300298493853	-13.6815220429867	22.2682488204475	0.434891430007609	-0.457349189251254	-0.000378406402484099	-0.000267783154462131
0.49	-0.658353779671575	1.01940766370639	557.410978835512	-13.6866933749784	22.2688445311008	0.420230809505905	-0.444809170588235	-0.000378455147215351	-0.000271684588981635
0.5	-0.612368015127413	1.05054671242832	557.895946163986	-13.681184619952	22.2995473442868	0.40311102372404	-0.430111053125666	-0.000343049657002492	-0.00024852803724229
0.51	-0.598122413838906	1.0852857779301	558.667416891062	-13.6644122069046	22.3569821269186	0.385944383757948	-0.414786509392832	-0.000275007943117411	-0.000198104762075046
0.52	-0.618085711123867	1.11045120425341	559.576952331199	-13.6374196764274	22.4310006526905	0.371501403130006	-0.40100211094519	-0.000182707338579169	-0.000127963648508533
0.53	-0.660271755915599	1.11667238225956	560.45295485625	-13.6027475338296	22.5074189306592	0.362236851850419	-0.39110463731444	-7.82063725300874e-05	-5.11930008876837e-05
0.54	-0.701995671687918	1.10114972357742	561.142645726548	-13.5640086735481	22.571941019735	0.359634070527721	-0.386991632994466	2.53546019899353e-05	1.75923258001753e-05
0.55	-0.718007449652263	1.06788246514205	561.545701731573	-13.5251961934871	22.6140059381624	0.36376128008734	-0.389486036530231	0.000116463457135563	6.67175354529537e-05
0.56	-0.69027393083577	1.02539459379958	561.630330688312	-13.4898731748579	22.6293627907912	0.373183997003867	-0.39792465896026	0.000187385595485812	9.0893979268647e-05
0.57	-0.615938053140647	0.982966337408865	561.429145009441	-13.4604879807531	22.6206569823433	0.385277490399753	-0.410127640833477	0.000235202073451513	9.2554674033074e-05
0.58	-0.510463683611437	0.946934450133069	561.019116214994	-13.4380629801486	22.5960096464068	0.396864858616031	-0.422809487761279	0.000261482125645029	8.07431727680163e-05
0.59	-0.404535628957544	0.918552691122205	560.494572768639	-13.422395496768	22.5662325247785	0.40500977353055	-0.432356263351434	0.000270735865665728	6.80630450987652e-05
0.6	-0.335400191377553	0.894238898036306	559.94310839924	-13.4127177946892	22.5417075378631	0.40774971732479	-0.435773177325203	0.000268175641408908	6.68204229638536e-05
0.61	-0.335272044484351	0.868044693358897	559.431447642307	-13.4085636669649	22.5299537069234	0.404576765380875	-0.431541395748844	0.000257546785032869	8.56815372501374e-05
0.62	-0.420521987920317	0.835263466338026	559.00325480349	-13.4104712353935	22.5345376360985	0.396547426809539	-0.420133398045504	0.000239777125681795	0.000127875537654198
0.63	-0.585213055870689	0.795609588640892	558.685785685167	-13.42017644948	22.5554241443294	0.386004417240756	-0.404020619700826	0.000212926653315737	0.000191339157507353
0.64	-0.801214115217972	0.754552553570766	558.499174135661	-13.4401245516029	22.5903374974173	0.375991387075382	-0.38714257483241	0.000173473151232728	0.000270483969488478
0.65	-1.02504656460834	0.722119261373514	558.462048232512	-13.4723903829412	22.6364047309085	0.369512247554261	-0.37395607061576	0.000118493870026826	0.000358739866795244
0.66	-1.20951061224243	0.709499588085557	558.589827078219	-13.5173544169515	22.6913687454509	0.368816315226388	-0.368304828514951	4.796224910808e-05	0.000450864777200799
0.67	-1.31668086154305	0.724697678583779	558.886133814384	-13.572628362488	22.7539482821907	0.374876769562189	-0.372408511476296	-3.3704475639329e-05	0.000544231012720442
0.68	-1.32849311802896	0.768899507089965	559.331487096676	-13.6326972991364	22.8233417999763	0.387179484427392	-0.386246881037705	-0.000117499033224222	0.0006387776829202
0.69	-1.25191930098583	0.835003697591738	559.875282084978	-13.6895420433386	22.8982442534935	0.403864492990395	-0.407513227029706	-0.000191286958600378	0.00073584838745322
0.7	-1.117334351468	0.908978391433957	560.436354128018	-13.7341880956302	22.9759281577038	0.422178932427363	-0.432157872197615	-0.000242550769472882	0.000836511616471636
0.71	-0.970587083155829	0.973674976066673	560.91447384717	-13.7588026088759	23.0518798309682	0.43912593178827	-0.455380363639042	-0.000261636662049813	0.000940068436929065
0.72	-0.860942828699299	1.01384912297358	561.211109411297	-13.7587425837588	23.1202260415943	0.452146038486096	-0.472804961298584	-0.000244511108818402	0.00104328910079304
0.73	-0.828062342528831	1.02073100424522	561.254191263553	-13.733927724669	23.1748552467571	0.459660028275885	-0.481524856639847	-0.000194138904830998	0.00114059302107211
0.74	-0.89134035877761	0.994670501486261	561.019678270229	-13.6890891832833	23.2108674966165	0.461339181038531	-0.480740599099694	-0.000119995396705375	0.00122504679871166
0.75	-1.04428952884885	0.945054331403396	560.543079282012	-13.6327779082537	23.2258738143615	0.458043768110263	-0.471834937062985	-3.58022847491979e-05	0.00128982771671465
0.76	-1.25541806735114	0.887583923515895	559.916598067869	-13.5753945584152	23.2207317203817	0.451462650368324	-0.457884354505641	4.38594119244184e-05	0.00132973437319361
0.77	-1.47549549459704	0.839804154057601	559.271468047063	-13.5267989019152	23.1994996526211	0.443569375227654	-0.442760368246429	0.000107047662650905	0.00134239099212768
0.78	-1.6495510977909	0.816240151395737	558.749190675722	-13.4941691676396	23.1686317188538	0.436057678312182	-0.430078075170022	0.000147036135313194	0.00132891401741098
0.79	-1.73073005788989	0.824526010182221	558.468624216181	-13.4806749351591	23.1356321931021	0.429917720621178	-0.422279001988611	0.000163265552441283	0.00129392538973538
0.8	-1.69253614825655	0.863536947748699	558.497289971838	-13.4852448587106	23.1074990259996	0.425265837891146	-0.420086537587389	0.00016052872954786	0.00124488765986747
0.81	-1.53621972760974	0.923916165916076	558.834444385358	-13.5033600354832	23.0893028100928	0.421461595649369	-0.422462782703214	0.000146836098243619	0.00119082502648049
0.82	-1.29116184275422	0.990716912603213	559.410558373783	-13.5285122382433	23.0831951005683	0.417460480972685	-0.427056567434007	0.000130801919255741	0.00114061171503449
0.83	-1.00787024603626	1.04734187687077	560.103572108375	-13.553828892397	23.0880450955137	0.412282034131761	-0.430999110459275	0.00011945193368279	0.0011011512124125
0.84	-0.745221718732632	1.0796814439387	560.76780499701	-13.5734112476423	23.0997836774933	0.405439258959967	-0.431809278638432	0.000117081174716538	0.00107588385155455
0.85	-0.555290114897506	1.07937646429269	561.267984131993	-13.5831147479644	23.1123977611452	0.397185373901411	-0.428140031791359	0.000125319619276421	0.00106406853676733
0.86	-0.469938933896414	1.04542782750412	561.509544727624	-13.5807327049789	23.1193790781831	0.388488563479628	-0.420143754149735	0.000144095186049409	0.00106113513684014
0.87	-0.492990549472906	0.983849042697511	561.457576772135	-13.5657348989322	23.1153168519748	0.38073302318851	-0.409349866471667	0.000172898509339992	0.00106011375266923
0.88	-0.600236631530985	0.905579703607493	561.140177658334	-13.5388035655866	23.0972696109691	0.375241390072793	-0.398103619974674	0.000211739171478986	0.00105380622767287
0.89	-0.747254297549476	0.823316521646575	560.636461252027	-13.5013909403643	23.0655865536045	0.372786964888892	-0.388761887205276	0.000261409269619706	0.00103710168030074
0.9	-0.88265849563635	0.748170818580629	560.053662155597	-13.455427884067	23.0239763653907	0.373282874407534	-0.382927310016767	0.000323018010444875	0.00100875873203271
0.91	-0.96282069116945	0.687068496131722	559.500380351039	-13.4031958266904	22.9788106578222	0.375784075377103	-0.380989913652667	0.000397079792647359	0.000972121353644884
0.92	-0.963751689064154	0.641567976613386	559.063318546605	-13.3472847158302	22.9378444264881	0.378827819885657	-0.382133170514936	0.000482607942840496	0.000934556469805947
0.93	-0.886875246385767	0.60834195662437	558.792950115958	-13.290527703825	22.9086761859657	0.381006403981211	-0.384787212898689	0.000576638025203247	0.000905786693219057
0.94	-0.75741981089546	0.581065626408102	558.700235972071	-13.2358324295443	22.8973128717622	0.381564279640651	-0.387341230882074	0.000674408359123468	0.000895606216614553
0.95	-0.616411503505305	0.553028809781906	558.763010760634	-13.1858995839085	22.9071410263552	0.380784638099176	-0.388828342798844	0.000770148960475447	0.00091160887972408
0.96	-0.509002782348695	0.519587315054966	558.938151120188	-13.1428984652543	22.9384658402553	0.379995899377623	-0.389311223426367	0.000858183639203647	0.000957492605231536
0.97	-0.472605258508101	0.47967218169067	559.17481599447	-13.1082198801814	22.9886183928379	0.381166250147021	-0.389821324943953	0.000933927856634709	0.00103228084079809
0.98	-0.527913564586712	0.435957733215095	559.424929521078	-13.0824222161249	23.0525063326019	0.386212594270325	-0.391887946225713	0.00099441465248129	0.00113051923002039
0.99	-0.6747075056439	0.393806682986336	559.649074026499	-13.0654218417524	23.1234299457878	0.396265657875469	-0.396859137044772	0.00103818483653029	0.00124326946064063
1	-0.892820405361949	0.35955106418245	559.818163303407	-13.0568768884485	23.1940043002992	0.411157801004564	-0.405295417797597	0.00106465507744269	0.00135959762102555
1.01	-1.14736930117928	0.338844208242302	559.912803289905	-13.0566180081035	23.2570867930172	0.429323495163856	-0.416678745098297	0.00107331219298057	0.00146824703223897
1.02	-1.39657129523716	0.335661135739078	559.922600409957	-13.0649377003303	23.3066618128823	0.448155220424792	-0.429543438300539	0.00106316872331036	0.00155925107320248
1.03	-1.60027706286814	0.352119548690398	559.846847661814	-13.082587787785	23.3386445733053	0.464697811067452	-0.441963354640177	0.00103280772807646	0.0016253169992253
1.04	-1.72759030899351	0.388847761159899	559.696493648417	-13.1104439911139	23.3515277602196	0.476451807254702	-0.452192510322403	0.000981081401591921	0.00166285067569327
1.05	-1.76238057339277	0.445365915309088	559.495844922291	-13.1489355507266	23.3467341288622	0.482028663330798	-0.459207199798954	0.000908216791914884	0.00167248712482299
1.06	-1.7059470377877	0.520007027960139	559.281793942561	-13.1974491464922	23.3285035920933	0.481461154216371	-0.462950105229868	0.000816856160596457	0.00165897595723791
1.07	-1.57648011431169	0.609258532418559	559.098891940225	-13.2539515466372	23.3031810494115	0.476093502262137	-0.464204026667545	0.000712521735604765	0.00163029871472192
1.08	-1.40533951711869	0.706874929021736	558.990175256077	-13.31501548148	23.2779013383875	0.46811264766839	-0.46417112398944	0.000603172388276674	0.0015960118390948
1.09	-1.23061383285273	0.803449935639632	558.985697109243	-13.3762972442964	23.2588680943195	0.459888936581602	-0.46394444573423	0.000497852104398788	0.00156501927051783
1.1	-1.08898462431922	0.887140419948033	559.092344051342	-13.4333528992375	23.2496293067964	0.453339088807263	-0.464090314468416	0.000404789198885092	0.00154323049523825
1.11	-1.00749205120301	0.945846929779973	559.288938826211	-13.4825546554922	23.2498748638025	0.44949694799272	-0.464502926520391	0.000329546620815968	0.00153175124760802
1.12	-0.99715806836382	0.970501725643683	559.529474612928	-13.5218280746569	23.255239928886	0.448392891145298	-0.464571699700883	0.000273845698726349	0.00152626792325178
1.13	-1.05029719645181	0.95846367986406	559.754819156024	-13.550988745581	23.2583594557056	0.449233910440716	-0.463568268428874	0.000235472785596103	0.00151804620020046
1.14	-1.1425816907855	0.915679269925616	559.910170356241	-13.5715893844518	23.2510268485785	0.450782350662488	-0.461069353441937	0.000209309018891379	0.00149648765370491
1.15	-1.23963117407702	0.856455555032202	559.963048295991	-13.5863436773505	23.2268861397735	0.451782904657795	-0.457221542579801	0.000189137640922543	0.00145261242571992
1.16	-1.30645212374634	0.800414959120159	559.915695641296	-13.5983164845079	23.1837987011765	0.451296645674966	-0.452727589181388	0.000169623792088958	0.001382384344082
