Time [s]	GRFml [N]	GRFap [N]	GRFv [N]	Mml [N.m]	Map [N.m]	Mv [N.m]	Mfree [N.m]	COPml [m]	COPap [m]
0.01	-1.50163939114527	0.679834936342886	751.96011586422	7.01528427862825	19.7355868231009	0.820476253572968	-0.852324693182005	-0.00232264609654109	-0.000796587309450425
0.02	-1.35888189545158	0.707905574554926	751.827969114414	6.99321275418672	19.5969625026387	0.886460424300652	-0.917533681943669	-0.00235216558587759	-0.000974023319222417
0.03	-1.27647731701134	0.743346429726683	751.782636906243	6.97176309014934	19.4894901668721	0.943975762322348	-0.975055141837644	-0.00238184399050634	-0.00111323341641156
0.04	-1.30108406512903	0.792008425607568	751.902792020338	6.95108244434389	19.4402239089884	0.98602188372807	-1.01849944168151	-0.00241237707738085	-0.00118112558869743
0.05	-1.45122933182067	0.856698189882841	752.226586693285	6.93052523691806	19.4649423892261	1.00873617841241	-1.04426382881926	-0.0024450367878005	-0.0011581226135905
0.06	-1.7125926999055	0.936254025456942	752.739116069962	6.90860946097499	19.5647752353393	1.01211950063775	-1.05218680733822	-0.00248158380399044	-0.00104219836857206
0.07	-2.04208133583832	1.02546511635162	753.371479516918	6.88336165089398	19.7257072672011	0.999873022840547	-1.04542000948108	-0.00252380234448302	-0.000849510425056599
0.08	-2.37925208731246	1.11601398028957	754.012355187266	6.85298105780552	19.9212120948901	0.978394265098769	-1.02955736872545	-0.00257275916246613	-0.000611323329147762
0.09	-2.66175303548094	1.19834565718216	754.53047294602	6.81664739632376	20.1176047136337	0.95519065591191	-1.01124634623226	-0.00262799966680516	-0.000367705409136332
0.1	-2.84060840697134	1.26402790438324	754.803816512519	6.77523664143812	20.2810413627016	0.937110572337879	-0.996629970404048	-0.00268694362787048	-0.000159270996319849
0.11	-2.89146691875432	1.30791941588671	754.74935227621	6.73170553339772	20.3846235614779	0.928826265974978	-0.989998469549826	-0.00274472435712603	-1.8796530246723e-05
0.12	-2.8192043961811	1.32944727709479	754.346214334665	6.690962607592	20.4139489779931	0.931924164001217	-0.992961434623082	-0.00279462957807131	3.53371364698041e-05
0.13	-2.65513517610584	1.33255340171767	753.646096684187	6.65916116620665	20.3697759434927	0.944790469117846	-1.00430826483114	-0.0028291563447107	2.32330725019603e-06
0.14	-2.44803657307943	1.32431890252554	752.767239690316	6.64251086986866	20.2671821292282	0.963271060995959	-1.02054653012863	-0.00284151003294286	-0.000101970144346986
0.15	-2.25171035652046	1.31274108938232	751.872382429523	6.64586825542252	20.1315171911664	0.981891110404476	-1.03694191155868	-0.00282720776795564	-0.000249596746602077
0.16	-2.11250291597007	1.30443390303864	751.135345269574	6.67147409541144	19.9923010106852	0.995292410267222	-1.04877143973019	-0.00278535460330365	-0.000407460388542003
0.17	-2.05992756067657	1.30303033483384	750.704177395763	6.71820590185831	19.8767311690816	0.999516279910106	-1.05246989756245	-0.00271919838483436	-0.000544646682474559
0.18	-2.10240979148759	1.3087805263902	750.669906438295	6.7815908524958	19.8044666406535	0.9928296313155	-1.04640092620864	-0.00263574455144688	-0.000638258160637617
0.19	-2.2285838161742	1.31937266969451	751.048388433734	6.85461067644336	19.7848554445837	0.975935472443431	-1.03110006748632	-0.00254447656257173	-0.0006764622262313
0.2	-2.41300311481182	1.33153878014944	751.779037642688	6.92909760151171	19.8169570045657	0.951581223650063	-1.00898094187503	-0.00245549160750091	-0.000658415260456457
0.21	-2.62405301286229	1.34272821179155	752.739584276321	6.99735134948972	19.8918678272039	0.923728589699521	-0.983627534614258	-0.00237753123057916	-0.000591683849854141
0.22	-2.83155737666047	1.35214897032521	753.7720327782	7.05355877683668	19.9962765353409	0.896538335797322	-0.958882191038035	-0.00231640478140793	-0.000488421130032168
0.23	-3.01208298895691	1.36077954546213	754.712891221046	7.09468009914342	20.1160196490769	0.87343533814012	-0.937963799024171	-0.00227417078057879	-0.000361690716922103
0.24	-3.15102819874834	1.37041268342359	755.420904502317	7.12064065826957	20.238680136202	0.856461886244152	-0.922816241195257	-0.00224921179334381	-0.000222978612335722
0.25	-3.24181976607547	1.38221419958114	755.797455577539	7.13386885796198	20.3548110845034	0.84602734070722	-0.913811136591065	-0.00223709345296796	-8.12832460740931e-05
0.26	-3.28348283877835	1.39549016276911	755.797470000756	7.13838384628479	20.4579437903502	0.841053463825969	-0.909835456284294	-0.00223191233327025	5.65011528969039e-05
0.27	-3.27817641079214	1.40727134828465	755.431039805305	7.13871893442441	20.5439384341319	0.83942505132064	-0.908706236317986	-0.00222775424353305	0.000184642580681904
0.28	-3.22993555919445	1.41298465136299	754.757467082709	7.1389592418244	20.6103371476204	0.838600662001819	-0.907787334037885	-0.00221991036065805	0.000297891922536653
0.29	-3.1450372320867	1.40802910328258	753.873956738496	7.1420931170607	20.6561916234072	0.836222300784007	-0.904646749651428	-0.00220560908604295	0.000391621978842183
0.3	-3.03348866292769	1.38969106920703	752.901087117993	7.14976059323374	20.6824761131126	0.830582767766099	-0.89759304566262	-0.00218417559966533	0.000462864522323359
0.31	-2.91051715803176	1.35866713122597	751.966872628177	7.16236494982723	20.6928284032743	0.820858551495162	-0.885967356255594	-0.00215668498343657	0.0005118454202237
0.32	-2.79685709961804	1.3195746658354	751.190974364291	7.17942434342865	20.6941358450876	0.807084830929753	-0.870137854653588	-0.00212529237876424	0.000543324727233674
0.33	-2.71708700645805	1.28017657390863	750.67046712698	7.19999644595654	20.6964799257944	0.789922266137735	-0.851230366266574	-0.00209248209619306	0.000567046162723184
0.34	-2.69604836747418	1.24950182225582	750.468452926717	7.22301552721809	20.7121580810517	0.770322655789608	-0.830706505236626	-0.00206046824655559	0.00059687448789808
0.35	-2.75414602331292	1.23544124994876	750.606633068842	7.24743465683902	20.7538247937419	0.749222593492259	-0.809941824592488	-0.00203090631312719	0.000648632793213366
0.36	-2.90278455942356	1.2425889987033	751.062681152984	7.2721530834829	20.8321097930932	0.72737105311175	-0.789943844139551	-0.00200495479050444	0.000737078611208697
0.37	-3.1411865873637	1.27100845103252	751.772895060124	7.29580669078464	20.9532696223719	0.705335328571789	-0.771286564474147	-0.00198359027000505	0.000872732464085202
0.38	-3.45541922345634	1.31626308035308	752.640120858244	7.31657323658139	21.1174538498999	0.683653350574115	-0.75424875932673	-0.00196797376665658	0.00105932181190105
0.39	-3.81983467500567	1.37060604291305	753.546295388776	7.33215834756978	21.318026661796	0.663039771288658	-0.739064287068643	-0.00195963748583683	0.00129244020590052
0.4	-4.20056279041692	1.42485166385085	754.368177516277	7.3400655677517	21.542134753877	0.644532733833162	-0.726155771006226	-0.00196033351091529	0.00155972025517531
0.41	-4.56034900590204	1.47030038247195	754.994107462272	7.33813207345217	21.7724288857037	0.629495165954722	-0.716241318541176	-0.0019715380601355	0.00184247398067916
0.42	-4.86393269160122	1.5001916706329	755.339237138983	7.32518376394676	21.9895975708598	0.61944608536322	-0.710266363412207	-0.00199377096361131	0.00211844485558432
0.43	-5.08320735946022	1.51043498041023	755.356849840505	7.3015926551105	22.1752045355952	0.615767500278138	-0.709190076170269	-0.00202598862991532	0.00236509475386032
0.44	-5.20146647864168	1.49966876623437	755.044147488412	7.26954383752267	22.3142615824887	0.619382835170261	-0.713714782920549	-0.00206528892512559	0.00256274634322495
0.45	-5.21606184475708	1.46888857812346	754.441969661109	7.23292717342268	22.397021569569	0.630514697839199	-0.724064525625361	-0.00210703893383379	0.00269693301973811
0.46	-5.13884762553088	1.42091273879741	753.628928027545	7.19690429644927	22.4196333316764	0.648600583031449	-0.739891543566494	-0.00214536996775205	0.00275947603613463
0.47	-4.9939857408134	1.35985691967355	752.711095842373	7.16729627122382	22.3835379871891	0.67238806631015	-0.760332458857982	-0.00217386464993286	0.00274809241862634
0.48	-4.81314443080294	1.29065986830453	751.808645483759	7.1499508435923	22.2937655301518	0.700169430722601	-0.784175918406703	-0.00218624237953557	0.00266468957972571
0.49	-4.62879077446461	1.21862475493147	751.040871688164	7.15018868511679	22.1565584073879	0.730073444326002	-0.810066223010415	-0.00217692497704092	0.00251284738816343
0.5	-4.46695286802458	1.14894065577592	750.511116709178	7.17234352599262	21.9769405521979	0.760324485218767	-0.836667148759738	-0.00214147467380899	0.00229523365196643
0.51	-4.34121279011673	1.08619426839142	750.293310725329	7.21935812082937	21.7569023180265	0.789406893285836	-0.862743442664916	-0.00207696916060496	0.0020117583237827
0.52	-4.24955019242728	1.03391874572151	750.422005979291	7.29240754553285	21.4947417895415	0.816120797874477	-0.887165848195248	-0.00198237049765415	0.00165909558710375
0.53	-4.17494802239763	0.994223206399236	750.887635830773	7.39058211297406	21.1857960289166	0.839561913456791	-0.908884626858811	-0.00185886684438397	0.00123180802754652
0.54	-4.08960252248551	0.96751534475467	751.638066888953	7.51072943481877	20.8243801410153	0.859081741534813	-0.926928329627696	-0.0017100732965164	0.000724790151789945
0.55	-3.96152776225958	0.95231105864834	752.586374861558	7.64757803212495	20.4063506907632	0.874278197210099	-0.940465771666181	-0.00154193668964198	0.000136269499810548
0.56	-3.76169865870442	0.945150705691519	753.623471875114	7.79421649454623	19.9314639475046	0.885036574371852	-0.948931449407231	-0.00136223748366859	-0.000529664119903961
0.57	-3.46986317232091	0.940703987327396	754.633191513612	7.94289521113561	19.4047138216173	0.891603196414241	-0.952176860901454	-0.00117970858391769	-0.00126196639439363
0.58	-3.07774653786854	0.932196933504505	755.507074117929	8.0859982167043	18.8361313712217	0.894645887549059	-0.950588265490148	-0.00100294090131692	-0.00204353837092186
0.59	-2.58930824864285	0.912277620890786	756.156516635206	8.21695648134464	18.2390277327921	0.895247030199569	-0.945112181603679	-0.000839347767353504	-0.00285402943645297
0.6	-2.01862469902064	0.874326047080495	756.520970464196	8.33087881888761	17.6272027017264	0.89478864777765	-0.937151262881445	-0.000694463691416347	-0.00367378522183121
0.61	-1.3865312989271	0.814036515212241	756.572058539859	8.42476445481364	17.012028596532	0.894720406417375	-0.928328013266557	-0.000571749844051728	-0.00448772764763344
0.62	-0.717213015674783	0.730930485982829	756.314356544771	8.49729747735593	16.4003986554597	0.896242354860667	-0.920153502670176	-0.000472908807098937	-0.00528789968716997
0.63	-0.0355438262256993	0.629373691228666	755.783825042917	8.54835254218616	15.7942483820466	0.899973557904658	-0.913673709216061	-0.000398543537794338	-0.00607380739350644
0.64	0.634623101964853	0.518720750662463	755.044488225736	8.57841296870485	15.1917994784505	0.905702825525168	-0.909187565987543	-0.000348896642007657	-0.00685043240411665
0.65	1.27152887763234	0.412389247582598	754.183252677086	8.58809475075822	14.5900398392944	0.912316793918825	-0.906128983468468	-0.000324409192181241	-0.007624610647671
0.66	1.85647168787329	0.325923069183918	753.302242733727	8.57789790230297	13.9874881067519	0.917967350742231	-0.903174668737165	-0.000325930053755363	-0.00840106222717996
0.67	2.37503140477945	0.27436860144917	752.508126041148	8.54821040279019	13.3861922542867	0.920478279035946	-0.898583012765487	-0.000354538660277681	-0.00917946990531121
0.68	2.81853071326637	0.269486117979758	751.898744508434	8.49951171703756	12.7922287825543	0.917915112217521	-0.890699377431198	-0.000411061949662561	-0.00995358066660085
0.69	3.18529921127476	0.317400825239639	751.548679462574	8.43268430470501	12.2145749355226	0.909176551865333	-0.878500922565658	-0.000495436430628549	-0.0107125133173877
0.7	3.48111897607029	0.417238235186179	751.496572360662	8.34933848720432	11.6628642232542	0.894435976561572	-0.862023080161712	-0.000606086188662314	-0.0114436246422206
0.71	3.71837655182651	0.561090029026698	751.737438548022	8.25206961730892	11.1449344069006	0.875284752872718	-0.842526612216983	-0.00073947309106448	-0.0121357633049561
0.72	3.9138693225323	0.735354638462783	752.222462730177	8.14458136279225	10.6650789709001	0.854505229324115	-0.822330464051656	-0.000889941900675817	-0.0127817252328461
0.73	4.08571427763759	0.923161568567962	752.866967384131	8.031623948568	10.2235473543252	0.835509909122745	-0.804334098470098	-0.00104993436370115	-0.0133791788554
0.74	4.25014421297372	1.10731542102216	753.565022798642	7.91872083154102	9.81730221313558	0.82158852507134	-0.791351627412742	-0.00121057979504313	-0.013930004117787
0.75	4.41899222024192	1.27307499791413	754.207383404433	7.81169844868178	9.44159061458748	0.815168643719756	-0.785443563089616	-0.0013625890387915	-0.0144385610413843
0.76	4.59836493020628	1.41015925391865	754.6987812463	7.71608512814758	9.09170422012513	0.817293737696939	-0.787436293905336	-0.0014973024205146	-0.0149096406247985
0.77	4.78855249163714	1.51361791689381	754.971265535448	7.63648798119389	8.7644162432934	0.82745544412352	-0.796761956590453	-0.00160769802634575	-0.0153467226860199
0.78	4.98485084895049	1.58353063710431	754.991840351844	7.57607002249566	8.45886323369955	0.843808384012928	-0.811652526500799	-0.0016891750664414	-0.0157508316831279
0.79	5.17884863421364	1.62379404033149	754.764352447079	7.53622546705048	8.17689837464152	0.86368461669609	-0.8296162443558	-0.00173998726724223	-0.0161199776125855
0.8	5.35986740521498	1.64043744475212	754.326695446318	7.5164992081069	7.92304427231018	0.884246904084936	-0.848046981172258	-0.0017612882609257	-0.0164490593975308
0.81	5.5164918746643	1.63994539980921	753.744616281139	7.51473990549922	7.70410770613659	0.903096961435363	-0.864790713773343	-0.00175682893515761	-0.0167301976607245
0.82	5.63827696878155	1.6279791220382	753.102966001411	7.52743735460619	7.52839474139464	0.918687814446008	-0.87852198159425	-0.00173238897744665	-0.0169536121210452
0.83	5.71763712516728	1.60872644935805	752.494722579725	7.55018344004858	7.40442771662101	0.930461453722967	-0.888852872167276	-0.00169502785502051	-0.0171091844060932
0.84	5.75164245716206	1.58491989247302	752.008102328949	7.57820500332308	7.33919851105816	0.938717685161807	-0.896182022679791	-0.00165222323742076	-0.0171886537885326
0.85	5.74315394507402	1.55838350175189	751.712770346693	7.60692902254579	7.33625467158676	0.944291146140744	-0.901363681340732	-0.00161095513097864	-0.0171880433202973
0.86	5.70066184981825	1.53083252851062	751.647257096469	7.63253965520688	7.3941595389108	0.948152920208957	-0.905316638750317	-0.00157681001822285	-0.0171096012883452
0.87	5.63648812701436	1.50458377619448	751.810540430848	7.65246895742529	7.50592603646118	0.951055284140948	-0.908692310348161	-0.00155321743231762	-0.0169624826316622
0.88	5.56361589557171	1.48286297647786	752.160708038113	7.66574017905213	7.65980951586341	0.953308561399976	-0.911686398442156	-0.00154096589602215	-0.0167616901808204
0.89	5.49206033266778	1.46952576621151	752.622359346825	7.67307585721382	7.84141296577176	0.954730876075544	-0.914024854470368	-0.00153814141064024	-0.0165253643037498
0.9	5.42605710098328	1.46821768213708	753.102149040475	7.6767102551156	8.03658557049316	0.954760112932362	-0.915100964069499	-0.00154056736674202	-0.0162711143984479
0.91	5.36317523728074	1.4812273045142	753.509316954367	7.67990793521532	8.23429458096042	0.95267603478713	-0.914202026134359	-0.00154270743224805	-0.0160124528452423
0.92	5.29576401131819	1.50845254574922	753.7761355518	7.68626740987116	8.42865839316023	0.947858182844517	-0.910749809672128	-0.00153886230064981	-0.0157563518393057
0.93	5.21418981246685	1.54692549832306	753.872754584754	7.6989490538937	8.61964179951082	0.940004810668572	-0.904488417353487	-0.00152440148971777	-0.0155025147628017
0.94	5.11053230064633	1.59119139643725	753.812268900971	7.71998370523105	8.81239330117843	0.929256532899145	-0.895578557198646	-0.00149676313288116	-0.0152443294793496
0.95	4.98115759743765	1.63454760201418	753.644643235736	7.74978750248313	9.01564609331876	0.916197977135147	-0.884587229133342	-0.00145603130874294	-0.0149709189420515
0.96	4.82700626244951	1.67082257193276	753.441468086564	7.78694827383989	9.23983727067076	0.901742379641103	-0.872386627290364	-0.00140502517821839	-0.0146694407745326
0.97	4.65136842114055	1.69614490689514	753.27621685987	7.82829002774125	9.49555386460148	0.886930311837287	-0.859990841163444	-0.00134895033749605	-0.0143268877344882
0.98	4.45599526534659	1.71012021860758	753.205774802925	7.86918860050778	9.79263785998702	0.872690741713202	-0.848364622826927	-0.00129472531208663	-0.0139310256350857
0.99	4.23718939919125	1.71601915785071	753.258175132328	7.90410582135142	10.1399082372829	0.859620081499683	-0.838239401222741	-0.0012500958890026	-0.0134705913558708
1	3.98371185270911	1.71991085252917	753.429104158104	7.92731248634688	10.5451439173111	0.84783377243169	-0.829971600165234	-0.00122261642769783	-0.0129352569678531
1.01	3.67784255235875	1.72901951010899	753.686771456978	7.93375520378907	11.0148418477231	0.836934991191382	-0.823476746449895	-0.00121855769463464	-0.0123159959252466
1.02	3.29987391289104	1.74980644753419	753.982281788085	7.91997487495198	11.5533724408153	0.826123878627464	-0.818264890562329	-0.00124182826030472	-0.0116063109920531
1.03	2.83503589254047	1.78631303230286	754.261515172237	7.88491846794996	12.1614670028549	0.814437025228809	-0.81358315759433	-0.00129306548139585	-0.0108043583483686
1.04	2.28077393310329	1.83915591036104	754.474974991831	7.83043921096602	12.8343773665805	0.801065849938728	-0.808640501019628	-0.00136911665163408	-0.00991547907318358
1.05	1.65183143806254	1.90532832963181	754.583727639394	7.76129717984268	13.5603871374705	0.785667691833258	-0.802858131367711	-0.00146312937399085	-0.00895423116396094
1.06	0.980972095906408	1.97873565130934	754.561609800223	7.68457408594793	14.32046915733	0.768572558349477	-0.796072469827757	-0.00156536348408742	-0.00794489486540662
1.07	0.314394987768956	2.05125339660946	754.395400948888	7.6085824621479	15.0896803536102	0.750812588468551	-0.788627446659454	-0.00166463911872705	-0.00691970903705502
1.08	-0.29738282237107	2.11405758064873	754.085015875926	7.54151914945415	15.8403831918887	0.733955488803313	-0.781327932769815	-0.00175011817766346	-0.00591474925335528
1.09	-0.810753011048269	2.159005430393	753.644887235517	7.49020934909572	16.5467331886976	0.719786060648251	-0.775270352079566	-0.00181297874155217	-0.00496418185663783
1.1	-1.19899519904766	2.17989133922133	753.106094571754	7.4592575461817	17.1893169931118	0.709923622659995	-0.771598923561129	-0.00184756045375511	-0.00409431663538601
1.11	-1.45787963513666	2.17343948784788	752.517332510188	7.45076826574996	17.7586101384549	0.705468789734584	-0.771242852139253	-0.00185174157598189	-0.00331913359134467
1.12	-1.60517607512511	2.13992318513015	751.942336957883	7.46458698481601	18.2561857319299	0.706742029851609	-0.774673489782735	-0.00182658252028545	-0.0026386145592292
1.13	-1.67447139065933	2.08333856116011	751.452296694767	7.49883628536193	18.6932980654199	0.713129997445515	-0.781697785700979	-0.00177551407994203	-0.0020403380667115
1.14	-1.70570456641254	2.01111328004283	751.113790319902	7.55046501633359	19.087351574941	0.723023134466833	-0.791295481790583	-0.00170345121280446	-0.00150369743104206
1.15	-1.73589205984021	1.93338527720759	750.975041231641	7.61561081116303	19.457501175144	0.733829439855407	-0.801522564492714	-0.00161613409075712	-0.00100520512253427
1.16	-1.79317930754442	1.86192036518727	751.054699640449	7.68974996913073	19.8209023695213	0.742082456489519	-0.80953416836013	-0.00151978688238485	-0.000523029999797919
1.17	-1.89574716045014	1.80874427545889	751.337152222367	7.76777893870806	20.1907979498791	0.743701313111685	-0.811802312964965	-0.00142095567128453	-3.93398189172944e-05
1.18	-2.05490570781562	1.78456319614393	751.776422616009	7.84424693262152	20.576800042871	0.734471816413217	-0.804590308590243	-0.00132626004825109	0.000459954944286689
