Time [s]	GRFml [N]	GRFap [N]	GRFv [N]	Mml [N.m]	Map [N.m]	Mv [N.m]	Mfree [N.m]	COPml [m]	COPap [m]
0.01	-3.14649363838136	0.116408420202005	937.169505958737	-24.3402693156246	43.3228504993901	0.587857274685177	-0.511536692345622	0.00150287614940647	0.00468700112511033
0.02	-3.02401680382894	0.158943336298746	937.463468234792	-24.3334566868192	43.0957813648713	0.545905503386439	-0.474700341713328	0.00152013628299807	0.00442793504388439
0.03	-2.93931428966495	0.203999147772325	937.71018062565	-24.3296255273601	42.9111218494234	0.512338737306752	-0.445384346303947	0.00153308918816697	0.00421640913175725
0.04	-2.9238799092557	0.25143819336468	937.869532766214	-24.3290343439239	42.8053193804449	0.494654338854296	-0.43027052928071	0.00154048573978471	0.00409325523519305
0.05	-2.99641078580086	0.29776209566048	937.921983563622	-24.3288389487816	42.802614739219	0.497987172033945	-0.433864911831273	0.0015448800225385	0.00408527763475819
0.06	-3.15908563946249	0.336731564186377	937.87206120846	-24.3235410412933	42.9110229385674	0.524204729315595	-0.45771547927027	0.00155223702882967	0.0042007991304373
0.07	-3.39699860566989	0.361500773672116	937.745737671241	-24.306854690432	43.1208698983774	0.571452495554591	-0.5000629759652	0.00156988247236522	0.00442823350416044
0.08	-3.68112213575553	0.367408009570501	937.58329103506	-24.2743229298661	43.4064392679539	0.634317182158282	-0.556045812590808	0.00160354692214681	0.00473819273661458
0.09	-3.9743592254769	0.354225780486258	937.43015199438	-24.225674808383	43.7306666905464	0.704669740771376	-0.618481172962059	0.00165463951193956	0.00508893768463553
0.1	-4.23936749684707	0.326861117516647	937.327976458487	-24.1659662077838	44.0520455222826	0.773084045388002	-0.679109456059982	0.00171882066068985	0.00543417202547924
0.11	-4.44621262885999	0.29414319258989	937.307238134906	-24.1049673763514	44.3322448295019	0.83055694747529	-0.730063283504599	0.0017864716559105	0.00573152136490762
0.12	-4.57781925291724	0.266156821310445	937.381726512972	-24.0548826157515	44.5426486447458	0.870145572204963	-0.765250234476369	0.00184497562475328	0.0059497733965696
0.13	-4.63175090767715	0.251200625054252	937.545055006735	-24.0270810474005	44.6682565178713	0.888136154467285	-0.781348685228915	0.00188209068237555	0.00607321317228648
0.14	-4.61794637569366	0.253576422590881	937.769716810501	-24.0288684452476	44.7081131753074	0.884477059465494	-0.778210748712031	0.00188933937552149	0.00610213873591864
0.15	-4.55332852123862	0.27299013321594	938.009871559896	-24.0613194383746	44.6724494418276	0.862414616886041	-0.75861936518412	0.00186437042921817	0.00604968891511931
0.16	-4.45523404649076	0.305570115117446	938.209095555442	-24.1188316631013	44.577686133597	0.827496339811843	-0.727511419974697	0.00181163052999012	0.00593614508130352
0.17	-4.335991726943	0.345767520398804	938.313196030825	-24.1904981832355	44.4410403820075	0.786272589956114	-0.690903257663647	0.0017412511460706	0.00578255233759728
0.18	-4.2005200841847	0.388067173465413	938.285993786642	-24.2628306375064	44.2764656293389	0.745074729362315	-0.654800241013841	0.00166659036875072	0.00560560807497129
0.19	-4.04764945432879	0.427680881242831	938.123648377683	-24.3229995504125	44.0930515949825	0.709160591582552	-0.624327534452789	0.00160119079785159	0.00541523901767443
0.2	-3.87441422432824	0.460095330499216	937.861980830264	-24.3616978468414	43.8960326377578	0.682336203281689	-0.603207821004528	0.00155594554113558	0.0052153025675612
0.21	-3.6813726680847	0.480133906282116	937.572369149049	-24.3749605202166	43.6895705373092	0.666965299380249	-0.593580804679599	0.00153705415218608	0.00500674578706606
0.22	-3.4765854733226	0.481629655633426	937.34520229855	-24.3646616086982	43.4798617517338	0.664150929730661	-0.596062267492525	0.00154503408828188	0.00479172902625735
0.23	-3.27642485038713	0.458618015754928	937.264460346981	-24.3377909862762	43.2770962096108	0.673869711686789	-0.609912858762225	0.00157477796970806	0.00457696861118845
0.24	-3.10270326327862	0.408178604914584	937.380881836285	-24.3048570594904	43.0953554971278	0.694953785559164	-0.633230352632098	0.00161649891750149	0.00437495707467234
0.25	-2.97717185960825	0.334034048216113	937.692635724135	-24.2778268234562	42.9504412679437	0.724984571767045	-0.66316005729865	0.00165737881589445	0.00420260920608601
0.26	-2.91557896259159	0.249254501202527	938.140632586799	-24.2679540165425	42.8564935733504	0.760293040533512	-0.696183759711191	0.00168374902962376	0.0040778960786127
0.27	-2.92368732988164	0.176338278855319	938.62111398693	-24.2837576695996	42.8227376811991	0.796277210503006	-0.728554276327507	0.00168359991686828	0.00401576157059325
0.28	-2.99680673165315	0.143670295063568	939.012561584514	-24.3293755116652	42.8516001664546	0.828129709109986	-0.756880062300292	0.00164909666054358	0.0040247881697682
0.29	-3.12285744213448	0.178668227656777	939.209263000075	-24.4035398126972	42.9388217312514	0.851866726131523	-0.778763042706932	0.00157862025243305	0.00410565798605722
0.3	-3.2874260789664	0.299312430971538	939.151645576756	-24.4994468386629	43.0753457478796	0.865361856254747	-0.793309674570992	0.00147776372128272	0.00425166173554764
0.31	-3.47842131505924	0.506665034526926	938.844389991796	-24.605727716887	43.2500516587102	0.869011011742071	-0.80132317791954	0.00135880682104306	0.00445070920971152
0.32	-3.68818697150615	0.781032569905318	938.356957846281	-24.7085278589732	43.452131578728	0.865735790786055	-0.805063538190272	0.00123850957075522	0.0046878289435775
0.33	-3.91217674197287	1.08354712659033	937.806300754351	-24.7943958475525	43.6721734943545	0.860246944919599	-0.807604910275584	0.00113453785939566	0.00494717433243541
0.34	-4.14496358581709	1.36339784651241	937.326593066569	-24.8533808136905	43.9016735363316	0.8577495281465	-0.811966448969618	0.00106130053491016	0.00521300403608088
0.35	-4.37567784326574	1.56922878929072	937.034390801091	-24.8815752611201	44.1314467199853	0.862469314698434	-0.820276836139958	0.00102625090256225	0.00546972183682964
0.36	-4.58534038237074	1.66187317128346	936.998716444091	-24.882407910382	44.3499131268799	0.876438351104129	-0.83321767906698	0.00102766362228934	0.00570154445811122
0.37	-4.74782153417761	1.62503223447044	937.223995706094	-24.8662851986422	44.5422998582028	0.898881311099006	-0.849885594353319	0.00105453866347383	0.0058925086480251
0.38	-4.83465040649408	1.47089520778434	937.650085934362	-24.8486058464842	44.6914145745209	0.926342994966056	-0.868066336159301	0.00108872475594368	0.00602730094998372
0.39	-4.82227817539668	1.23892287911924	938.168954984218	-24.8465904639857	44.7799967642068	0.953475198882419	-0.884789771208818	0.00110877703275669	0.0060929348723236
0.4	-4.69933146372119	0.987748686751771	938.653209817008	-24.8756534698791	44.794014627908	0.97423630693091	-0.896977549485362	0.00109463675563781	0.00608083953869404
0.41	-4.47127785988549	0.78194163474263	938.988763400656	-24.9461320939459	44.7258967795703	0.98318990790624	-0.902015290696169	0.00103204633011666	0.00598866836363798
0.42	-4.1607620606368	0.676775836963141	939.103127896224	-25.0610780435232	44.57669162077	0.976615260084424	-0.898152357491797	0.000915706984038867	0.00582118214213623
0.43	-3.80330117663883	0.704800952634103	938.982218736003	-25.2155595436057	44.3564970143734	0.953228483562363	-0.884712543568717	0.000750500392364017	0.00558986412885137
0.44	-3.43951970007789	0.867702529639383	938.671703766736	-25.3975826962514	44.083039185405	0.914419140661296	-0.862152357628466	0.000550544696476196	0.00531133732327516
0.45	-3.10616339980585	1.13569196622382	938.262998862867	-25.5903921019606	43.7788004632047	0.86400461919289	-0.832015667509974	0.00033634177900288	0.00500500363742151
0.46	-2.82845595089018	1.45473297203949	937.867964947582	-25.7756200260619	43.4674401929678	0.807582951258549	-0.796813124349333	0.000130694941781861	0.0046904930811294
0.47	-2.61590742175292	1.75978774811626	937.589202159406	-25.9365835241305	43.1703533288433	0.751621205720118	-0.759824423867726	-4.56603424312529e-05	0.00438547649587073
0.48	-2.4626338705004	1.99057085695428	937.493836227398	-26.0610230045674	42.9040898933034	0.702449426483097	-0.724803400293145	-0.000177732599051628	0.00410421855002197
0.49	-2.35193184522561	2.1055856870027	937.597589161424	-26.1427384012448	42.6790916086692	0.665334290414046	-0.695572253657633	-0.000258480155413299	0.00385702132192928
0.5	-2.26364301134459	2.09076039394826	937.863018757052	-26.1818664575608	42.4998722794864	0.643778635409218	-0.675520770543394	-0.000289158071309026	0.00365050421469471
0.51	-2.1820645789258	1.96065156279807	938.211893317352	-26.1838728465962	42.3664397925649	0.639137492060445	-0.66706816146035	-0.000277883291814773	0.00348851019780982
0.52	-2.10201419830518	1.75240295011899	938.547824652202	-26.1576158640995	42.2764771168145	0.650573599892531	-0.671183580071317	-0.000236909886623282	0.00337331762568505
0.53	-2.03118847383321	1.51469008966394	938.782593385774	-26.1130079694251	42.227613292208	0.675315877176157	-0.687081110742728	-0.000179367193553381	0.00330676772797422
0.54	-1.98803513327151	1.29509069946408	938.858827565069	-26.0588333044638	42.219073872012	0.709147973884466	-0.712194287444192	-0.000116271608976426	0.00329090882406291
0.55	-1.99570747827409	1.12937203383518	938.763041651824	-26.0011887616745	42.2521446863854	0.74704323147372	-0.742489569546806	-5.44871563444849e-05	0.00332784500717659
0.56	-2.07390334140432	1.03519198688202	938.526068937849	-25.9428411880729	42.3292154999673	0.783867113812263	-0.773103681437156	3.96600563212779e-06	0.00341868438497978
0.57	-2.23112521323248	1.01113309513985	938.2116696998	-25.8835766237934	42.451629986503	0.815073771432802	-0.799203594187081	6.11982583560433e-05	0.00356179110040616
0.58	-2.45987048809071	1.04042022710599	937.897404839738	-25.8213972866683	42.6170285246902	0.83732042274277	-0.816895054996474	0.000121608391692729	0.00375087651255229
0.59	-2.73643383232742	1.09759429201941	937.653742888982	-25.7542326128361	42.8171677558962	0.848913960675475	-0.823970877284115	0.000189445886677686	0.00397369114356333
0.6	-3.02560447623553	1.15603742247353	937.527326801909	-25.6817057543312	43.0371938078764	0.850002032651895	-0.820310014997373	0.00026644171727308	0.00421207222667425
0.61	-3.2890033311443	1.19449636882443	937.532512983825	-25.6064673297173	43.2569788183533	0.842442613794543	-0.807813855569904	0.000350148085605628	0.00444379564972647
0.62	-3.49462746350622	1.20137572438921	937.652417667722	-25.5346916745292	43.4544775134414	0.829340743081753	-0.789880630799244	0.000433451976496468	0.00464612203801512
0.63	-3.62474386621132	1.17628634864623	937.847776720894	-25.4755199910083	43.6103239942432	0.814321047495906	-0.77054130747152	0.000505438630114319	0.00480028214935901
0.64	-3.67974652106649	1.12894010961955	938.069897036605	-25.4394925678979	43.7123374529404	0.800685628685242	-0.753474072225708	0.000553447199984292	0.00489565798851244
0.65	-3.67681397821317	1.07591052284442	938.273406061755	-25.4362792459746	43.758473950839	0.790657357778739	-0.741149646064365	0.000565861523728395	0.0049323062939674
0.66	-3.64379589528469	1.0360535844625	938.425371119517	-25.4722272541822	43.7571480227987	0.784904495131223	-0.734324131391551	0.00053498327445678	0.00492084512272606
0.67	-3.61022501549902	1.02554988785157	938.509135144052	-25.5483410885027	43.7246585989044	0.782478553916274	-0.732000333984834	0.00045928715558774	0.00487950579857654
0.68	-3.59824742390122	1.05359728043	938.523138625782	-25.6592546189515	43.6804214064788	0.781189825746212	-0.731851321658004	0.000344472897147563	0.00482909221358374
0.69	-3.61630980045043	1.11971209522065	938.476405636737	-25.7935479830903	43.6414875635367	0.778325596947143	-0.730978202576941	0.00020299030707549	0.00478734892419053
0.7	-3.65760586671639	1.21333069022492	938.382930307925	-25.9354392290832	43.6181196589926	0.771520252122359	-0.726790842046175	5.20717496845791e-05	0.00476451996125193
0.71	-3.70379538473723	1.31592920854713	938.256945493244	-26.0675228258576	43.6118743965762	0.759542127606743	-0.717776002020424	-8.93216132494823e-05	0.00476154507913668
0.72	-3.73280801614107	1.40527080019611	938.110276516915	-26.1739381697112	43.6168003690805	0.742781686144058	-0.703955707498831	-0.000203949292389205	0.00477147876826217
0.73	-3.72816496627422	1.46080026164715	937.95204137567	-26.2432245943367	43.6232899321573	0.723303586262545	-0.686926263493525	-0.000279338571136711	0.00478362179619718
0.74	-3.68666138123926	1.46882247762463	937.79014714137	-26.2701998581283	43.6232039744881	0.704439920112148	-0.66947978336527	-0.000309739773683537	0.00478891502428302
0.75	-3.62169251904121	1.42607080813627	937.633519479528	-26.2564622420887	43.6144454593965	0.690022706466953	-0.654915540342699	-0.000296594779096937	0.0047847013948234
0.76	-3.56088447432903	1.34064358398705	937.493849545281	-26.2094781103601	43.6033474163744	0.68344969791435	-0.646222360968853	-0.00024751335963924	0.00477717562772345
0.77	-3.53857969018073	1.22998470480349	937.385842455354	-26.1405671205071	43.6039906942591	0.686824706264324	-0.645340244540385	-0.000174119488550617	0.00478063332320544
0.78	-3.58549104459458	1.11641975937528	937.325448914116	-26.0623407144719	43.6346054337367	0.700399459454278	-0.652685822401573	-8.93749146170242e-05	0.00481371464002889
0.79	-3.71884543237007	1.02148272948511	937.326250085899	-25.9862332102195	43.712173194021	0.722469567792986	-0.667058809055547	-5.05642489945224e-06	0.00489382869684074
0.8	-3.93620691588879	0.960645575862833	937.394879515078	-25.9206860318398	43.8469108894207	0.749757980956108	-0.685949890448157	7.0041897164419e-05	0.00503150782034617
0.81	-4.21493402007834	0.939954413922285	937.526893407605	-25.8703409589877	44.0383156264785	0.77818443369615	-0.706165739789593	0.00013084413204123	0.00522640896822391
0.82	-4.51733986685921	0.955494501595292	937.704636783296	-25.8363247695765	44.2739193293551	0.803807043463594	-0.724600033137255	0.000175624245013606	0.00546610531594049
0.83	-4.7997876412455	0.99572585263411	937.898280287235	-25.8174272678585	44.5310576548463	0.823669865200723	-0.738936590012658	0.00020478049281647	0.00572792891345059
0.84	-5.02282660340707	1.04583742055251	938.070366806331	-25.8117474305618	44.781096089029	0.836320260294688	-0.748089764189474	0.000219216245280762	0.00598324988235338
0.85	-5.15940710964409	1.09266171101418	938.183139527837	-25.8182630440578	44.9949429044427	0.84186739902279	-0.752267534966922	0.000218886230344273	0.00620297992492336
0.86	-5.19912891416352	1.12858094311955	938.206974965798	-25.8378079414505	45.1484603705671	0.841603147972867	-0.75266151818915	0.000202008145413712	0.00636290569496528
0.87	-5.14794091492847	1.15327261647857	938.127753331313	-25.8731251257744	45.2265610374659	0.837345875584476	-0.750885857008874	0.000165228398395278	0.00644767166062321
0.88	-5.02414594089709	1.17292472672378	937.951150558493	-25.9279617495892	45.2252279317307	0.830746737501464	-0.748362516174024	0.000104717672053667	0.00645270744663179
0.89	-4.8524934592354	1.19740283622278	937.702593374719	-26.0054935178431	45.151259136478	0.822791413921426	-0.745857945332021	1.78514541290253e-05	0.00638395467312819
0.9	-4.65834683194589	1.23646163284194	937.422740092855	-26.1066012565874	45.0200548113647	0.813646027867039	-0.743314917026464	-9.50867864274452e-05	0.00625574132595985
0.91	-4.46345722209371	1.29626536450937	937.159488329251	-26.2285838062944	44.8521328782622	0.802869033079358	-0.740017455674081	-0.000229773505962538	0.00608748348021487
0.92	-4.2840339825026	1.37720917999986	936.958340142613	-26.3647545967878	44.669226486671	0.789886484664559	-0.735013590893213	-0.000377706669131839	0.00590002708004839
0.93	-4.13090994903534	1.47348978215075	936.853275970026	-26.5050872090255	44.490774348772	0.77454431284472	-0.727636749630869	-0.000527172371308837	0.00571237968484561
0.94	-4.01094331059487	1.57431300835903	936.860079312285	-26.6377571177394	44.3313932168934	0.757528164444951	-0.717935918114058	-0.000665093910247827	0.00553935671607964
0.95	-3.92853528059134	1.66625430358345	936.973446491137	-26.7511886180628	44.1995849725354	0.740480041882421	-0.706853325103416	-0.000779304260165925	0.00539034130301241
0.96	-3.88629927541974	1.73617264772985	937.168413500732	-26.8361277286508	44.0975762923342	0.725728193648683	-0.696065637719509	-0.000860713031117566	0.00526902386056488
0.97	-3.88440711934668	1.77414170845564	937.405813712157	-26.8873208424052	44.0219284122073	0.715661444405325	-0.687508412760885	-0.000904927531718447	0.00517375548918408
0.98	-3.91879731190835	1.77595939670823	937.640748304731	-26.9045229419067	43.964477433417	0.711896150589106	-0.682706618998808	-0.000913064830650123	0.00509810637500674
0.99	-3.97904771895201	1.74482810428831	937.832453808329	-26.8927109981658	43.9132948021173	0.714474707478848	-0.682109253978994	-0.000891673116262703	0.00503138734750536
1	-4.04707030735164	1.6917786366367	937.953547461627	-26.8614908040446	43.8536242170877	0.721369086798736	-0.684650236384353	-0.000851813624982323	0.00495919322002536
1.01	-4.09771502566536	1.63446004237162	937.996534528193	-26.8237611868736	43.769011952241	0.728517302211033	-0.687716656206116	-0.000807437586335835	0.00486430331790777
1.02	-4.10184114443419	1.59416432426008	937.975809001214	-26.793773008407	43.6429469505865	0.730490241868918	-0.68760088558976	-0.000773259152035632	0.00472835732771903
1.03	-4.03157138392504	1.59142564167205	937.924236058842	-26.7848209359085	43.4611788403672	0.72169761634694	-0.680368661851192	-0.000762405074296701	0.00453452040907715
1.04	-3.86658150177003	1.64109359047808	937.884671572252	-26.8069254515835	43.2145254702588	0.69785300453664	-0.662934975185994	-0.000784209860318241	0.00427090871426922
1.05	-3.59973493821535	1.7481777669833	937.89816122049	-26.8649505841256	42.9015761846641	0.657300491642473	-0.634054249335957	-0.00084257657932596	0.00393404966175209
1.06	-3.24038857253226	1.90575534220685	937.991661566699	-26.9575932548275	42.5304524935215	0.601812583403227	-0.594937191205332	-0.000935280109828351	0.00353134286486412
1.07	-2.81429885161978	2.09573713960831	938.168553278828	-27.0775329018581	42.1188607740411	0.536608303740549	-0.549306859750539	-0.00105442000062994	0.00308155128088705
1.08	-2.36003739982965	2.29243768496644	938.404759295322	-27.2127634963253	41.6920827981375	0.469564830899326	-0.502866340855169	-0.00118796003466493	0.00261281787174444
1.09	-1.92281649442784	2.4680061066308	938.651987519611	-27.3488232300845	41.2791643164906	0.409823524261153	-0.462311880524769	-0.00132200387646575	0.00215842276189071
1.1	-1.54726274537349	2.59819884224907	938.847800259594	-27.4713987928384	40.9081443597786	0.366140940430896	-0.434133019492382	-0.00144325766267805	0.00175120286943808
1.11	-1.27075661417278	2.66693631924345	938.930355860854	-27.5687004079136	40.6014858649294	0.345363322173771	-0.423466198251532	-0.00154110165950783	0.00141797963698714
1.12	-1.11851573509976	2.66858256733744	938.854287969555	-27.6331087585238	40.3727937290283	0.351317399364859	-0.433217115744169	-0.001608848384551	0.0011753212111168
1.13	-1.1008936727513	2.60770164924849	938.603687435253	-27.6618410333131	40.2254695758267	0.384261666113528	-0.463573476278545	-0.00164404363332094	0.00102751815790458
1.14	-1.21272460345336	2.49684904333132	938.198711463528	-27.6566755285084	40.1533262448112	0.440895188325671	-0.511934705189888	-0.00164796214458718	0.000966954069468839
1.15	-1.43421726376587	2.35345118223279	937.693867313904	-27.6230092890884	40.1426109313585	0.514824256426038	-0.573218056247698	-0.00162465340276519	0.000976367465399974
1.16	-1.73294702798008	2.19685904182669	937.16813457879	-27.568630187057	40.1745763256083	0.597356350228397	-0.640469112784684	-0.0015799407258299	0.00103207302752883
1.17	-2.06677800936455	2.04627143928377	936.709233588949	-27.5025473822533	40.2277947355512	0.678508964008003	-0.705698004540246	-0.00152066878724155	0.00110717171193847
