Time [s]	GRFml [N]	GRFap [N]	GRFv [N]	Mml [N.m]	Map [N.m]	Mv [N.m]	Mfree [N.m]	COPml [m]	COPap [m]
0.01	16.8632879404934	-2.83384949465859	563.58046325208	-4.55198727671942	21.896753008283	4.18771995452694	-4.21393164532305	-0.000794512953040671	-0.00157659692155676
0.02	16.6217852913938	-2.91220700665559	564.578065934519	-4.5427441373832	22.0189453922809	4.11657523244861	-4.1368410167337	-0.000764408732209398	-0.00142818158388175
0.03	16.4117697933767	-2.98436608308554	565.45807129019	-4.53610786412265	22.1399942086344	4.04820957053156	-4.06308304511102	-0.000740415294156138	-0.00127382823765537
0.04	16.2566368062732	-3.04570550397407	566.132112019358	-4.53414361141974	22.2584776373414	3.98516730133508	-3.99561653178722	-0.000727333553006804	-0.00111011067595568
0.05	16.1607594105799	-3.08957123269636	566.544058620786	-4.53709232017553	22.3741698123185	3.93020999764362	-3.93751158990313	-0.000726352176115497	-0.000933585718114305
0.06	16.1074266648635	-3.1060480210741	566.673029747021	-4.54285224735336	22.4881395955526	3.88604132870199	-3.89169792506909	-0.000734086548963453	-0.000740787033543355
0.07	16.0636952480516	-3.08208141892189	566.528509495708	-4.54714741216184	22.6022744163866	3.85480952586237	-3.86050603494423	-0.000742920328553609	-0.000528736569484822
0.08	15.9904205532781	-3.00354464974617	566.140411511139	-4.5444739426501	22.7184189500627	3.83762804311239	-3.84520577397109	-0.000742781052141983	-0.000295835731245697
0.09	15.8541049102607	-2.85923261756298	565.548762080971	-4.52964810159128	22.8374976715705	3.83433743971477	-3.84573430192101	-0.000723987892298106	-4.27978870236045e-05
0.1	15.6367964413832	-2.64590591546427	564.797543200896	-4.49950964518764	22.9590115057986	3.84360022510404	-3.86069945688247	-0.000680332493390501	0.000226771858368724
0.11	15.3411638350662	-2.37276932209973	563.934990368473	-4.45419523224179	23.0811351053014	3.86325650961791	-3.88761542446963	-0.000611332919648433	0.000506416530124398
0.12	14.9896574542309	-2.06354278809114	563.019167031198	-4.39747501515343	23.2013597963202	3.89075613723538	-3.92324227867059	-0.00052277875753326	0.000787499473797471
0.13	14.6186478740706	-1.75478119099619	562.124507119301	-4.33593259608256	23.3173588488856	3.92347197871597	-3.96389374276496	-0.000425228496975461	0.00106026115600188
0.14	14.2698909046103	-1.49023046850181	561.343753537903	-4.27716230766508	23.4276283405026	3.95878654826056	-4.00564031752986	-0.000330829900150986	0.00131487237604372
0.15	13.9821317361514	-1.31238508196185	560.781066270224	-4.2275086441063	23.5315467470491	3.99398171029166	-4.04442732877982	-0.000249436649412571	0.00154214461868429
0.16	13.7850680542656	-1.25349908805164	560.535605755421	-4.19004827923454	23.6287687552986	4.02607984583796	-4.07619880488517	-0.000185261610316068	0.00173377464512148
0.17	13.6965924762656	-1.32864047545377	560.679183690007	-4.16345392890194	23.7182046584852	4.05182687249974	-4.09713183909102	-0.000135147628439358	0.00188227883332509
0.18	13.7228330072071	-1.53278867546784	561.234784892323	-4.14210985828287	23.7970806046376	4.06795271472956	-4.10403584786859	-8.9023784356268e-05	0.00198097203270792
0.19	13.8596091377808	-1.8426563744558	562.163458457373	-4.11746989505359	23.8606047453956	4.07171819090129	-4.09488176834234	-3.24403019370534e-05	0.00202435500858783
0.2	14.093864832014	-2.2223723293344	563.364826786357	-4.08028544905096	23.9025485579326	4.06161589982849	-4.06934010074307	4.95358243184363e-05	0.00200906891889135
0.21	14.4043641080891	-2.63099266211257	564.69206748402	-4.0230895917913	23.9166706167662	4.03799855277386	-4.02916270335949	0.000168152883433748	0.0019352345912757
0.22	14.7619993652757	-3.02945858144495	565.977417307367	-3.94226297483238	23.8985242921024	4.00340088663295	-3.97825976979832	0.000327669553384702	0.00180767597090808
0.23	15.1308596949464	-3.38518966206462	567.060978632889	-3.83913305710564	23.8469793506693	3.96240311369395	-3.92239306138766	0.000523787289888111	0.00163639952230532
0.24	15.4712608984488	-3.67371112794863	567.815188464934	-3.71982727078076	23.7648622629596	3.92102217865695	-3.86850292135868	0.000744215518187707	0.00143586390706057
0.25	15.745152179264	-3.87801882999118	568.159792416608	-3.59393789414233	23.6584667315676	3.88576013259443	-3.82377775818524	0.00097120215895119	0.00122299694969069
0.26	15.9230317459183	-3.98721974148382	568.066292475476	-3.47237138197831	23.5361575562764	3.86253664800668	-3.79463472175645	0.00118535824999999	0.00101443443165811
0.27	15.9903631367167	-3.99600281144111	567.554624227171	-3.36496428290021	23.4066683886072	3.85575446200456	-3.78579628335436	0.00136978428180901	0.000823829993689351
0.28	15.9511139324495	-3.90572044619902	566.68653298449	-3.27849580173005	23.2777905955002	3.86769040429391	-3.79962027168733	0.00151344530381747	0.000660119155522831
0.29	15.8267408071874	-3.72667947059586	565.559145457993	-3.21560017876704	23.1559100136312	3.89829625742325	-3.83578249545862	0.0016129580111186	0.000527261843128235
0.3	15.6505209792351	-3.48022531506374	564.299381143952	-3.17481391169273	23.0463820451729	3.94537558599842	-3.8913395428334	0.00167239543835274	0.000425375283424345
0.31	15.4589401578611	-3.19885938298308	563.056898457078	-3.15165680282821	22.9542735777333	4.00501765772245	-3.96113344912357	0.00170127377402762	0.000352577697044942
0.32	15.2830855442505	-2.92316336911306	561.992033120203	-3.14033832650859	22.8847795170871	4.0721435307884	-4.03845331859022	0.00171141086852444	0.000306576211304588
0.33	15.1430578429194	-2.69552228154922	561.256544092702	-3.13549765562644	22.8427664341039	4.14105085548978	-4.11584628690435	0.00171367815075996	0.000285201006885727
0.34	15.047203208919	-2.55202452405982	560.968437591288	-3.13339382653963	22.8313521845219	4.20590622860717	-4.18596718478987	0.00171568403951039	0.000285650280575256
0.35	14.9959411670723	-2.51486269745704	561.186068181757	-3.13217313308991	22.8499891891051	4.26118971738361	-4.24236466516954	0.00172109149655553	0.000302914471321247
0.36	14.9879847371882	-2.58763341818324	561.889168459544	-3.13119437872355	22.8929132506295	4.3021174514074	-4.28011576525412	0.00173067074150535	0.00032836346281262
0.37	15.0256941009165	-2.75508141452459	562.974089159604	-3.12976844151237	22.9488486700505	4.32505053242784	-4.29624166591653	0.00174452011591619	0.000349551922462665
0.38	15.1166832185023	-2.98738552454576	564.267203424683	-3.12592349001219	23.0024828169791	4.32786109144833	-4.28986955314057	0.00176440560762969	0.000351864633984178
0.39	15.2705017713383	-3.24760660264867	565.555249956152	-3.11583154119853	23.0375777637779	4.31019775661025	-4.26215019752224	0.00179507755112407	0.0003218518324139
0.4	15.4915398300812	-3.49996004918034	566.626212583276	-3.09429927652472	23.0409321062814	4.27359237316948	-4.21598892373834	0.00184378699325149	0.000251318587301319
0.41	15.7712415052997	-3.71646160514089	567.310989212181	-3.05631033141375	23.0060107198872	4.22137655697217	-4.15567993563604	0.00191793086505854	0.000140773630824709
0.42	16.0833897133679	-3.88022123598569	567.515703902512	-2.99915895725611	22.9350873288983	4.15841299527784	-4.08653162712751	0.00202154716387659	9.19809629018609e-07
0.43	16.3852845383378	-3.98492944764076	567.23709942121	-2.92440834184089	22.8391868743068	4.09067278584025	-4.01452916550288	0.0021519532117924	-0.000148535623544443
0.44	16.6254236221927	-4.03142716019273	566.558058552636	-2.83886874620678	22.7358019055888	4.02469900797647	-3.94601826461662	0.00229793473772533	-0.000282588538629669
0.45	16.7557012162443	-4.02320159733356	565.62543161066	-2.75405427096364	22.6450342920035	3.96699569007461	-3.88734471861503	0.00244047594175656	-0.000376171006251702
0.46	16.7442402819054	-3.96287888368878	564.616503396922	-2.68406462491739	22.5852463393969	3.92338388945443	-3.84437954364753	0.00255619353083947	-0.000409448372957866
0.47	16.5845403075959	-3.85121242215659	563.702597165464	-2.64238402466339	22.5693682133566	3.898379247706	-3.82190905829939	0.00262268516205244	-0.000371759707375852
0.48	16.2978332239878	-3.68890446359331	563.018141366759	-2.638497091749	22.6027175967396	3.89466168241759	-3.82295287720842	0.00262427103006391	-0.000263279868040034
0.49	15.9278988829945	-3.48029073991199	562.641302786753	-2.67533727494126	22.6826754077946	3.91271401304414	-3.84815072974157	0.00255637503480233	-9.42255522367041e-05
0.5	15.5301687346022	-3.23699843733516	562.588762234923	-2.74835547309293	22.8000148685815	3.95069263616288	-3.89539236882056	0.00242715996013765	0.000117858649161418
0.51	15.1587609004058	-2.97957009634315	562.823382233387	-2.84649898368404	22.9412726167199	4.00456168819999	-3.95983470765033	0.00225587937286675	0.00035174738082111
0.52	14.8554991158438	-2.73582588023264	563.270448530433	-2.95479662010837	23.0913871613163	4.06848342922346	-4.03436504831154	0.00206844013860963	0.000586054602078112
0.53	14.643901306118	-2.53610779940628	563.836718184615	-3.05776168482421	23.2359303069313	4.13542316464594	-4.11045837976825	0.00189152235479573	0.000801842816343323
0.54	14.529083447813	-2.4069084610569	564.427054565626	-3.14261377019802	23.3625537443049	4.19790169050706	-4.1792774803529	0.00174698885092528	0.000984019165241046
0.55	14.5023635562449	-2.36510668900557	564.95566216067	-3.20144450393325	23.4616380348902	4.24881076273248	-4.23280823451331	0.00164811982302027	0.00112170038513509
0.56	14.547916103569	-2.41477443245509	565.35187415503	-3.23185302393356	23.5264206322014	4.28219586118338	-4.26482481687737	0.00159852315484965	0.00120803156588628
0.57	14.6486148334134	-2.54741288628766	565.562794989275	-3.23610294811665	23.5529859137385	4.29390822765162	-4.27153628675492	0.00159365469896178	0.00123996786887309
0.58	14.7891669477702	-2.7450577188509	565.555808211129	-3.21931813413832	23.5403959326674	4.28204101071547	-4.25185636896101	0.00162405732228199	0.00121829914288313
0.59	14.9562474465062	-2.98463674653461	565.322753849345	-3.18748560194122	23.4909915711593	4.24709649389327	-4.20733072739318	0.00167896602658557	0.00114784877938806
0.6	15.1368222743542	-3.2417411629915	564.885151540316	-3.14599870580109	23.410632239635	4.19187880323152	-4.14182069455551	0.00174896458791218	0.0010374925100457
0.61	15.3165568693977	-3.49263268628388	564.297551012333	-3.09918106796981	23.3085078545755	4.12115542492008	-4.06106015403407	0.00182687815353433	0.000899568772885717
0.62	15.4798949809486	-3.71447406152892	563.645278433484	-3.05079717910418	23.1962310904268	4.04116318376726	-3.97217211806351	0.00190685306447824	0.000748437421345116
0.63	15.6122937523003	-3.8848343783387	563.034154203621	-3.00513948407875	23.0861830696309	3.9590376708215	-3.88317187155777	0.00198232922553865	0.000598312184106553
0.64	15.7037908352198	-3.98195337014876	562.572748981515	-2.96803596179782	22.9894281831684	3.88222117272159	-3.80242582060008	0.00204407683683039	0.000460877244003621
0.65	15.7521970238951	-3.98684179818826	562.35108422799	-2.9471376815655	22.9137732110503	3.81786894849169	-3.73801079561603	0.00207947365826644	0.000343414057572655
0.66	15.7641684605933	-3.88724641107923	562.421769726778	-2.9511196457122	22.8625882356144	3.77224898630076	-3.69694403221834	0.00207373175571257	0.000248090122395683
0.67	15.7532358956416	-3.68231932721356	562.789317727255	-2.98786246140193	22.834788596211	3.75013193339427	-3.68432222561664	0.00201300845045893	0.000172697640443475
0.68	15.7351883691762	-3.38607639988907	563.410755135257	-3.06211767459878	22.8259712631413	3.75419777680328	-3.70249066619384	0.00188853846949089	0.000112606088488787
0.69	15.722441851631	-3.02779823573105	564.206741489197	-3.17343232555667	22.8302684608827	3.78453205635893	-3.7504238574887	0.00170040401685845	6.32176653983518e-05
0.7	15.7196199671167	-2.6484556154344	565.078872065535	-3.31510999461913	22.842210904322	3.8383260428464	-3.82350779912813	0.00145952478279332	2.1992687297967e-05
0.71	15.7222446214559	-2.29368017498416	565.927214777125	-3.47470322054814	22.8579078020454	3.90990969937509	-3.91386004274771	0.00118693748514964	-1.07446558737512e-05
0.72	15.7192700278571	-2.00515669797751	566.66303702926	-3.63605523106725	22.8751574177849	3.99121594077794	-4.01121641563501	0.000910290522496138	-3.25350156392124e-05
0.73	15.6986360357537	-1.81299505652192	567.214600092791	-3.78240073917186	22.8925793662321	4.07269481687882	-4.10427978167486	0.000658408116609221	-4.07310763761437e-05
0.74	15.6536927763545	-1.73132685401321	567.527400723354	-3.89967679373158	22.9083062807072	4.14458061655656	-4.18230304567519	0.000455445540793464	-3.48128652088442e-05
0.75	15.5878260852648	-1.75817001185636	567.562664357304	-3.97911775917215	22.9189909205439	4.19829735778362	-4.23660350329535	0.000316312485026948	-1.80116023659194e-05
0.76	15.5151647918535	-1.87901366576217	567.298137693155	-4.0184466186838	22.9197693255446	4.22771415910445	-4.26170698110446	0.000244617092146737	2.5940175539807e-06
0.77	15.4567210400055	-2.0722709522775	566.733245506245	-4.02144581639273	22.9054065021983	4.22997039536155	-4.25590606988015	0.00023352537778587	1.77548205410605e-05
0.78	15.4331518211129	-2.31427603428251	565.897476652273	-3.99622417611195	22.8723048792061	4.20569258289803	-4.22116717719115	0.000268953017959594	1.9011921772949e-05
0.79	15.4567916709823	-2.5820403646203	564.858014605478	-3.95289502283583	22.8206080730186	4.1585927095683	-4.16248969189555	0.000333773791833747	1.86707677451992e-06
0.8	15.5260649585405	-2.85326517515538	563.721514760945	-3.90149639746428	22.7554812213207	4.09461107558674	-4.08694872574775	0.000411516836787307	-3.20957869043292e-05
0.81	15.624603993862	-3.10455050521187	562.626136918671	-3.85077823283928	22.6868738833646	4.02087829670753	-4.00269382875994	0.000488406868544011	-7.50818798888608e-05
0.82	15.7256497434189	-3.3097069715081	561.723025732651	-3.80804321422894	22.6275972929353	3.94477755710459	-3.91811687009837	0.00055341298758016	-0.000115182737392472
0.83	15.8002796869217	-3.44013927003236	561.150185419719	-3.77974296611164	22.5901745734231	3.87329074871532	-3.84127209382053	0.000596871535441634	-0.000140092554851978
0.84	15.8265077494761	-3.46838668070281	561.004700619136	-3.77220445187218	22.5834069880656	3.81265612279632	-3.7794896600359	0.000608858721096173	-0.00014119751572178
0.85	15.7959423407078	-3.3744245161567	561.320454546308	-3.79183104433623	22.6097522098525	3.76821901936196	-3.73903406734695	0.000578554852435298	-0.000116611065077321
0.86	15.715620549837	-3.15285403421872	562.05751925143	-3.84439891211495	22.6643701475039	3.744283082742	-3.72465994854712	0.000495342687924061	-7.20873878376493e-05
0.87	15.6044937037288	-2.8182636528873	563.10658104773	-3.93352961328412	22.7361453021098	3.74379774669131	-3.73900878604234	0.000351538322115208	-1.95134407134367e-05
0.88	15.486089893267	-2.40624162099587	564.307966168577	-4.05886194302213	22.8103432958026	3.76783710736889	-3.78193124821033	0.000145830160193761	2.64396719139581e-05
0.89	15.3803150790391	-1.96878013526961	565.481121856658	-4.21467677908381	22.8720414058512	3.81498671811207	-3.84994915500384	-0.000113947706025019	5.22771846329095e-05
0.9	15.2976075129405	-1.56472329115278	566.457804211281	-4.38964693224609	22.909273190986	3.88088948885414	-3.93612848600671	-0.000409968415338691	4.88612988195358e-05
0.91	15.2376245898971	-1.24776051979743	567.111434219881	-4.56802232906867	22.9150060214004	3.95824531925663	-4.0305846607248	-0.000716126708307785	1.27968253947897e-05
0.92	15.1927259913152	-1.05549962241277	567.376305986828	-4.73206674815753	22.8875418019315	4.03747645751071	-4.1216866118761	-0.00100206908269251	-5.42447694502624e-05
0.93	15.1545004067984	-1.00289785950435	567.253170132569	-4.86513133347202	22.8295005113205	4.10807460994908	-4.19781085547449	-0.00123850564262395	-0.000147726421807826
0.94	15.120308298379	-1.08182866986983	566.801279240742	-4.95454324436766	22.745990908383	4.16039926289888	-4.2492936962289	-0.00140236576660846	-0.000262906730359336
0.95	15.0968325205743	-1.26638960716125	566.120180849559	-4.993570231969	22.6427351595719	4.18749361342855	-4.27011658138471	-0.00148046667297175	-0.000396842203146175
0.96	15.0989495121626	-1.52159049433872	565.326486996939	-4.98204541222645	22.5247641149736	4.18641445360395	-4.25888947705661	-0.00147090673726102	-0.000549018684001923
0.97	15.144294078191	-1.81209677350073	564.53117447131	-4.92566746376671	22.3959402789327	4.15868032590552	-4.21887434958985	-0.00138214385089785	-0.00072056011386129
0.98	15.2457930909179	-2.10810512949295	563.821921351998	-4.83436837091481	22.2591776505247	4.109703353452	-4.1570634808454	-0.00123038759207539	-0.000912571639638093
0.99	15.4053527862865	-2.38697056932722	563.2531992225	-4.7203364649679	22.1169837614892	4.04739313153119	-4.08260232334311	-0.00103629331071997	-0.00112447381477321
1	15.6114056982161	-2.63118244795641	562.844962973281	-4.59624840833698	21.971933626923	3.98038284216989	-4.00502406605284	-0.000821905740973627	-0.0013530744200424
1.01	15.8413796874437	-2.82484168675681	562.589166337591	-4.47404195434777	21.8268627594723	3.91642510258357	-3.93277724862062	-0.000608430989855968	-0.00159269381196248
1.02	16.0680794204428	-2.95128249598323	562.462011286784	-4.36426168034489	21.6848110008327	3.86139996070532	-3.87237567130951	-0.000414912082389085	-0.00183613456122478
1.03	16.2673818521483	-2.99374797359603	562.438742786221	-4.27576326166118	21.5489152343955	3.81911407514081	-3.82824378304833	-0.000257473982084533	-0.00207591836073312
1.04	16.4242181172749	-2.9394286452649	562.507026159252	-4.21546726862985	21.422447700664	3.79175586340479	-3.80307261896231	-0.000148658461837869	-0.00230516599020431
1.05	16.5346914903995	-2.78541071002332	562.674836348668	-4.18793910184517	21.309037451701	3.78063152036033	-3.7983407305885	-9.6528212048641e-05	-0.00251777391465069
1.06	16.6039326292645	-2.54390991652006	562.969743449907	-4.19478416482153	21.2128960139811	3.78673357531801	-3.81464879560729	-0.00010358095684726	-0.00270799173082126
1.07	16.6411183710239	-2.24409494396179	563.428619043158	-4.23407516431823	21.1387317694134	3.81081122166312	-3.8516599240507	-0.000165879704568717	-0.00286989310315811
1.08	16.6541752245822	-1.92889958059992	564.079726556855	-4.30015172831525	21.0910821420531	3.85286866644878	-3.907665792584	-0.000272971283528989	-0.00299735357938141
1.09	16.646601439394	-1.6470839997168	564.922027146741	-4.38407942128161	21.0730281242179	3.91130845394371	-3.97901563507897	-0.00040902143198962	-0.00308492586484305
1.1	16.6176610815108	-1.44270067077243	565.908273312756	-4.47483761081982	21.0845888906747	3.98214153309629	-4.0597606591532	-0.00055518072648475	-0.00312953044253472
1.11	16.5655055858845	-1.34526787047692	566.938265588305	-4.5610160739275	21.1213687322052	4.05871716957275	-4.14183076322682	-0.000692688568110111	-0.00313237964240914
1.12	16.491357634644	-1.36384479354638	567.866329922583	-4.63257037594705	21.1740968358588	4.13226337749654	-4.21588327404142	-0.00080585690802637	-0.0031002755439497
1.13	16.4024009894729	-1.48683796667295	568.523221717627	-4.68212637461663	21.229496291406	4.19323060161247	-4.27271166834653	-0.000884035260188987	-0.00304552368231514
1.14	16.3116718809237	-1.6872868006514	568.748455816826	-4.70547363758664	21.2724948282292	4.23311481857099	-4.30487511320679	-0.000921991594929228	-0.00298417172847137
1.15	16.2347238947266	-1.93143185751883	568.425834303757	-4.7011952308753	21.2893019640904	4.24623029894954	-4.3080995662072	-0.000918737010916049	-0.00293292921761878
1.16	16.184438103843	-2.18735960106552	567.513688367888	-4.66972569766841	21.2705205934543	4.23089365041943	-4.28205493584956	-0.00087544456075328	-0.00290567228106842
1.17	16.1663178799103	-2.43082500215716	566.062386519623	-4.6123650404826	21.2133864110448	4.18967465102969	-4.23031038130572	-0.000793504089512731	-0.00291064037606248
1.18	16.1764839434103	-2.64678497483519	564.214594709224	-4.53079315511465	21.1224763118851	4.12868620071934	-4.15953181216211	-0.00067372860256032	-0.0029491917508031
