Time [s]	GRFml [N]	GRFap [N]	GRFv [N]	Mml [N.m]	Map [N.m]	Mv [N.m]	Mfree [N.m]	COPml [m]	COPap [m]
0.01	17.9246321492708	-3.02299214171795	574.312313221791	-12.2386468793628	-12.6467606455091	4.28740602503971	-4.73615626527149	-0.00640520448648196	-0.00207207958050337
0.02	17.9134253596563	-3.12816435503864	574.691952390886	-12.2207205411383	-12.8792835080402	4.34644937055968	-4.79770135743152	-0.00635817175881503	-0.00245731878262351
0.03	17.9263489742028	-3.20453319829584	574.846291925668	-12.2016420153114	-13.1085975792859	4.40002165995035	-4.85372409468108	-0.00631765790345207	-0.00284651527794427
0.04	17.9848027649947	-3.23283814955665	574.58657269451	-12.1802976752851	-13.3303758047971	4.44399719958665	-4.90019794867102	-0.00628888680766637	-0.00324023224671816
0.05	18.1012164330559	-3.20572780828254	573.826262678152	-12.1573848458475	-13.5403443101982	4.47617774321033	-4.93510013909765	-0.00627640829940179	-0.00363483384259489
0.06	18.2758947569689	-3.12876236915268	572.603034653987	-12.1356866389464	-13.7346829721356	4.49654026188112	-4.95860446275222	-0.00628374637518159	-0.00402220816899596
0.07	18.4960782741864	-3.01754811027852	571.070965184159	-12.1196456541512	-13.9105116291526	4.50690259124525	-4.97264491095624	-0.00631293423837254	-0.00439087248166464
0.08	18.7377351293166	-2.89182710097073	569.466232697821	-12.1144026583454	-14.0663508124479	4.51013628315329	-4.98001535209828	-0.00636410602649673	-0.00472815704376744
0.09	18.9700587573711	-2.76859204238623	568.055584137336	-12.1246007569387	-14.2024586269087	4.50919956531598	-4.98333318747352	-0.00643532653071477	-0.00502293870861031
0.1	19.1619510240724	-2.65691019383834	567.080096010005	-12.1532760934775	-14.3209726010412	4.50631302481536	-4.98424215900441	-0.00652275427597038	-0.00526829568612391
0.11	19.2891478472665	-2.55666487176478	566.706791963973	-12.201083621752	-14.4258027023117	4.50253931065407	-4.98313890613581	-0.00662110510983316	-0.00546346294835737
0.12	19.3403215343904	-2.46186483147161	566.997741246215	-12.2659909660453	-14.522230841734	4.49787743931794	-4.97950810377315	-0.00672429123927809	-0.00561458363992257
0.13	19.3206020199408	-2.36710508862145	567.901291150215	-12.3434655763558	-14.6161894458407	4.49179419331799	-4.97271284912494	-0.0068261075900905	-0.00573397319515151
0.14	19.2514921942928	-2.2741231361819	569.264549599377	-12.4271074441799	-14.7132342655589	4.48395611518895	-4.9629005122569	-0.006920915214082	-0.00583791389992272
0.15	19.166981753377	-2.19503840788315	570.861733226994	-12.509637035943	-14.8173021860757	4.47485513487335	-4.95162646739722	-0.00700436172904884	-0.00594332627573751
0.16	19.1065779067431	-2.15010904058877	572.430728262108	-12.5841117910194	-14.9294441776966	4.46606832959963	-4.94189985090306	-0.00707419478180182	-0.00606395139815452
0.17	19.1067265025871	-2.16024433103358	573.710513427865	-12.6451957637113	-15.0468168709133	4.46004141282681	-4.93758243482828	-0.00713112220895884	-0.00620685393747139
0.18	19.1924825629245	-2.23701955296355	574.474324697269	-12.6902528500829	-15.1622582993895	4.45947616318598	-4.94233239523461	-0.00717949079342739	-0.00637006096756837
0.19	19.3712009186197	-2.37437320230465	574.556294713904	-12.7200084195978	-15.2647210033709	4.46655398650136	-4.95846836240056	-0.00722740527099364	-0.00654195965172982
0.2	19.6295121754572	-2.54580113768242	573.87140872109	-12.7385669332853	-15.3406724321719	4.48227807938343	-4.98615757852998	-0.00728591335052853	-0.00670271111410653
0.21	19.9341273768264	-2.7087965663105	572.429166646813	-12.752700811547	-15.3763267961238	4.5061501725017	-5.0231985807335	-0.00736710030842358	-0.00682747896212504
0.22	20.2363203168096	-2.81540501524671	570.340393938749	-12.7705136239104	-15.3603163866	4.53625365220849	-5.06544036141349	-0.00748131928915774	-0.00689084251813615
0.23	20.479423408479	-2.8253213563966	567.815076333902	-12.799767914138	-15.2862355194378	4.56966339962859	-5.10766024249898	-0.00763418620225409	-0.00687149413384719
0.24	20.6083367516244	-2.71698971997396	565.148154789714	-12.8462835108901	-15.1544689232234	4.60300859141788	-5.1446000259156	-0.00782421307944015	-0.00675628826047642
0.25	20.5797816083108	-2.49304390062938	562.690930373341	-12.9128059835604	-14.9728668135878	4.63300731060572	-5.17186840346536	-0.00804190973028218	-0.00654291549276759
0.26	20.3717512768915	-2.17870495187738	560.808384008058	-12.998610842362	-14.7561034286485	4.6568572243041	-5.18652964307943	-0.00827082767017218	-0.00624083101045003
0.27	19.9903871481574	-1.81440999530214	559.826667317848	-13.0998896463291	-14.5238601778991	4.67246128789712	-5.18734741728807	-0.00849045548621319	-0.00587044118759167
0.28	19.4725320787783	-1.44584536923757	559.978902013233	-13.2107358024011	-14.2982093745391	4.67854245085009	-5.17476778712301	-0.00868029535804171	-0.0054608272911314
0.29	18.8826936237907	-1.11495654238952	561.359701347679	-13.3243919236254	-14.1006782290134	4.67472410626077	-5.15076345283646	-0.00882406770347421	-0.00504641022911168
0.3	18.3041476201363	-0.854379350006412	563.898444207392	-13.4343909044532	-13.9494445911578	4.66161928434573	-5.11862130548452	-0.00891294745126481	-0.00466296539775785
0.31	17.8252611800157	-0.685753657431476	567.358164284326	-13.5353222966454	-13.857007614653	4.64090508463918	-5.08267443490379	-0.00894704410875968	-0.00434336429306109
0.32	17.5234519193239	-0.620567711080539	571.361808990834	-13.6231339936766	-13.8285586006	4.61529998006336	-5.04791435117302	-0.00893487475147658	-0.0041134288856477
0.33	17.4500971472257	-0.661407955519841	575.442032471138	-13.6950558229098	-13.8611982674165	4.58834847651705	-5.0194161363005	-0.00889113806815323	-0.00398835958303168
0.34	17.6198185876773	-0.802039784741463	579.106115651518	-13.7493333598014	-13.9441080200519	4.56396612642803	-5.00158053937576	-0.00883348249059557	-0.00397028678095096
0.35	18.0067632909875	-1.02619769613184	581.90509022093	-13.7849575245541	-14.0597435624836	4.54579125102838	-4.99731039925535	-0.00877907201607364	-0.00404749944113042
0.36	18.5489263190378	-1.30643423402451	583.495999863826	-13.8014944248896	-14.1860277267759	4.5364847022669	-5.00733243470225	-0.00874161936982543	-0.00419573202727569
0.37	19.159624021933	-1.60500202989158	583.68811130024	-13.7990225774415	-14.2993529140902	4.53716814277248	-5.02989149160409	-0.00872930151791984	-0.00438152490382621
0.38	19.7434880640239	-1.87813926613057	582.46704229101	-13.7781294785412	-14.3779923913236	4.54716836403329	-5.06096189797743	-0.00874373389258964	-0.00456719361349606
0.39	20.2133347569256	-2.0835848014276	579.994387380046	-13.7399269071817	-14.4053407708864	4.56414812128935	-5.09496818192468	-0.00878003109188707	-0.00471650594501782
0.4	20.5042671260076	-2.18945613892824	576.583857163679	-13.6860891268026	-14.3723459345341	4.58458914972838	-5.12584788526146	-0.00882790916894949	-0.00479993954223684
0.41	20.58234079431	-2.1816507899952	572.657839751537	-13.6189514766148	-14.2786122100796	4.60449545756251	-5.1481874435296	-0.00887371897557232	-0.0047984779687737
0.42	20.4467034310624	-2.06718288810489	568.690506262243	-13.5416909858935	-14.1319360887339	4.6201378137488	-5.15815491216321	-0.00890318038592275	-0.00470528411283477
0.43	20.1257692483884	-1.87224258674051	565.14507862943	-13.4585436933371	-13.946401122075	4.62867328424376	-5.1540360936254	-0.00890441012908316	-0.00452513673124999
0.44	19.6692200907824	-1.63563572235065	562.413603803691	-13.3749305833678	-13.7394905161662	4.62853297402193	-5.13631369909354	-0.00887066406956827	-0.00427203977273666
0.45	19.1381407589228	-1.39979251227845	560.767417969203	-13.2973178659852	-13.5288695349242	4.6195482310404	-5.10735776746519	-0.00880214432877402	-0.00396574931315657
0.46	18.5953806755191	-1.20209811017876	560.325303034425	-13.232668685943	-13.3294966776623	4.60284996434903	-5.07087359936566	-0.00870633031956902	-0.00362803641882126
0.47	18.0975153363015	-1.06875462916319	561.044080342172	-13.1874593655514	-13.1515664601208	4.58060760114356	-5.03126212327142	-0.00859659542630697	-0.00327935646179844
0.48	17.6889296710581	-1.01211359154069	562.733179777948	-13.1664004691927	-12.9995446721453	4.55567211088716	-4.99300147962676	-0.00848930283607785	-0.00293634458901926
0.49	17.3979283047038	-1.03109444215554	565.090934411918	-13.1711585006094	-12.8723178881982	4.53116748053233	-4.96009649660126	-0.00840000756323456	-0.00261032817869211
0.5	17.2346098642886	-1.11353945806725	567.75658503288	-13.1994507182098	-12.7643016535158	4.51006040345026	-4.935606220859	-0.00833968205849356	-0.00230690584549648
0.51	17.1904874712843	-1.23938493814362	570.368992248514	-13.2448408476985	-12.6672466379139	4.49474432117623	-4.92126888619021	-0.00831192297281524	-0.00202657076712448
0.52	17.2402128820766	-1.38411522405586	572.621600253909	-13.29740016907	-12.5724231309436	4.48669754422593	-4.91728374286201	-0.00831186130095363	-0.00176628108155791
0.53	17.3458771670739	-1.52256441216846	574.303814652692	-13.3451666323712	-12.4728212604796	4.48629341403719	-4.92233753226545	-0.00832705581511639	-0.00152173803437988
0.54	17.4639445201365	-1.63323473628525	575.3217485734	-13.3761125723666	-12.3649729299493	4.4928267546009	-4.93393738416921	-0.00834013743410156	-0.00128992620482415
0.55	17.553970623439	-1.70277508697342	575.695776435464	-13.3801933606828	-12.2500113935324	4.5047652134356	-4.94902071030837	-0.00833254295721819	-0.00107128349176649
0.56	17.5872548916761	-1.7294525615138	575.537480081988	-13.35103480933	-12.1336796973459	4.52015484869791	-4.96469180232815	-0.00828844380354554	-0.000870826770879685
0.57	17.5530385909261	-1.72398487902509	575.013042352993	-13.2869186836137	-12.0252027624248	4.5370457985215	-4.97885025006182	-0.00819797871654659	-0.000697754347101509
0.58	17.4602126784941	-1.70650822546191	574.302710257855	-13.190897352944	-11.9352221374315	4.55379365852721	-4.99048611955629	-0.00805910482908556	-0.0005634712765481
0.59	17.3337670238408	-1.69979884811174	573.565907823556	-13.070051568724	-11.8732764501148	4.56914774541073	-4.99953464710312	-0.00787771055025388	-0.000478513410751447
0.6	17.206964795039	-1.72064030649715	572.918996291113	-12.9340549194266	-11.8454880724473	4.58213673254482	-5.00636536794037	-0.00766600235925485	-0.000449281594082473
0.61	17.11175120161	-1.77256107150749	572.428387453795	-12.7933084639085	-11.8531026381948	4.59185890058917	-5.01114529611384	-0.00743952298256978	-0.000475651400698274
0.62	17.0705402837748	-1.84325398514656	572.117043348333	-12.6569671446865	-11.8923013242436	4.59733101464741	-5.0133828403993	-0.00721344215872344	-0.000550305572915744
0.63	17.0919611303598	-1.9085274526501	571.978755653279	-12.5312089060581	-11.9553244423157	4.59752160596452	-5.0118897524415	-0.00699895251636284	-0.000660096391318143
0.64	17.1715887350475	-1.94205444530109	571.993061998311	-12.41809653981	-12.0325304488315	4.59160121831666	-5.00521557654465	-0.0068006600731717	-0.000789061082747344
0.65	17.2967672029026	-1.92752019044934	572.134630700395	-12.3153283036047	-12.1147099742269	4.57932541274767	-4.99238978968403	-0.00661572773414543	-0.000922126326932282
0.66	17.4531431242463	-1.86824922834853	572.374040244843	-12.2170353966258	-12.1948928211356	4.56138104575703	-4.97364937434859	-0.00643517279968864	-0.00104826587933698
0.67	17.6300631249319	-1.78986184025564	572.67100996142	-12.1155520833889	-12.2690666974451	4.53951645495857	-4.95080971810143	-0.0062471589830122	-0.00116203205843546
0.68	17.8226969600962	-1.7339853423364	572.964845550348	-12.0037949605145	-12.3356165347791	4.51635286545458	-4.92707131051365	-0.0060414792042871	-0.0012629300324361
0.69	18.0302644612899	-1.74462156561437	573.168778761595	-11.8776321526545	-12.3937601406126	4.49490738932312	-4.90628966426384	-0.00581390586923947	-0.0013528612857367
0.7	18.2513879451347	-1.85195779496857	573.174194037652	-11.7375176681459	-12.4416328462173	4.47798643577283	-4.89196703117635	-0.00556892323798419	-0.00143256365114053
0.71	18.4786888489773	-2.05978015046637	572.867515126919	-11.588799231447	-12.4748210884387	4.46766822564773	-4.88634477830556	-0.00531970336371268	-0.00149836715461449
0.72	18.6949396373994	-2.34151490756986	572.157765996658	-11.44048393555	-12.4860038169491	4.46505068495988	-4.88992739053725	-0.00508501400789629	-0.00154052197480786
0.73	18.8724375283821	-2.64668193800035	571.008156086158	-11.3027595727887	-12.4659770954146	4.47031351819989	-4.90157574944326	-0.00488381064337851	-0.00154385242274407
0.74	18.9761633021682	-2.91553416638224	569.462188901059	-11.1840324649475	-12.4058453331914	4.48299359400347	-4.91906181097885	-0.00472917497169456	-0.00149071934308898
0.75	18.9701673204507	-3.09656430882984	567.654931433282	-11.0884602409374	-12.2997350955853	4.5022782382372	-4.93979618702939	-0.00462363718657277	-0.00136549584220136
0.76	18.8257817921425	-3.16066282838071	565.803389057215	-11.0148195753555	-12.1471731679415	4.52713272424345	-4.96140686680415	-0.00455755914111722	-0.00115923976534565
0.77	18.529789901249	-3.10731593548751	564.175494386163	-10.9570871250133	-11.9543416975362	4.55619305413428	-4.9819693694463	-0.00451125094546057	-0.000873150797418842
0.78	18.0905716820751	-2.96156179891552	563.043334877525	-10.9064980858142	-11.7337522161085	4.58751525445913	-4.99989768556185	-0.00446020498751198	-0.000519752753449843
0.79	17.5404808615214	-2.76398984217589	562.630991330494	-10.8543206609368	-11.5023532493536	4.61839299586193	-5.01369226895605	-0.00438174654434464	-0.000121415996594765
0.8	16.9333193627428	-2.55835679887042	563.069238947272	-10.7943520266538	-11.2785460505898	4.64546653658628	-5.02181025222109	-0.00426093156330842	0.000293394102604982
0.81	16.3367785415144	-2.38153448281211	564.367784092585	-10.7242873026741	-11.0788853577523	4.66522946310611	-5.02283857843063	-0.00409383855083922	0.000695131831949802
0.82	15.8209860643855	-2.25863762071489	566.411172286873	-10.6455695811907	-10.915302756756	4.67484186888814	-5.01595602734256	-0.00388736452802108	0.00105813861849241
0.83	15.4455220885441	-2.2033464198509	568.978419644086	-10.5619079997225	-10.7935083699889	4.6729726709646	-5.00146712562802	-0.00365586402568707	0.00136434270831043
0.84	15.248014158064	-2.22105857885333	571.780651575247	-10.4771242613583	-10.7128768919511	4.66031704855521	-4.98109106232437	-0.0034160003829492	0.001604889511164
0.85	15.2373117475419	-2.31169098366668	574.507276276768	-10.3931810585101	-10.6677232770406	4.63952025195229	-4.95775616591687	-0.00318164545721633	0.00177950133363663
0.86	15.3931621937034	-2.46997627678088	576.870451234759	-10.3091039759511	-10.6495368201877	4.61446337291677	-4.93486582401233	-0.00296043925654788	0.00189396854511792
0.87	15.6725098987843	-2.68328899433438	578.639756217719	-10.2211129795453	-10.649548221947	4.58913591901658	-4.9152660133946	-0.00275285084727106	0.00195662766988214
0.88	16.0205860053695	-2.92912959800886	579.663021033999	-10.1238065503862	-10.6609798188361	4.56651000433376	-4.90032524580654	-0.00255361069641658	0.00197488934140305
0.89	16.3835295996754	-3.17520566394413	579.873570776673	-10.0118817690761	-10.6804582768887	4.54784769384323	-4.88953545816692	-0.00235460077435068	0.00195280692908251
0.9	16.718918650272	-3.38408100352115	579.2872294176	-9.88175156326313	-10.7083090055982	4.53270129801748	-4.88084473532587	-0.00214796091599345	0.00189034762279744
0.91	17.0014502026423	-3.52206304674869	577.993413725364	-9.73254889084917	-10.7477465809996	4.51957969578599	-4.87162400995907	-0.00192834989010426	0.00178451623863762
0.92	17.2227935172312	-3.56952704624426	576.143639955086	-9.56629800539719	-10.8032622316505	4.50697961340961	-4.85989102042222	-0.00169383074463481	0.00163191112490335
0.93	17.3866813464447	-3.52851840094616	573.938639684255	-9.38734765080204	-10.8787209075222	4.49433964624576	-4.84529464054488	-0.00144546512765942	0.00143181853543178
0.94	17.5018316583844	-3.42400342250037	571.613269675081	-9.2013788771912	-10.9757568486797	4.4825243342033	-4.82945643996492	-0.00118615064076988	0.00118873090474819
0.95	17.5757436482369	-3.29743415722586	569.417541577171	-9.01436123303563	-11.0929649428615	4.47365749089364	-4.81553192603216	-0.00091938168742689	0.000913302528332494
0.96	17.6116712511196	-3.1943924720636	567.592828383197	-8.83174678662332	-11.2261387461116	4.47040126876762	-4.80717440026632	-0.000648462927885118	0.000621224517497854
0.97	17.6095121011562	-3.15061880546566	566.34432729526	-8.65802431536016	-11.3694706389288	4.47500049300197	-4.80732226568913	-0.000376371304585343	0.00033017990846318
0.98	17.5696390499419	-3.18156439131737	565.81329355842	-8.49658571263738	-11.5173092373503	4.48849004703124	-4.81728755751904	-0.000106110014223337	5.57106288058828e-05
0.99	17.4975356736817	-3.279317425043	566.054317498679	-8.3497486470406	-11.6658732629558	4.51037049748977	-4.83647959178398	0.000158830890587769	-0.000192745094486191
1	17.4068949489227	-3.41785151012122	567.023142215381	-8.218765635226	-11.8143244777084	4.53883965434491	-4.86281749586685	0.000414319286532128	-0.000414369049405561
1.01	17.3196027157664	-3.56424440498169	568.578937862134	-8.10372247848169	-11.9648141075389	4.57142253888182	-4.89359040080153	0.000655974287456007	-0.000617177287122628
1.02	17.2623770623857	-3.69121488539464	570.501974798951	-8.00334789140008	-12.1214711895713	4.60567732022988	-4.92634254959493	0.000880069193950672	-0.000815802959891698
1.03	17.2611956644161	-3.78599602281417	572.524196137366	-7.9148636322147	-12.2886742863357	4.63964343465056	-4.95937333362953	0.00108463496025168	-0.00102750102710047
1.04	17.3354762802203	-3.85231639382854	574.367335567554	-7.8340487442184	-12.469202326854	4.67184524957227	-4.99164498488667	0.00127031403105338	-0.00126758624155165
1.05	17.4939786440489	-3.90529728767276	575.781750976565	-7.75564861224834	-12.6628968969967	4.70090146102335	-5.02219136959259	0.00144056356151856	-0.00154564614596259
1.06	17.7336088799104	-3.96204373060636	576.579341566316	-7.67414480176589	-12.8662697543033	4.72500348045882	-5.04937916542308	0.00160102465575185	-0.00186353122365468
1.07	18.0410927020162	-4.03232782825232	576.655571017702	-7.58476375841977	-13.0731325473585	4.74161086543625	-5.07046380486887	0.00175816703778242	-0.00221545576214688
1.08	18.3963792782957	-4.1134014194036	575.998163879389	-7.48450085652078	-13.2759539633147	4.74762466575059	-5.08176114033846	0.00191756589496883	-0.00258981456888979
1.09	18.7761268959084	-4.19090774377981	574.682766589298	-7.372912845186	-13.4674128396889	4.74007954457951	-5.07947711245992	0.00208227732303856	-0.00297181783769429
1.1	19.1559128612458	-4.24510061634398	572.858106114961	-7.25249118408183	-13.6416054395948	4.71714489006271	-5.06093043714431	0.00225172629127346	-0.00334595009141775
1.11	19.5107379309388	-4.25936924012543	570.724469793834	-7.12853843008119	-13.7945734764781	4.6790586498	-5.02570648792462	0.00242135322245396	-0.00369757112330621
1.12	19.8144993622826	-4.22731456070751	568.509492953056	-7.00857870993445	-13.9241449586562	4.62860915839889	-4.97627918013266	0.00258306898018668	-0.00401352608152022
1.13	20.0398501814864	-4.15552760476013	566.444429713185	-6.90140048620352	-14.0293747396136	4.57093227090417	-4.9178283563565	0.00272642052265104	-0.00428215665822762
1.14	20.1598802279579	-4.06124551225472	564.742738502324	-6.81584702779663	-14.1100088337981	4.5126382452602	-4.85727846186953	0.00284029753536286	-0.00449337167893532
1.15	20.1523071689978	-3.96623623772904	563.581530490939	-6.75946452872	-14.1663241579197	4.46052329047352	-4.80186559727531	0.00291498185368855	-0.00463933546563111
1.16	20.0056443063098	-3.88964701238649	563.085739561748	-6.73713191519824	-14.199455200283	4.42025988307028	-4.75769330861589	0.00294429633615756	-0.00471592398360221
1.17	19.7256130142298	-3.84264271316399	563.315029131853	-6.74985334270638	-14.2120248700303	4.39544772129815	-4.7287092548179	0.00292751398023383	-0.00472457428166984
