Time [s]	GRFml [N]	GRFap [N]	GRFv [N]	Mml [N.m]	Map [N.m]	Mv [N.m]	Mfree [N.m]	COPml [m]	COPap [m]
0.01	-2.34121646206388	1.83386480249044	781.985045608726	11.5209204750341	31.0763940910385	0.871673145881084	-0.9790480016346	0.000745385366279661	-7.53229888164064e-05
0.02	-2.43395323467756	1.68661029855563	781.451600440277	11.5299943631135	31.1354335385508	0.830606738125662	-0.93370399527619	0.000765153141591424	3.01807572055113e-05
0.03	-2.52017441145335	1.56473290943881	780.975919281796	11.5339412393223	31.1949356394759	0.792105683071401	-0.891818008965979	0.000777460168165378	0.000133363350975579
0.04	-2.59542121211015	1.48746328207261	780.608519169771	11.5291949097266	31.2555868960216	0.758363848725717	-0.85626823275019	0.00077693641266019	0.000232550189923963
0.05	-2.65731337252928	1.46325997833205	780.381584006874	11.5143319982128	31.3172719734512	0.730982780545669	-0.828949335396462	0.000761225343006378	0.000325958636411827
0.06	-2.70557840584478	1.48845610656167	780.303485660518	11.4901575461906	31.3790373343433	0.710734798809431	-0.810482842373404	0.000731186203534517	0.000411928475919643
0.07	-2.7414064232033	1.54925884456174	780.357914190722	11.4591279709156	31.4392522592958	0.697457584577935	-0.800180408218596	0.000690184045589626	0.000489175728356939
0.08	-2.76640138464838	1.62625035270954	780.5079356398	11.4243997024967	31.4957667946809	0.69014349896235	-0.796293848855494	0.000642825425981375	0.000556796248665614
0.09	-2.78155723434124	1.69984651623953	780.7040875902	11.3888924081291	31.545938797079	0.68723457199981	-0.796508816362916	0.000593644246558056	0.000613898488683151
0.1	-2.78666581750922	1.75505054973609	780.894670123324	11.3546833277879	31.5865721885798	0.687061758353477	-0.798561728556247	0.000546166223882816	0.000659009842515823
0.11	-2.78037974945781	1.7842601700053	781.036028431973	11.3228605048968	31.6139619379947	0.688304748261359	-0.800811016339039	0.000502548168881733	0.000689615796437171
0.12	-2.76089274584785	1.78763918195371	781.100852206579	11.293759684217	31.6242738771208	0.690324155024342	-0.802594770498169	0.000463729060769968	0.000702222414209364
0.13	-2.72696870452578	1.77136101540181	781.083089576268	11.2673842564072	31.6143620198008	0.693247060815649	-0.804263698375305	0.000429864121030743	0.000693145095191861
0.14	-2.67893090759787	1.74461598867218	780.998714526805	11.2437976675964	31.5828928071285	0.697766109497	-0.806878563110906	0.000400792423117413	0.000659897589334435
0.15	-2.61924599524628	1.71649249058991	780.882166020417	11.2233565732939	31.5314174824828	0.704716855380973	-0.811674697134245	0.000376380241041585	0.0006027350707975
0.16	-2.55248362499413	1.69367729780495	780.778836774446	11.2067555368052	31.4649305735881	0.714588721102695	-0.819482525211911	0.000356702045609225	0.00052574444377762
0.17	-2.48464390730831	1.67947845800004	780.734631247232	11.1949209221207	31.3915432986671	0.727162685859389	-0.830316586962187	0.000342091810533574	0.000436957224531853
0.18	-2.42204740820143	1.67413868495329	780.784340245922	11.1888037408494	31.3211700497576	0.741432156295533	-0.843290890049998	0.000333095933232608	0.000347265762996429
0.19	-2.37011231016254	1.67597070788369	780.941220263086	11.1891031609912	31.2634784863984	0.755860071620868	-0.85689995787518	0.000330321512609144	0.000268339787526717
0.2	-2.33236488613794	1.68264722619791	781.190419897825	11.1959456791637	31.2256533110015	0.768891994701155	-0.869564472782374	0.000334159299313019	0.000210109366255151
0.21	-2.30994600767491	1.69206143323827	781.488490543225	11.2085723706395	31.2106501197043	0.779534315582104	-0.880232265270332	0.000344403525784909	0.000178562596029885
0.22	-2.30172432803958	1.70248134634218	781.770067037317	11.2251335731649	31.2165122797817	0.787765749541751	-0.888794642438603	0.000359873443765757	0.000174533633158891
0.23	-2.30495735577633	1.7121151786726	781.961087954738	11.2427155852036	31.237019027482	0.794600379393861	-0.896141165147984	0.000378206891225696	0.000193855791343345
0.24	-2.31630055024572	1.71851789122802	781.996068993704	11.2576902432895	31.2635277787919	0.801746909308962	-0.903812259331224	0.000395988503017031	0.000228832209777374
0.25	-2.33288034936119	1.71836441834171	781.83549385863	11.266380988804	31.2875023334572	0.810965010356645	-0.913367028584729	0.00040927797566348	0.000270576475823514
0.26	-2.35313188600943	1.70794432870594	781.478842937584	11.2659137216294	31.3030010150068	0.823344594690744	-0.925700763875276	0.000414453374040669	0.000311525153639025
0.27	-2.37715841178266	1.68436287125238	780.969417583603	11.255024660585	31.3084015442224	0.838776321889865	-0.940574673254156	0.000409149400503628	0.000347394710707105
0.28	-2.40649144849293	1.6470276724195	780.388882832192	11.2345780256769	31.3068589566324	0.855821624772555	-0.956545905096503	0.000393012989913566	0.000378045248384362
0.29	-2.44329861539529	1.59875220798469	779.841955361003	11.2076160137787	31.3053610833785	0.872048425560723	-0.971336846125854	0.000368041832941479	0.000407055814166613
0.3	-2.48925965539955	1.54585239768815	779.434282527196	11.1788951337455	31.3126535683614	0.884727781960929	-0.982516909776707	0.000338392150341593	0.000440202938159495
0.31	-2.54445469846559	1.49696002870718	779.248591595837	11.1540065908657	31.3366337582684	0.891652103066386	-0.988252017884052	0.000309688846086953	0.000483348601896527
0.32	-2.60663125868876	1.46079327381324	779.325027899519	11.138286744506	31.3819633590575	0.891788798482542	-0.987851892250724	0.000287994183971629	0.000540393493414615
0.33	-2.67111775356402	1.44358921352495	779.650890228823	11.1357703809144	31.4485769735899	0.885542427109396	-0.981921953814753	0.000278662998161261	0.00061189488375224
0.34	-2.73145787176916	1.44710640137977	780.162743436167	11.1484224809755	31.5314877318957	0.874541664983137	-0.972075088028731	0.0002853300685427	0.000694709991554965
0.35	-2.78061792419348	1.46794701860302	780.760639043036	11.1758161523391	31.6218978226513	0.861040976013535	-0.960322045902256	0.000309246636504001	0.000782689238051748
0.36	-2.81244618949153	1.49848459979148	781.330808196232	11.2153224073087	31.7092381618679	0.847165325653536	-0.948375917336527	0.000349113950390501	0.000868125653734786
0.37	-2.82299446770284	1.52910147782204	781.770776184634	11.26275909992	31.7835138606571	0.834277324157496	-0.937132090485157	0.000401455429176023	0.000943473257210892
0.38	-2.81135902044769	1.55097320533486	782.01023960067	11.3133334455685	31.8372981321415	0.822690990128578	-0.926511255813973	0.000461437453652791	0.00100283382552441
0.39	-2.77983193407002	1.55846527185619	782.022522867389	11.3626338074572	31.866894800697	0.811817372476349	-0.915708769905764	0.00052392272832491	0.0010428617526328
0.4	-2.73332799918279	1.55038600847147	781.824515465382	11.4074109423713	31.8724990361171	0.800659881456731	-0.903736036821502	0.000584464696624876	0.00106297384607318
0.41	-2.67822476648198	1.5297842094169	781.466593920361	11.4459514383202	31.8575058613581	0.788447154028689	-0.890030302275634	0.000639965176019497	0.00106497610812367
0.42	-2.62089550327508	1.50250777831116	781.016860228053	11.4779738737701	31.8273348208398	0.775147808089794	-0.874889704656457	0.000688827864592789	0.00105235650967811
0.43	-2.56630328023343	1.47514706863408	780.545109522963	11.5041301423834	31.7881977121219	0.761667402519156	-0.859564749528283	0.000730613589954854	0.00102951491167541
0.44	-2.51703539013812	1.45313010350803	780.111022141743	11.5253156420166	31.7461426771487	0.749656391031132	-0.845972300731211	0.000765374427156518	0.00100113087574027
0.45	-2.47307052619205	1.43958474789717	779.758705963735	11.5420377618654	31.7065235120722	0.741005755710597	-0.836138881340687	0.000792945988034144	0.000971756298724202
0.46	-2.43238519932944	1.43521924172208	779.516969191045	11.5540474834873	31.6738502650731	0.737218303886156	-0.831573835866012	0.000812471292786388	0.000945612433322696
0.47	-2.39225333293341	1.43905593949903	779.402698326418	11.560325466686	31.6518465641992	0.738881007075786	-0.832789375335111	0.000822322049358837	0.000926503310854199
0.48	-2.35084444704465	1.44954998328443	779.424146392294	11.5593794974424	31.6435070209834	0.745420143534659	-0.839124529654313	0.000820421614109557	0.000917742019835244
0.49	-2.30857460629529	1.46554400231504	779.581840805135	11.5497074593895	31.6510103241905	0.755218029893945	-0.848921194426921	0.000804825070163107	0.000922016905032186
0.5	-2.26869121910609	1.48666447483893	779.866639565291	11.5302447241631	31.675463184336	0.766047118811611	-0.859983944505127	0.000774332035327396	0.000941183717782457
0.51	-2.23680347649572	1.51307129868854	780.25632823258	11.5006521077581	31.7165734729146	0.77567624660341	-0.870170147320512	0.000728920276711453	0.000976033093418149
0.52	-2.21944711939248	1.54478654663195	780.713248778168	11.4613854278143	31.7724268134655	0.782455986427305	-0.877927573813124	0.000669876794834767	0.00102612607785962
0.53	-2.22216199025932	1.58101071924561	781.185347919546	11.4135790482282	31.8395385961936	0.785706851212484	-0.88262682831368	0.000599623369259006	0.00108979556445421
0.54	-2.2478011861153	1.6198086280429	781.611810863636	11.3588354927711	31.9132727863387	0.785805288870032	-0.884609698934351	0.000521334786844796	0.00116437319752971
0.55	-2.29575939964114	1.65833601390968	781.932649160427	11.2990217555082	31.9885911003302	0.783961341145979	-0.884964426751678	0.000438494007201307	0.00124663125476798
0.56	-2.36248385867669	1.69349564016247	782.099996731141	11.2361350146205	32.060971685371	0.781775515412663	-0.885116279815153	0.000354510161684418	0.0013333531431069
0.57	-2.4431173170249	1.72270464850834	782.088083764557	11.1722399093291	32.1272644328811	0.78072267481692	-0.886366099233934	0.000272460537453667	0.00142189422831496
0.58	-2.53361873301282	1.7444273176803	781.899172041196	11.1094276740184	32.186257002632	0.781722265626401	-0.889512557065867	0.000194942200037351	0.0015105870693754
0.59	-2.63243558724995	1.75828523509639	781.563944602161	11.0497296245105	32.2388048378856	0.78491736443285	-0.894659610807732	0.000123970315916599	0.00159888354859095
0.6	-2.7409095026012	1.76480575680048	781.13640335432	10.9949425209318	32.2874956374069	0.789713969382585	-0.901251397860161	6.08614854645806e-05	0.0016871948667333
0.61	-2.86207833260893	1.76506534791464	780.684637338961	10.9463791228205	32.3359308644492	0.795049426965955	-0.908309262756121	6.08825647774314e-06	0.00177646478338289
0.62	-2.9982177429055	1.76051183685971	780.27950245794	10.9046157541176	32.3877826842171	0.799789808164483	-0.914787359125464	-4.08435059651158e-05	0.00186757155473033
0.63	-3.14806200913947	1.75308831868945	779.983274313365	10.8693389262248	32.4458151709491	0.803120917639877	-0.919929911244073	-8.13999686078981e-05	0.00196068989877424
0.64	-3.30489081486625	1.74552269170831	779.839952506989	10.83937671993	32.5110526715318	0.804806581822501	-0.923514894767304	-0.000117822924162958	0.00205475497023555
0.65	-3.45643641246156	1.74144838248563	779.868430208862	10.812942072088	32.5822498177665	0.80523704646611	-0.925906481298471	-0.000152711793839355	0.00214715751269112
0.66	-3.58692316457014	1.74502022599145	780.05938363657	10.7880398405312	32.6557746207831	0.805262488146477	-0.927901579476048	-0.00018845502622955	0.0022337637420542
0.67	-3.68074256042331	1.7599170788612	780.376447233574	10.7629311607308	32.7259580197388	0.805877019055765	-0.930424254675411	-0.000226654681912519	0.00230929646289812
0.68	-3.72660894893902	1.78797964004719	780.761839119426	10.7365314786828	32.7858884656331	0.807863760233364	-0.934172680660429	-0.000267706834690129	0.00236804219865577
0.69	-3.72079780862538	1.82803275667845	781.145938985296	10.7086457886746	32.8285441966341	0.811517848643117	-0.939338786597005	-0.000310656968914524	0.00240477673781042
0.7	-3.66834305456313	1.87551143788119	781.459449850286	10.6799983876913	32.8480752635537	0.816531792321918	-0.94549515990612	-0.000353366132151867	0.00241574576798298
0.71	-3.58176455870901	1.92327708694298	781.645979930839	10.652069112633	32.8409950290716	0.822069580286663	-0.951685779452139	-0.000392938145824417	0.00239951201332833
0.72	-3.47774892785202	1.96354778220107	781.67253026015	10.6267853406331	32.8070367746683	0.826993522299862	-0.956687245235662	-0.000426301460258682	0.00235749174578254
0.73	-3.37289216593976	1.99036366300257	781.535692077705	10.6061364508677	32.7494831141802	0.830162467624226	-0.959350330551018	-0.000450819869766583	0.00229405077486083
0.74	-3.27987861273967	2.00169171109148	781.262278961045	10.5917837789383	32.6748753372095	0.830706008698689	-0.958908091442639	-0.00046481288924316	0.00221610638756553
0.75	-3.20523470931784	2.00030613159139	780.904328101378	10.5847422606133	32.5921328457883	0.828198281834887	-0.955153915450665	-0.000467883766836374	0.00213227427722695
0.76	-3.14917567214134	1.99298241528826	780.52952857736	10.5852073352358	32.5112286427043	0.822696493869805	-0.948442732591847	-0.00046097723204197	0.00205168873307188
0.77	-3.10731479585714	1.98817339816753	780.208921657306	10.592580446654	32.4416485948594	0.814655877108746	-0.939531242741423	-0.000446130199241668	0.00198268863628059
0.78	-3.07341247618796	1.99294095205107	780.004102230505	10.6056992947649	32.3908965207542	0.804767780379952	-0.929325063842932	-0.000425947051687414	0.00193158657262255
0.79	-3.04210325232093	2.01024129489646	779.956174948305	10.6232109195731	32.3632960374284	0.79378139127853	-0.918624555754561	-0.000402919654127532	0.00190172323928151
0.8	-3.01070091428551	2.03756363217072	780.078430191529	10.6439619141345	32.3592944109295	0.782361630649777	-0.907951021085122	-0.000378789508769128	0.0018929657640655
0.81	-2.97963899432125	2.06743884993364	780.354113376057	10.6672547017249	32.375402806521	0.771012924704477	-0.897498159381601	-0.000354171940691317	0.00190174870743715
0.82	-2.95165524296384	2.08966392942383	780.739783989108	10.6928556858059	32.4048137995444	0.760071199512877	-0.887205933468379	-0.000328599559472398	0.00192168325364228
0.83	-2.93025960942059	2.09449051670726	781.173693889741	10.7207362996938	32.438620990009	0.749744306188829	-0.876913098688539	-0.000301000974968879	0.00194466879842065
0.84	-2.91818900026321	2.07571642579012	781.587559016563	10.7506459553771	32.4674367927102	0.740170323256829	-0.866523465017993	-0.000270459926010602	0.00196233323129708
0.85	-2.91641953737063	2.03268510058164	781.919320344269	10.7817036042541	32.4830911219948	0.731465134375388	-0.856123970676504	-0.000236972408147906	0.00196752505659187
0.86	-2.92397012565643	1.97058808908382	782.124231819864	10.8122080057206	32.4800385547788	0.723742394646798	-0.846015895727516	-0.000201896245247246	0.00195552356872608
0.87	-2.93835830333073	1.89902596379523	782.182001052361	10.8397945115421	32.4561433012411	0.717104878003829	-0.836654392499107	-0.000167886107532267	0.00192466540226377
0.88	-2.95632929685516	1.82932373310563	782.098682792857	10.8619363695211	32.4126594885268	0.711620029519808	-0.828524277782601	-0.000138290498647886	0.00187622265915927
0.89	-2.97446438567808	1.77145274111544	781.903328307185	10.8766543579717	32.3534435993878	0.707299468916108	-0.822001409356969	-0.000116183212993004	0.00181357842914948
0.9	-2.98946033950911	1.73148618732835	781.640638886307	10.8832119530507	32.2836530423408	0.704100174296558	-0.817252653263471	-0.000103336543894383	0.00174095681560849
0.91	-2.99813343112051	1.71030275175488	781.361680680459	10.8825630910882	32.2083187097017	0.701955381440537	-0.814212671218607	-9.94728485130825e-05	0.0016620930315055
0.92	-2.99738495570235	1.70383214625517	781.114870953281	10.877384543426	32.1311804739767	0.700829668763875	-0.81264743380789	-0.000102052098793992	0.00157922295552604
0.93	-2.98437149702784	1.70464940169851	780.93896747967	10.8716406571512	32.0540499576173	0.700780199179373	-0.812281897637476	-0.000106696731798972	0.00149263824553786
0.94	-2.95696179076426	1.70433076766419	780.858928272827	10.8697607036079	31.9767733750014	0.701999444104261	-0.812944205821046	-0.000108169135604852	0.00140085457370875
0.95	-2.91433877164402	1.69580670020393	780.884602640429	10.8756247603478	31.8976870434549	0.704817401082235	-0.814671165991036	-0.000101650841175638	0.00130125832292782
0.96	-2.85745536968804	1.67502957314375	781.011562012963	10.8916240980641	31.814348089132	0.70965395093146	-0.817733880969207	-8.39688658350601e-05	0.00119099066553713
0.97	-2.78906112348011	1.64156372247213	781.223127379247	10.9180642307134	31.7243002004997	0.716930803866988	-0.822573424539141	-5.44057008210475e-05	0.00106781189230204
0.98	-2.71317625347083	1.59808189075249	781.492785317913	10.9531023636116	31.6256792684884	0.726969530743031	-0.829671192229503	-1.48294094328705e-05	0.000930739200385444
0.99	-2.63411504266884	1.54907830436999	781.786581333101	10.9932653685485	31.5175421990382	0.739908639982965	-0.839401274542561	3.09249292085312e-05	0.000780331222128894
1	-2.55534288714719	1.49928777359934	782.065564490926	11.0344157979155	31.399887359339	0.755663870282184	-0.851912787985912	7.82515587540722e-05	0.000618577352082483
1.01	-2.47851744581392	1.45230506489996	782.288750488732	11.0728804571599	31.2734151693902	0.773935048017276	-0.867069844199239	0.000123172109475767	0.000448433171749529
1.02	-2.40300297371723	1.40976479811989	782.417204366591	11.1063905497346	31.1391477799057	0.794240650424736	-0.884447976114697	0.000163471831665207	0.000273126936372936
1.03	-2.32600073185949	1.37123649954562	782.41959770247	11.1345407973231	30.9980779287077	0.81595037841777	-0.903364698963537	0.00019918998587598	9.54391387416598e-05
1.04	-2.24327112352817	1.33477917715158	782.278949943986	11.1586447965538	30.8510284436444	0.838293928788765	-0.922919456060665	0.000232311210828673	-8.27980727559074e-05
1.05	-2.1502869583246	1.29793426980298	781.999364492721	11.1810817395912	30.698851716896	0.860347561892782	-0.942033785480889	0.00026580214763261	-0.000260759665069554
1.06	-2.04357475158955	1.25884345426003	781.610736180106	11.2044057209942	30.5429740675648	0.881026154116746	-0.959504395311009	0.00030237995851079	-0.00043814323826008
1.07	-1.92196819990545	1.21716767309948	781.169051368966	11.2305488309061	30.3861178396197	0.899121709207146	-0.974094428103081	0.000343483208261053	-0.00061424389791831
1.08	-1.78750092131533	1.17454808178323	780.750374136534	11.2603711483798	30.2328770679347	0.913420331597944	-0.984681459670432	0.000388806238843409	-0.00078691477859999
1.09	-1.64569934260923	1.13446838737826	780.438018296133	11.2936365681932	30.0897633687284	0.922900130858129	-0.990455710833323	0.000436507809176367	-0.000951881969728896
1.1	-1.50511332505971	1.10152617720227	780.30449471176	11.3293082341577	29.9644419934953	0.926974194092194	-0.991129854854446	0.000483927607005885	-0.00110284944771294
1.11	-1.3760593870264	1.08027305435643	780.392003031668	11.3659468162565	29.8641480622948	0.925711572516359	-0.98709822892145	0.000528461390551183	-0.00123258744155386
1.12	-1.26874747296773	1.07391255149971	780.69672803184	11.4020030014902	29.7936319669019	0.919958284006922	-0.979480386181584	0.000568228085658817	-0.00133480929517216
1.13	-1.19117550569066	1.08321738250263	781.162298043793	11.4359054212791	29.7532876877248	0.911295289611931	-0.970005402490986	0.000602301538646266	-0.00140625677160738
1.14	-1.14732780228913	1.10600770724792	781.686111971109	11.4659911911285	29.7382160059287	0.901808580179692	-0.96073366153561	0.000630498186198869	-0.00144820936912682
1.15	-1.13621972995268	1.13739977119298	782.139038730068	11.4904300490618	29.7387778953336	0.893698663631238	-0.953660395548481	0.000652905540698079	-0.00146673148656667
1.16	-1.15214765421805	1.17080912749438	782.395025014825	11.5073034515582	29.7427313497908	0.88880937156248	-0.950286457066508	0.000669424481878345	-0.00147137151414839
1.17	-1.18615991897656	1.19944305931391	782.363617459936	11.5149156017366	29.7384693897664	0.888193280523148	-0.951264010609671	0.000679556507164114	-0.00147259261474497
