Time [s]	GRFml [N]	GRFap [N]	GRFv [N]	Mml [N.m]	Map [N.m]	Mv [N.m]	Mfree [N.m]	COPml [m]	COPap [m]
0.01	5.45106929062322	-1.61566843845313	707.228212652823	-4.64087335587022	5.40849015913655	1.73661586268207	-1.76007886682199	-0.00672120388072739	0.00155512083800996
0.02	5.0302129579277	-1.58305016548583	709.213133989658	-4.58529439339051	5.65690260788727	1.7713289753857	-1.79139182798216	-0.00662205169203534	0.00188150863768705
0.03	4.64646659823642	-1.55905358241946	711.275464703563	-4.54099240078898	5.90464799282817	1.80634044971959	-1.82323375911711	-0.0065380659589942	0.0022052343685412
0.04	4.33241211957982	-1.5520080571271	713.477691559328	-4.5160660735887	6.14872196518789	1.84181697554689	-1.85596024370501	-0.00648008164430836	0.0025206261812275
0.05	4.10747507275406	-1.56720228624059	715.828063057909	-4.51390993306201	6.38686427777447	1.87752392528355	-1.88943792574719	-0.00645280337472898	0.0028238793940959
0.06	3.97509925549659	-1.60556483352077	718.272512459192	-4.53273728327403	6.61811712780413	1.91273429560169	-1.92294328022009	-0.00645420530297358	0.00311399043960447
0.07	3.92343704212356	-1.66301323553195	720.702467978072	-4.56659299550948	6.84303457475624	1.94625846347224	-1.95520907174861	-0.00647688358538956	0.00339299344585064
0.08	3.9289033618568	-1.73078054646277	722.974068706863	-4.60745368354685	7.06352640372777	1.97659619900003	-1.98461042002031	-0.00651083621018567	0.00366552885165627
0.09	3.96129842274626	-1.79681956076457	724.932414533673	-4.64768267117636	7.28244466243168	2.00219331992302	-2.00945869392388	-0.00654669794614449	0.00393797084180675
0.1	3.98909472797791	-1.84805804589435	726.435002257461	-4.68204640015788	7.50309625282642	2.02176015467328	-2.02834796234761	-0.00657836796796674	0.00421743785309986
0.11	3.98384094383891	-1.87298152715657	727.370521398585	-4.70870487694713	7.72885431968495	2.03458217621951	-2.04047820355122	-0.00660423849588487	0.00451096865071521
0.12	3.92320629806186	-1.863899806534	727.671606637417	-4.72896509029189	7.96295402057629	2.0407391300425	-2.04587259878569	-0.00662673927010671	0.00482499364631078
0.13	3.79269101057803	-1.81837261992125	727.32205877043	-4.74599345578241	8.2084372539149	2.0411609750865	-2.04542292564969	-0.006650467360103	0.00516504086582009
0.14	3.58628717137244	-1.73957362776861	726.35991722176	-4.76299192928555	8.46811059852337	2.03748855754352	-2.04073751921445	-0.00667959810031493	0.00553547326140896
0.15	3.30638508009003	-1.63571518950009	724.877510071261	-4.78147066943183	8.74434602386324	2.03176143044991	-2.03381871822997	-0.00671545652618755	0.00593902253203538
0.16	2.96310410694811	-1.51887983467417	723.018566996868	-4.8001788161551	9.03860458398336	2.0260042844095	-2.0266431064214	-0.00675503886457429	0.00637598410385715
0.17	2.57313093335844	-1.40361874736635	720.971300103887	-4.81502322789894	9.35068702422714	2.0218100166487	-2.02074312557989	-0.00679095885841563	0.0068431372240691
0.18	2.15814654546861	-1.30551079715864	718.955748817033	-4.81999231291682	9.67787065324732	2.02001565168635	-2.0168873071125	-0.00681285880267057	0.0073326800276084
0.19	1.74298757900043	-1.23965639031059	717.204153464255	-4.80880234898745	10.0142202876032	2.02054285425571	-2.01493285137591	-0.00680989799548659	0.00783162931988035
0.2	1.35372748249228	-1.21896688370161	715.934749533186	-4.77677903399937	10.3504049462821	2.02243899424754	-2.0138879083652	-0.00677362764034306	0.00832214746438825
0.21	1.01581056489567	-1.25220092956918	715.321744740407	-4.72242771444402	10.6742760603262	2.02411707772651	-2.01217993664256	-0.00670045668420272	0.00878308612422307
0.22	0.752244283764706	-1.34197120173039	715.466545425634	-4.64824052968572	10.972272435885	2.02375695743961	-2.0080853348455	-0.00659302772557491	0.00919270650520976
0.23	0.581749502470131	-1.48325415992407	716.376596708191	-4.56050562535097	11.2314634485475	2.01979588052638	-2.00023666736348	-0.0064601188615151	0.00953214373742217
0.24	0.516792576085508	-1.66308167191742	717.957763233412	-4.46815940217401	11.4418095954969	2.01140556053696	-1.98809249396873	-0.00631508218503196	0.00978886576793098
0.25	0.561608649161623	-1.86192650825761	720.023802522237	-4.38097942505307	11.5980960828936	1.99883442779874	-1.97224182878665	-0.00617321283046046	0.00995926203279351
0.26	0.710589623099906	-2.05680881856093	722.32265417476	-4.30758163925528	11.7010350829456	1.9835019395723	-1.95443402356617	-0.00604870810507441	0.0100496484373503
0.27	0.947595955996878	-2.22551597582867	724.575056585349	-4.25371730794007	11.7572327496779	1.96777835744124	-1.93728297844193	-0.00595195376984536	0.0100753620945355
0.28	1.24671989008894	-2.35082261132395	726.517722400905	-4.22126022545337	11.7780166250787	1.954465998575	-1.92368451411089	-0.00588775055994872	0.0100581231798804
0.29	1.57474063875575	-2.42347901189724	727.942041050893	-4.20807175952303	11.7774208061534	1.94609512995357	-1.91608191363641	-0.00585481535058752	0.010022299217865
0.3	1.895055973781	-2.44310465976929	728.720484112222	-4.20869555709478	11.7698341900572	1.94422396134887	-1.91578097189222	-0.00584654796069983	0.00999097280383615
0.31	2.17241850102724	-2.41685621689938	728.816212334551	-4.21563553984227	11.7678701266021	1.9489533864709	-1.92252158581308	-0.00585274915327794	0.00998270948707225
0.32	2.37752338081701	-2.35653357715209	728.275782663655	-4.22086235133149	11.7809061141643	1.95881727137307	-1.93444822137323	-0.00586178982552832	0.010009662441162
0.33	2.49049728319072	-2.27530209068197	727.208971683645	-4.21719317434727	11.8145136465273	1.97109991649818	-1.94850445370964	-0.00586270160972768	0.0100772294472799
0.34	2.50263233174731	-2.18522520029192	725.762355227537	-4.19927988970562	11.87072854824	1.98249994965465	-1.96114673674136	-0.00584676805393247	0.010185034593143
0.35	2.41619597923208	-2.09632632231831	724.093737326596	-4.16407839902886	11.9488866938176	1.98995065059845	-1.96917494595803	-0.00580838725765787	0.0103286790640128
0.36	2.24265991390967	-2.01715630862189	722.352863491093	-4.11081054833313	12.0466368015312	1.99135878994004	-1.97044532665318	-0.00574518368531018	0.0105015867037534
0.37	2.00004753699493	-1.95616540932297	720.670815552531	-4.04053526085095	12.1607713884364	1.98605326590752	-1.96427434734082	-0.00565751494060462	0.01069638544893
0.38	1.71017530200209	-1.92285223038619	719.157191479204	-3.95550229546077	12.2876716577993	1.97482938596454	-1.95144235370341	-0.00554761978410201	0.0109055634218929
0.39	1.39634487833556	-1.92780377289307	717.901739732721	-3.85847060867549	12.4233801703161	1.959600755786	-1.93382807584927	-0.00541867993546163	0.0111215041159211
0.4	1.08164490140103	-1.98126145621274	716.976279224671	-3.75214139275071	12.5635084446122	1.94278577677676	-1.91380858215709	-0.00527402755846429	0.0113362968199484
0.41	0.787642084908775	-2.09051131913855	716.433626700048	-3.63879542625318	12.7032719917629	1.92662381199108	-1.89361350824165	-0.00511664004222645	0.0115418159867129
0.42	0.533073676678279	-2.25693208437365	716.302403533856	-3.52015197183333	12.8378799240062	1.91261976874846	-1.87481565095139	-0.00494895087086999	0.0117304176867978
0.43	0.332281924346068	-2.47375018577947	716.579131741943	-3.39740271675958	12.9633121885334	1.90126013722718	-1.85808105548998	-0.00477290433468325	0.0118962644131609
0.44	0.19348312652679	-2.72539290535739	717.220998167159	-3.27133862305417	13.0772798139525	1.8920513124744	-1.84321394241659	-0.00459012468283393	0.0120369041466502
0.45	0.117338118493839	-2.98888021081714	718.143340667718	-3.14249013121784	13.1799970573536	1.88383346628785	-1.82944388234517	-0.00440207393181991	0.0121544751547921
0.46	0.0964624182311742	-3.23711505254115	719.225016276714	-3.01123712737557	13.2743894015353	1.87524926910616	-1.8158394715192	-0.00421013013604465	0.0122559194036147
0.47	0.116356150091601	-3.44339869893974	720.32260454824	-2.8778959066292	13.3655359906002	1.86521522037943	-1.80170953010903	-0.00401560094463882	0.0123518854531917
0.48	0.157792858329244	-3.5861547690735	721.291591180704	-2.74283118941922	13.4594304578745	1.85325905056115	-1.78687223902431	-0.00381975666277934	0.0124544735745629
0.49	0.200182725415332	-3.65277424544735	722.010215392175	-2.60665070414923	13.5614150301077	1.83964062359844	-1.77172539847388	-0.00362398838616007	0.0125744228507157
0.5	0.225068623585146	-3.64170542066039	722.400415824134	-2.47050859692699	13.674778535646	1.82524684081725	-1.75711908203276	-0.00343015379499989	0.0127185700732616
0.51	0.218888985854089	-3.56234891642185	722.440742623185	-2.33647982099816	13.799951421171	1.81131984873981	-1.7440937553703	-0.00324107616984315	0.0128883276014424
0.52	0.174449016770864	-3.43285935539853	722.168105417865	-2.20789590659076	13.9345096478286	1.79912155002237	-1.73358345199457	-0.00306104857104728	0.0130795732396695
0.53	0.0910228223348929	-3.27644920085035	721.668145735484	-2.08948852697243	14.0739122882267	1.78964377520173	-1.72618424215908	-0.0028961187110722	0.0132838709246991
0.54	-0.0265624175920617	-3.11709627346362	721.05691556212	-1.98720147235948	14.2126617806742	1.78344281044374	-1.72205446348283	-0.00275393815264935	0.0134905336165645
0.55	-0.169309683891376	-2.97559626906969	720.458525263815	-1.90761153768216	14.3454755040576	1.78062258626647	-1.72095873813403	-0.00264306614239918	0.0136888410248694
0.56	-0.325428179094063	-2.86668926716447	719.983959973889	-1.85701984562149	14.4681140442788	1.7809347854893	-1.72241435120768	-0.00257179042236821	0.0138697807229907
0.57	-0.481488139439424	-2.79762410861841	719.715313265855	-1.84038912319762	14.5776843650679	1.78392881985206	-1.725867366776	-0.00254669597961099	0.0140269385691206
0.58	-0.623419854022972	-2.76814850316383	719.697671592066	-1.86036129499511	14.6724473246036	1.78908302639132	-1.73082841721638	-0.00257130718581355	0.0141565060549037
0.59	-0.73757329591259	-2.77164940993471	719.938521159651	-1.91657018457541	14.7513289149239	1.79587779350835	-1.7369304607585	-0.00264511247623989	0.0142566696491946
0.6	-0.8120189563376	-2.79707113596882	720.412620801942	-2.00537874849769	14.8134106074361	1.80381421287075	-1.74391513808584	-0.0027631677531782	0.0143268066236324
0.61	-0.838094350481693	-2.83127304474528	721.069383573419	-2.1200589380234	14.8576441884663	1.8124148704057	-1.75158788535859	-0.00291631898918343	0.0143668997313747
0.62	-0.811993500792451	-2.86155910275359	721.840146083906	-2.25134055059397	14.8829256586242	1.82124923684234	-1.75978861472621	-0.00309195024816578	0.0143774272085672
0.63	-0.736062597077489	-2.87812330825551	722.644024656509	-2.38821317206166	14.8885182205083	1.83000246764491	-1.76840321115664	-0.00327509490522482	0.0143597550797777
0.64	-0.619451183479901	-2.87607928052206	723.392728737674	-2.51887554767298	14.8746851971074	1.83856680699154	-1.77740466852046	-0.00344975329261921	0.0143168390547554
0.65	-0.477856435611301	-2.8566415415869	723.995951005366	-2.63176778909047	14.8433145140849	1.84710127573747	-1.78688181215505	-0.00360031280014272	0.0142539011411425
0.66	-0.332235260355071	-2.82702209466668	724.369176827987	-2.71665949488729	14.7982997442993	1.85599732053699	-1.79700519764702	-0.00371302108267324	0.0141787151423626
0.67	-0.206499430460652	-2.7988023063855	724.444779432236	-2.76577048203321	14.7454824723352	1.86571316300787	-1.8078996854259	-0.00377747655317795	0.014101212588526
0.68	-0.124339714867876	-2.78494371876917	724.185439427708	-2.77485793078785	14.6920423290977	1.87649019226428	-1.81943407841753	-0.00378805270561622	0.0140322784590842
0.69	-0.105460865124459	-2.79609148212053	723.596991250148	-2.74412834381152	14.6453317919592	1.88802184175572	-1.83098377389494	-0.00374507920316203	0.0139818082392125
0.7	-0.161667496772636	-2.8371920365772	722.736597307736	-2.67876290695713	14.6112846969327	1.89918639165694	-1.84125443661614	-0.00365551170674605	0.0139563112161028
0.71	-0.293413115779025	-2.90549325054247	721.712290044548	-2.58882778412074	14.5926696326911	1.90796247887089	-1.84825983617447	-0.00353279690066854	0.0139565377921873
0.72	-0.487562959176438	-2.99063847458873	720.671540113923	-2.48840961437628	14.5875864629936	1.91161303769328	-1.84952029047452	-0.00339572482579464	0.0139757408082061
0.73	-0.717144636443164	-3.0769020173024	719.77922605328	-2.39396981194349	14.5886701686798	1.90715566763493	-1.84249371075471	-0.00326625825402393	0.013999198120517
0.74	-0.94368110048931	-3.14689138821218	719.188434131524	-2.32210909038754	14.5834157078374	1.89205149691813	-1.82518089457328	-0.00316658691149974	0.0140054701659043
0.75	-1.1222680659722	-3.18555565138772	719.009999851148	-2.2871116685301	14.5558347706101	1.86496397921977	-1.79677832535975	-0.00311588819979025	0.0139695180568448
0.76	-1.20890753478366	-3.18329091418243	719.287823658461	-2.29873449554236	14.489316598696	1.82638931499765	-1.75820673001086	-0.00312740279863921	0.0138673106425174
0.77	-1.16888755416454	-3.13733463965287	719.98629212908	-2.36068402443363	14.3701748108242	1.77896263201108	-1.71234234553922	-0.00320640451124832	0.0136810328970514
0.78	-0.984443610900756	-3.05130600179591	720.993629577748	-2.47008320707116	14.1910545728867	1.72730793562107	-1.6638318553325	-0.00334946118608059	0.0134036571405747
0.79	-0.659798041627284	-2.9333907002586	722.141244432167	-2.61801268468398	13.953282575048	1.67741511830227	-1.61847555571306	-0.0035450982720312	0.0130416196252846
0.8	-0.222096063390564	-2.79402899894106	723.235119172811	-2.7909744534642	13.6674364483284	1.63566249663676	-1.58228917119892	-0.00377567009358193	0.0126147250744893
0.81	0.282310746632497	-2.64393575584382	724.092205881879	-2.97293932359944	13.3518567583644	1.60771279778013	-1.56045955825541	-0.00402000209190512	0.0121531001458351
0.82	0.795602465923446	-2.4929344283474	724.573601356211	-3.14755007803337	13.0293882501967	1.59755167305718	-1.55645067912049	-0.00425625283569009	0.0116918202970399
0.83	1.25857442931813	-2.34962557339824	724.607362803111	-3.30007729013136	12.7231294206885	1.60689151092895	-1.57147270202413	-0.00446447817183471	0.0112644752716493
0.84	1.62082854785911	-2.22155470267564	724.196799306464	-3.41884569269967	12.4522241506959	1.63504581670778	-1.60441289540544	-0.00462853600944768	0.0108972003528635
0.85	1.84891967501011	-2.11542728494693	723.413925243957	-3.49602065416077	12.2286677758231	1.67923722147545	-1.65218715909676	-0.0047371897344094	0.0106045063551198
0.86	1.93095655663493	-2.0370365712085	722.381254719266	-3.52781183736663	12.0557615698396	1.73519082290058	-1.71036094820479	-0.00478448040755308	0.0103876801564325
0.87	1.87710618528429	-1.99081072990409	721.247263002609	-3.51426732693333	11.9283683559665	1.79782256923035	-1.77384729850743	-0.00476958278386863	0.0102358111447438
0.88	1.71637181946499	-1.97910835632364	720.161237933645	-3.45886929290664	11.8346667357508	1.86186467276434	-1.83752343498947	-0.00469640406954042	0.0101288691077678
0.89	1.49066784423117	-2.00150398478923	719.252136741939	-3.3680999412446	11.7588068646945	1.92234914533893	-1.89668884772187	-0.00457312614738636	0.0100418918015119
0.9	1.24751588411254	-2.05429871142709	718.614141245204	-3.2510471424249	11.6837919376783	1.97495340758946	-1.94737311155029	-0.00441176234413898	0.00994929008445894
0.91	1.03269128280295	-2.13041671855309	718.299644998129	-3.11900423772451	11.5940178421714	2.01626156145075	-1.98655317968193	-0.00422765306861328	0.00982848254628765
0.92	0.883968699640266	-2.21976658954543	718.318951653169	-2.98493591995425	11.4771171069855	2.0439959174422	-2.01234126336282	-0.00403872340173328	0.00966240246143996
0.93	0.826834056668529	-2.31008464513302	718.645172856666	-2.86266926910114	11.3249824458677	2.05723488345244	-2.02416478451253	-0.00386431881286542	0.00944075087392443
0.94	0.872670670011293	-2.38822407679883	719.222533054189	-2.76573755146089	11.1340268433816	2.05658091433743	-2.02290535628998	-0.00372353669945469	0.00916012047976444
0.95	1.01948385495987	-2.44178005161412	719.976267959679	-2.70593307078749	10.9048472841886	2.04420458854091	-2.01092384655202	-0.00363315133700559	0.0088232622619685
0.96	1.25472802283947	-2.46083578225426	720.8224036925	-2.69176706031731	10.6415043690955	2.02368787443577	-1.99189392967276	-0.00360542304024736	0.00843782540384419
0.97	1.55934576735063	-2.43950346206526	721.675960767757	-2.72713460889999	10.3506292728865	1.99962566536201	-1.97040192697003	-0.00364621404179633	0.00801489681202444
0.98	1.9118774197713	-2.37687510570573	722.456654219683	-2.81050010649222	10.0405394545525	1.97700837828974	-1.95133477230313	-0.00375384887756436	0.00756761827902597
0.99	2.29158614186708	-2.27705424960337	723.091978708311	-2.93484192483243	9.72049388589617	1.96047782315058	-1.93914808880689	-0.00391904189088566	0.00711007538693892
1	2.67998631050786	-2.14813816038956	723.518497223594	-3.08844453641629	9.40015140961659	1.95359897901771	-1.93715720648051	-0.00412599979197648	0.00665653952206446
1.01	3.06082052746808	-2.00032549869038	723.682850342787	-3.25644563216232	9.08921938124906	1.95830284513188	-1.9470059816089	-0.00435455564719245	0.0062210189263715
1.02	3.41914255425112	-1.84363535671322	723.544113479002	-3.42288478436102	8.79721002361621	1.97462363419411	-1.96843485328562	-0.00458297220520665	0.00581696690706529
1.03	3.74046451184299	-1.68591065676482	723.07847270189	-3.57289763776821	8.53318247130082	2.00078583061511	-1.99939977500141	-0.00479092013338278	0.00545694374793859
1.04	4.01077954954485	-1.53174299111341	722.285899560467	-3.69467358752631	8.30536058155425	2.03361401189864	-2.03650939006847	-0.00496211287757509	0.00515206340354629
1.05	4.21774575259114	-1.38268085616017	721.197041786506	-3.78084332926048	8.12058507034149	2.06916613442848	-2.07567537121978	-0.00508615739981333	0.00491117721703538
1.06	4.35266638636528	-1.23865186534425	719.877551432341	-3.82907069697864	7.983662289924	2.10344897713821	-2.11283056746544	-0.00515933407340441	0.00473991458891243
1.07	4.41243918051212	-1.10009433667762	718.427098154382	-3.84177053719198	7.89676775769351	2.13307016982931	-2.14456889949987	-0.00518421864693375	0.00463984376803361
1.08	4.40058938483655	-0.970015981265425	716.971540155317	-3.82503762422246	7.85910311109341	2.15570971586702	-2.16859384170474	-0.00516827240765938	0.00460806320420565
1.09	4.32686086995098	-0.855184836114687	715.648795664064	-3.78702299558579	7.866962983176	2.17034256952678	-2.18391465830652	-0.0051217188577406	0.00463744950240991
1.1	4.20543028556358	-0.765923456737375	714.591083634613	-3.73610196813465	7.91425173403146	2.17719869680704	-2.19078578350002	-0.00505515878948271	0.00471759408480615
1.11	4.05235127953421	-0.71443510626409	713.907491880832	-3.6792139090622	7.99334256070329	2.17749689274529	-2.19043276536114	-0.00497741701189014	0.00483623159265911
1.12	3.88309626987503	-0.712083377698806	713.670715164142	-3.62070321789773	8.09605458614139	2.17302616394904	-2.18464117511652	-0.00489404629439727	0.00498079479777025
1.13	3.71095403472727	-0.76640365794037	713.91032722477	-3.56186258902544	8.21449011686991	2.16567000645053	-2.17530073636434	-0.00480674801163017	0.00513969928391533
1.14	3.54663354691194	-0.878725278948528	714.612753903756	-3.50120530979833	8.34154491023816	2.15697342475575	-2.16399678902025	-0.0047137435189194	0.0053030877099543
1.15	3.39889488198072	-1.04310141203235	715.726138312656	-3.43531856549478	8.47105489969367	2.14784077133903	-2.1517274800818	-0.00461090208601744	0.00546300145130063
1.16	3.27558166797157	-1.24685537705064	717.16732866913	-3.3600194448019	8.59771079608027	2.13842592345972	-2.13879983884542	-0.0044932579267396	0.00561319713216901
1.17	3.18423358701018	-1.47259837532462	718.828581978311	-3.27148206408071	8.7169807880554	2.12823700382482	-2.12492260060533	-0.00435647447146992	0.00574897406594332
1.18	3.13159605662304	-1.70120255723232	720.582981444215	-3.16704105415906	8.82527486780483	2.11642970712141	-2.10947083510807	-0.00419785925250449	0.00586734975577247
1.19	3.12179171238157	-1.9150245107424	722.289305471003	-3.04549460633864	8.92045424492578	2.10221426937635	-2.09185348906951	-0.0040166896089483	0.00596771299243598
