Time [s]	GRFml [N]	GRFap [N]	GRFv [N]	Mml [N.m]	Map [N.m]	Mv [N.m]	Mfree [N.m]	COPml [m]	COPap [m]
0.01	1.64792434469175	-2.37499754297095	652.095850008019	3.99357001639547	18.7883523174689	1.29440132698735	-1.21701762030508	0.00821281921319417	-0.00417847194015414
0.02	-0.624024976891432	-3.30375276400571	649.758133821386	4.2824565619043	19.8624654257426	1.31586047380892	-1.21713194358717	0.00868118682906227	-0.00240538038102711
0.03	-2.7291828252535	-4.12511385469797	647.758759646301	4.53686051104714	20.9365242601297	1.32505637046893	-1.20726464451456	0.00909288073844383	-0.000649977726023487
0.04	-4.49434955867795	-4.73948336780944	646.38357402132	4.72812324953791	22.0003120769499	1.3128069065063	-1.18048549374215	0.00940065968897819	0.00105707137058214
0.05	-5.77481860692271	-5.07487835549104	645.842942290408	4.83647289345479	23.0376590439019	1.27506966841595	-1.13448922650978	0.00957186339165406	0.00267898118213472
0.06	-6.47850068414883	-5.09900277443964	646.248528096925	4.85422039972763	24.0291377089447	1.21382783596371	-1.07219931482311	0.00959362820566734	0.00417809492882715
0.07	-6.5898562858884	-4.82656878039257	647.601168249267	4.78704753618863	24.9569321448786	1.13642919827233	-1.00087967589341	0.00947500993144756	0.00552432346544679
0.08	-6.18459335072103	-4.31926487480505	649.792320168387	4.6526430212143	25.8096915022528	1.05359704602749	-0.930042877856432	0.00924483599012127	0.00670319257676738
0.09	-5.42697653698206	-3.67686914962316	652.619017361139	4.476527763535	26.5852867293802	0.976645445675496	-0.868752538803067	0.00894504200147583	0.00772012185694909
0.1	-4.5464786330557	-3.02007988721165	655.809236864204	4.28577210746765	27.2904183528063	0.914595800287996	-0.823047593499568	0.00862061385143831	0.00859926304781561
0.11	-3.79708788435254	-2.46800084431256	659.052613722455	4.10212907831808	27.9373556064052	0.871909392200842	-0.794177449737024	0.00830855038629219	0.00937739651840286
0.12	-3.40813168209569	-2.11503629089462	662.031458173745	3.93653553126231	28.539119127821	0.847434381231605	-0.778159343712004	0.00802893116732006	0.0100950273039264
0.13	-3.53805081910992	-2.01253672351437	664.448846131323	3.78672978827183	29.1048030325587	0.834919049323762	-0.766877305653754	0.00778085105037152	0.0107873940974066
0.14	-4.24165217680392	-2.15960757026616	666.052990553311	3.63888991680616	29.636453348657	0.825076478609964	-0.750564769981645	0.00754466107192209	0.0114776331774295
0.15	-5.45778368518315	-2.50527298632768	666.658687852187	3.47295489506683	30.1282253638872	0.808749870029826	-0.721108110064472	0.00729001859777745	0.0121732736412253
0.16	-7.01959144479169	-2.9613255764549	666.166423146992	3.27006870119706	30.5677794359055	0.780329991469542	-0.675277000785466	0.00698734825675862	0.0128661556327483
0.17	-8.68495279363575	-3.42254065150502	664.577826838678	3.01982046913705	30.9393256624768	0.740359800003735	-0.616853132044229	0.00661912065552039	0.0135351739810555
0.18	-10.1812108320927	-3.78925163857413	662.003757674051	2.72493057638774	31.2275103242296	0.696348220089929	-0.556788563184968	0.00618730902203313	0.0141510571595828
0.19	-11.2562336800632	-3.98700284413964	658.659971593184	2.40178483432662	31.4213982362166	0.66124320762713	-0.510995187492058	0.00571453080143669	0.0146825109326801
0.2	-11.7269786232618	-3.97910396124253	654.846396660287	2.07651046870662	31.5179918180724	0.649700343477739	-0.496053260773451	0.0052383582157286	0.015103178808351
0.21	-11.5169966686575	-3.76998995765465	650.909709319428	1.77769960863401	31.5248867823407	0.673034261297435	-0.523839506697712	0.00480044847670524	0.0153987647061245
0.22	-10.6756462360013	-3.39968360579163	647.194163739878	1.52796452732713	31.4617225209703	0.734311122459724	-0.596583110626039	0.00443380699861817	0.0155733066267031
0.23	-9.37428935209513	-2.93169491267164	643.990498713148	1.33691584008379	31.3600746213572	0.825216413205672	-0.703966000143039	0.0041521374820005	0.0156531891297579
0.24	-7.87843285020619	-2.43788862562447	641.495108028544	1.19777051266123	31.2614636310617	0.926005818598935	-0.823502554996639	0.00394466373427882	0.0156873627839872
0.25	-6.49935275802498	-1.98402466997851	639.790122263279	1.08874363160432	31.2133311664008	1.00906092848855	-0.92461756842329	0.00377821100042974	0.0157426746533462
0.26	-5.53346121846824	-1.61894383440767	638.849635724705	0.97897195271674	31.263210506832	1.04551832346055	-0.975784586131781	0.00360618680359259	0.0158942674429414
0.27	-5.20141258444159	-1.36905875814182	638.569607411917	0.83736880345586	31.4518348625053	1.01341562152754	-0.95308035226219	0.00338203015813177	0.0162124478225318
0.28	-5.60044718632719	-1.23832548514	638.81163045962	0.641909787652965	31.8064197730514	0.905121527318125	-0.847866570586363	0.00307330662053762	0.0167487840193179
0.29	-6.68179435917588	-1.21258623804292	639.446540171142	0.386661674265186	32.3356160394705	0.731740392407278	-0.671269924110864	0.0026723291860159	0.0175249196202671
0.3	-8.25993208195271	-1.26635469199138	640.384408772161	0.0844549791197861	33.0274874813239	0.522801964636442	-0.453784203374891	0.00220008504705516	0.018527289142432
0.31	-10.0530363178996	-1.36988777046922	641.582746384581	-0.235701101280101	33.8512824862447	0.32075313114732	-0.239548161702016	0.00170209576819669	0.0197095444143817
0.32	-11.7459615384127	-1.49473853706979	643.032773571952	-0.535903412434307	34.7628651614761	0.171249181498222	-0.0763449854910326	0.0012370943233081	0.021002411823535
0.33	-13.0609620726495	-1.61677073585987	644.731492326954	-0.779485050802719	35.7127098099523	0.111563768008578	-0.00369040624468944	0.000861405473950305	0.0223285554801522
0.34	-13.8191034772159	-1.71659651620234	646.652144554819	-0.941366368826184	36.6546399989436	0.160176862727544	-0.0421073575754491	0.000613098434157355	0.0236185243766406
0.35	-13.9777414280889	-1.77828884105194	648.725891650353	-1.01594571487518	37.5532371636172	0.310491611866882	-0.186564620049818	0.000500046767319851	0.0248234993347555
0.36	-13.6358010314691	-1.78775809253787	650.843250921362	-1.0204790274018	38.388130159783	0.530661221266532	-0.40607867721848	0.000495024856349113	0.0259214308627326
0.37	-13.0068107112231	-1.73220488361425	652.876574616269	-0.993008492064083	39.1541208696166	0.769929041187505	-0.649899171550353	0.00053922068018819	0.0269149852135925
0.38	-12.3672065658897	-1.60155359702684	654.7170991251	-0.985195819976984	39.8571008675496	0.970139194013452	-0.858958281488393	0.000553523761636088	0.0278219481335142
0.39	-11.9923289473021	-1.39188198474329	656.314305287097	-1.05159631718976	40.5067268862238	1.07965120464693	-0.97984650189352	0.000455129953527478	0.0286607626531838
0.4	-12.0939794065672	-1.10987061671456	657.703330310489	-1.23773218837814	41.1076255062378	1.06618442999984	-0.977866680058627	0.000175772593472567	0.0294351902014324
0.41	-12.7718159562179	-0.77653871116587	659.008659156061	-1.56962446899779	41.6513229544456	0.925319532201608	-0.845900153004555	-0.000322512889233684	0.0301223806453839
0.42	-13.987360752092	-0.428303299016567	660.418717404927	-2.04715411595092	42.1110471131881	0.682443295900256	-0.606841374296265	-0.00103766984918252	0.0306678594033384
0.43	-15.5650872021637	-0.113847059347702	662.134541602302	-2.64278926599336	42.4410094449911	0.387564888688409	-0.308954548563084	-0.00192619032161756	0.0309892739131425
0.44	-17.2205858076397	0.113650807747787	664.303929426637	-3.30601211191779	42.5808231177397	0.104229884228423	-0.0152675407383036	-0.00291035195182754	0.0309885803815156
0.45	-18.611388941184	0.207942513583856	666.957853453615	-3.97249344068698	42.4645319411201	-0.104758778636099	0.210409802423088	-0.00389255679172351	0.0305702209601765
0.46	-19.4018444596594	0.142448093516219	669.966732483392	-4.57602952894485	42.0325797435867	-0.191332447380459	0.31745996243992	-0.00477368855510052	0.0296612813986467
0.47	-19.3300297619267	-0.0789399776257153	673.03007738999	-5.06074675964343	41.2442366235291	-0.132530171865659	0.279134185756023	-0.00547170020957854	0.0282290383628447
0.48	-18.2630997202021	-0.416303059352056	675.705276461766	-5.3912029840403	40.087754072158	0.065054008239995	0.0975894173991389	-0.00593688286904048	0.026291855858363
0.49	-16.2287099177662	-0.795850648139812	677.472124696747	-5.5586753971602	38.5859399572015	0.367464642012169	-0.197531595275325	-0.0061612747832368	0.0239209148065103
0.5	-13.4146717407931	-1.1205543208999	677.821604649007	-5.58286453004017	36.795834901504	0.721244974886888	-0.556149616611108	-0.00618104747188564	0.0212323410625653
0.51	-10.1360676011107	-1.28787906816297	676.352244617472	-5.50915498444927	34.8024754389089	1.06469867697857	-0.918320247062705	-0.00607201171136251	0.0183713893741521
0.52	-6.77685150377598	-1.21113821978309	672.855895489529	-5.40222704319703	32.7080022824259	1.33974194504504	-1.22565250028315	-0.00593932051285428	0.0154919376208882
0.53	-3.71913826231878	-0.839562622236478	667.376754427737	-5.3371414305146	30.6182939712004	1.50180925545387	-1.43113089194569	-0.00590295730662571	0.0127353188823693
0.54	-1.27601336578372	-0.171900186218016	660.232106004692	-5.38910719763371	28.6296763988972	1.5261634011599	-1.50572818987951	-0.00608083959420924	0.0102123817105446
0.55	0.357966588150146	0.740499528350445	651.989603462667	-5.62313751163399	26.8180410747247	1.41007201315047	-1.44124440497685	-0.00657154515727987	0.00799175363846821
0.56	1.12966595356052	1.80273970525222	643.403112825799	-6.08479752143069	25.2320137330702	1.17125654421867	-1.24968585485579	-0.0074388613841484	0.00609586215146934
0.57	1.1217894753732	2.89603925287823	635.316312583041	-6.79323736846659	23.8908599460921	0.843563129481899	-0.95998038967824	-0.00870045643940864	0.00450466796362731
0.58	0.523649001911969	3.90345615739647	628.549277132265	-7.73757793251328	22.7868353064771	0.470941377556728	-0.612917141926388	-0.0103227424962764	0.00316560745380901
0.59	-0.412381605645469	4.73519168694945	623.786844025748	-8.87737222885177	21.8908987059588	0.100709959101779	-0.25508102833327	-0.0122232650090791	0.00200720081528744
0.6	-1.41794733473441	5.34685928168037	621.487503137943	-10.1472839554433	21.1602575116888	-0.22306449973135	0.0675636834732119	-0.0142807278456697	0.000953356483699486
0.61	-2.25008262504018	5.74593630163912	621.827455517073	-11.4654072126173	20.5461610926616	-0.46533658576098	0.31578776030224	-0.0163513071502036	-6.43404858570173e-05
0.62	-2.72111661713156	5.98494063048082	624.687196575509	-12.7439779129059	20.0006601678454	-0.604308159682767	0.462181173371905	-0.0182886115219848	-0.00109822775715523
0.63	-2.71534103016631	6.14366949164973	629.679430393801	-13.900780084556	19.4815714442545	-0.63353495644157	0.494464352200673	-0.019963883976831	-0.00218076138136447
0.64	-2.19376795003674	6.3058930991206	636.209703758256	-14.8694445142876	18.9554524137962	-0.561611514326334	0.416458623681833	-0.0212830216794166	-0.00332487759594796
0.65	-1.18974671513257	6.53723975487956	643.556731014464	-15.6070895305333	18.3988392529059	-0.409561737232542	0.246540344817306	-0.0221977010468266	-0.00452728391853252
0.66	0.201931921454057	6.87025904314455	650.958611550357	-16.0982877638519	17.7982411000182	-0.206533760886196	0.0139162798803375	-0.0227091293585844	-0.005773127137986
0.67	1.84076386236238	7.30013398722234	657.69334386788	-16.3550194922522	17.1494148846245	0.0152566088768137	-0.246482058431948	-0.0228643706812203	-0.00704063394377236
0.68	3.5601615282888	7.79112860028452	663.145720963307	-16.4129341924573	16.4563308466975	0.225304386319174	-0.49944312654188	-0.0227464672374781	-0.00830476766651267
0.69	5.18993419927558	8.29073037136799	666.856334767802	-16.3247548499614	15.7300652057357	0.398494198856497	-0.714265419616106	-0.0224604328823058	-0.00953948921337444
0.7	6.57957990645099	8.7465328995808	668.551118849051	-16.1519538458355	14.9876902652912	0.517272819120609	-0.868200480306405	-0.022117520805825	-0.0107186953117924
0.71	7.61912887221041	9.12067610970109	668.151518269398	-15.9559071156411	14.251109563916	0.572366315004871	-0.948279795393248	-0.0218200177103604	-0.0118162524387245
0.72	8.25369058738063	9.39800000991959	665.766448199836	-15.7896508812524	13.5457214408477	0.562422447500377	-0.951641236681629	-0.0216483651482883	-0.0128057255380662
0.73	8.48849722052899	9.5863675185444	661.668236434545	-15.6911934847678	12.898797202984	0.493058136973097	-0.884695068052652	-0.0216518583531434	-0.0136604121560147
0.74	8.3831014310443	9.71004887743783	656.255983327651	-15.6791224910156	12.3375346987159	0.375664856611336	-0.761497697524566	-0.0218436691665697	-0.0143541362458378
0.75	8.03588726623691	9.79889725071137	650.011010136072	-15.7510054106527	11.8868838817728	0.226075109137464	-0.601589709010643	-0.0222005269775011	-0.0148629536179231
0.76	7.56232123013108	9.87685388995537	643.449791482382	-15.8847948708839	11.5674005717452	0.0629718050364215	-0.427417055660693	-0.0226670260680422	-0.0151675373962532
0.77	7.07166701958379	9.95305470561486	637.079502786523	-16.0430985411812	11.3935081333061	-0.0941426916191944	-0.261402144527983	-0.0231641304890741	-0.015255655502659
0.78	6.64688872811423	10.0177313765201	631.359970254229	-16.1797693919153	11.3725724210171	-0.227463427348973	-0.122817903739339	-0.0236009681500492	-0.0151239487641769
0.79	6.33132694399676	10.0436296408784	626.673845800859	-16.2478625445135	11.5050852919836	-0.323645756967622	-0.024811142367967	-0.0238884677500887	-0.0147782675977712
0.8	6.12393917865393	9.99222674089068	623.305081428855	-16.2076775667754	11.7860098514388	-0.376271816187715	0.0278795420573976	-0.0239529037334296	-0.0142321620411094
0.81	5.98304274780886	9.82293876266688	621.42503642175	-16.033461156221	12.2070149016069	-0.387307719406141	0.0398843180469973	-0.023747141387521	-0.0135036896776514
0.82	5.83706376054346	9.50294777261833	621.086079379401	-15.7174689017595	12.7590030698297	-0.366906506603948	0.0243381076064104	-0.0232574842076377	-0.0126113609988801
0.83	5.60000842931991	9.01529929534465	622.223843022031	-15.2705102242612	13.4341253059518	-0.331239435281386	3.30553182858172e-05	-0.0225046220753679	-0.0115705621787508
0.84	5.1891737848179	8.36346609586673	624.670252272989	-14.7187878648791	14.226478706383	-0.298553807130975	-0.013076075738777	-0.0215382435036915	-0.0103919439133361
0.85	4.54273062989684	7.57149697366795	628.178915275284	-14.0976708677135	15.1309683641767	-0.284216750245188	0.000837920243617414	-0.0204262382014527	-0.00908287429507931
0.86	3.6349208225373	6.67994898051909	632.461891041648	-13.4438169500974	16.1403577429488	-0.295939634779859	0.0486188309259524	-0.0192407659349689	-0.00765212149693101
0.87	2.48655053611917	5.73878045452208	637.232747189553	-12.7875630779991	17.2412086781546	-0.330533550113291	0.125038863938248	-0.018044412209915	-0.00611668097942242
0.88	1.16836894757079	4.79902429411787	642.246779043112	-12.1475384560496	18.4100013638221	-0.373330623347283	0.212558956921262	-0.0168798308561613	-0.00450851422194276
0.89	-0.204786806005768	3.90521723258652	647.327358730349	-11.5289348345386	19.6109791688498	-0.400821791133037	0.284415652761002	-0.015765501182206	-0.0028784136760599
0.9	-1.49005584032353	3.09021474432688	652.369270042726	-10.9258761506051	20.7970086846936	-0.386222207127311	0.310669431452581	-0.0146986052297138	-0.00129461248763352
0.91	-2.54162449384136	2.37328942829311	657.315870616448	-10.3271230568628	21.9139753902615	-0.306793072925766	0.265971393256523	-0.0136639774562896	0.000164843871367781
0.92	-3.24076491251519	1.76150336653297	662.11552851556	-9.72330342055523	22.9081491157145	-0.151088650847882	0.137153286600488	-0.0126462285137641	0.00142492008237943
0.93	-3.52424697447131	1.25350228977567	666.671057195135	-9.11334200623825	23.7349076320312	0.0759003650487354	-0.0714394410371981	-0.0116411324107585	0.00242859160144654
0.94	-3.40343560105514	0.844309949146052	670.800462750326	-8.50798211285885	24.3665873826922	0.351346522340705	-0.336542239454171	-0.0106625846180716	0.0031498441263787
0.95	-2.96762558012146	0.529537329494648	674.225868785157	-7.929209199557	24.7972970302801	0.637648928952157	-0.619214799835167	-0.00974286376573785	0.00360065363843731
0.96	-2.3688024624742	0.307696064845729	676.59980279307	-7.40570795078904	25.0432999055775	0.889478894077691	-0.872214273277979	-0.00892610336532185	0.00382945819858271
0.97	-1.7901246301755	0.179945857580761	677.566379891482	-6.96576220380624	25.1388042206495	1.06320589710529	-1.04982355270341	-0.00825706647527125	0.00391105900078476
0.98	-1.40535408569577	0.147443308669416	676.843269593037	-6.62980519307415	25.1282839192397	1.12641743859262	-1.11775594612837	-0.00776877317368818	0.00393039593425659
0.99	-1.3394844248179	0.207260423042935	674.302793889002	-6.40488313871013	25.0573649618331	1.0652110266792	-1.06072818242678	-0.00747278529299955	0.00396438755924899
1	-1.64079111629194	0.348362401751441	670.029701232853	-6.28261382493809	24.9645734619074	0.88754378171003	-0.885932526451894	-0.00735496891883214	0.00406645350686902
1.01	-2.27139262512226	0.549200610776017	664.339221632425	-6.24106615910735	24.8758136793836	0.6219615807051	-0.621722727682928	-0.00737772813422755	0.00425737833296869
1.02	-3.11818936936627	0.778048829985977	657.749639533845	-6.2497704695157	24.8025218311544	0.312166961207998	-0.312013145757825	-0.00748769534736915	0.00452423682289871
1.03	-4.02047572307717	0.996413992065486	650.915149336652	-6.27620129561316	24.7433680451993	0.00880309349201319	-0.00783983021879394	-0.00762635021627978	0.00482687948997751
1.04	-4.80639263512407	1.16493893933141	644.533621992895	-6.29181432953633	24.6885044723742	-0.239681160148442	0.241974032615003	-0.00774047165587377	0.00510968275714774
1.05	-5.32890621533282	1.25047183536951	639.247938078682	-6.27609749555303	24.6249158090884	-0.395220754094262	0.399126139367832	-0.00778979338433561	0.00531536746587152
1.06	-5.49335683569633	1.23262064141991	635.558513801243	-6.21792243297891	24.5414674265284	-0.435922275333985	0.441638965654937	-0.00775046085589515	0.00539777429563748
1.07	-5.27200460638832	1.10821421475744	633.760008763431	-6.11443183586197	24.4326422598205	-0.358642270078428	0.366370193149901	-0.00761437564289291	0.00533130510100893
1.08	-4.70496133205195	0.892578464655561	633.909177695407	-5.96843653166393	24.3004939243183	-0.178248633629445	0.188169977557129	-0.00738573170583567	0.00511586250290891
1.09	-3.89001802116754	0.617238640979389	635.825369758586	-5.78559800928872	24.1548136690321	0.0759462065767512	-0.0637690029613783	-0.00707662323647507	0.00477713673065133
1.1	-2.96531287389579	0.324396776526435	639.121275034633	-5.57248607661697	24.0117959156491	0.365692626636812	-0.351436459299387	-0.00670343112560357	0.00436276754659115
1.11	-2.08855570559703	0.0591725251313647	643.259069179158	-5.33604958893958	23.8915887118152	0.65018754021432	-0.634325196152776	-0.00628494238263533	0.00393524201107898
1.12	-1.41535807897704	-0.13893925729882	647.625358425078	-5.08435556468106	23.8151112605649	0.892289515629554	-0.875523316359188	-0.00584217297229217	0.00356252373559868
1.13	-1.07809432572293	-0.243695408333099	651.616545739262	-4.82789352658087	23.8005092186577	1.06368096912738	-1.04674370518148	-0.00539903649912621	0.00330752202296741
1.14	-1.16635537096397	-0.247144750013082	654.724268092591	-4.58049403401751	23.8596571280615	1.14833874439563	-1.13171424117835	-0.00498261529025157	0.00321768747367124
1.15	-1.71058566416751	-0.160781346719887	656.608970930412	-4.35903540319736	23.9951952791707	1.14396056832068	-1.1276270525049	-0.00462194526227544	0.00331621470620103
1.16	-2.6714472732117	-0.0122679625095093	657.149518865354	-4.18154124098088	24.1986395456744	1.06129271160358	-1.044609298236	-0.0043448203209141	0.00359639010946211
1.17	-3.93804412007854	0.161729590206894	656.458924217711	-4.06384150602342	24.4500485020017	0.921593368155856	-0.903419979835802	-0.00417291486968574	0.00402037886746581
1.18	-5.33765524399171	0.324880029514059	654.861100796232	-4.01549268770502	24.7195287043496	0.752724023050485	-0.731790118042024	-0.00411623565737829	0.00452312578863279
