Time [s]	GRFml [N]	GRFap [N]	GRFv [N]	Mml [N.m]	Map [N.m]	Mv [N.m]	Mfree [N.m]	COPml [m]	COPap [m]
0.01	-1.88101250615549	1.50687081203832	584.926715164018	0.0887109764252077	-3.54587143841986	0.850643373625033	-0.841859622051635	-0.00511171173571334	0.0106937948663521
0.02	-1.92563163368704	1.49935997797467	581.843370937904	0.139909569045415	-3.51328324324265	0.829162448964319	-0.820765889566725	-0.00502283122201186	0.0107180278982505
0.03	-1.94039400427673	1.48310161569517	578.912257920441	0.201763910071684	-3.48532054240828	0.809273544871383	-0.801270906018589	-0.00491495851462842	0.0107359497835633
0.04	-1.89770616992516	1.45465607849878	576.252502745294	0.282340304683179	-3.46657438209895	0.792453630571003	-0.784817365944005	-0.00477356818857422	0.0107410436512502
0.05	-1.78611693410729	1.41450473908398	573.958585892763	0.388215827332483	-3.45687095106811	0.780193777260494	-0.77288005012313	-0.00458689147214719	0.0107348332918035
0.06	-1.61539505884678	1.36596855303316	572.09322365439	0.523884075618767	-3.45034144896378	0.773897141647421	-0.766885038246764	-0.00434700487640416	0.0107284056376724
0.07	-1.41662962406676	1.31267283199336	570.685315367793	0.691057058593764	-3.43628232792363	0.774661891512761	-0.768008129239572	-0.00405107234101776	0.0107408467097665
0.08	-1.23686100290107	1.2557361784088	569.734699973929	0.88810954759896	-3.40150799222603	0.783013297262252	-0.776908319035007	-0.00370231806208454	0.0107951312368013
0.09	-1.12904818117498	1.19206432107441	569.222936465385	1.10994475008448	-3.33351198875964	0.798666780751416	-0.793472012284989	-0.00331024849917105	0.0109126633768732
0.1	-1.13951379324353	1.11468955110204	569.126674092645	1.34845745515772	-3.22359439791414	0.820391047258756	-0.816637171910944	-0.0028898146499744	0.011107923551707
0.11	-1.29593750539856	1.01522505412181	569.428736848235	1.59359159572103	-3.06918611151213	0.846014862586557	-0.844349103304156	-0.0024595115168885	0.011384537265931
0.12	-1.59910272701991	0.887593401589726	570.12245616506	1.83481545034147	-2.87484764003372	0.872596739514862	-0.873681896097376	-0.00203871253524268	0.0117336491370666
0.13	-2.02079939612304	0.731628446306017	571.20689719801	2.06273024735999	-2.65175651711941	0.896756805198748	-0.901141650302139	-0.00164472947961958	0.0121349047787333
0.14	-2.50873060222632	0.555156347044669	572.673702579376	2.27050477638421	-2.41584077924611	0.915148283522392	-0.923141825542158	-0.00129014134754013	0.0125597545984142
0.15	-2.99740622687622	0.373700056838618	574.489333490995	2.45487184029468	-2.18500104619397	0.925015875290103	-0.936601686408023	-0.000980876822047061	0.0129763075257061
0.16	-3.42237287187065	0.207775784999961	576.578580864261	2.61650181059114	-1.97604418533543	0.9247518101931	-0.939570712605654	-0.000715411191591797	0.0133546577528549
0.17	-3.73418816641465	0.0785286959603747	578.815673507906	2.75966422096661	-1.80199795991056	0.914330216569232	-0.93174169897779	-0.00048527868520476	0.013671533827356
0.18	-3.90855892896577	0.00292039480053359	581.027856205554	2.89119771547015	-1.6703776366772	0.895494760704892	-0.914704761310921	-0.000276904659071153	0.0139132943198273
0.19	-3.95003366503584	-0.010276522435045	583.013180397066	3.01893547596234	-1.58274713139333	0.871606761598514	-0.891829098922723	-7.45209022020576e-05	0.0140766903360302
0.2	-3.88833453729766	0.0372587861652498	584.570188859207	3.14986768328042	-1.53560473130892	0.847131580323896	-0.867739164355838	0.000136338398740055	0.0141673518074905
0.21	-3.76840409305182	0.13329656014343	585.533318958014	3.28842962833316	-1.5222990942151	0.826834435689411	-0.847458563303231	0.000365484202558886	0.0141965071532439
0.22	-3.63699377178576	0.257019442672129	585.805425165544	3.43533243660731	-1.53542768594985	0.814845458254335	-0.835396841379551	0.000615665486129013	0.0141768744933787
0.23	-3.52961992863202	0.382547170600267	585.378747936998	3.58726296228041	-1.56905677184159	0.813807672228936	-0.834416766731197	0.000881762748342174	0.0141188508533396
0.24	-3.46161525829782	0.483302759013156	584.338176017068	3.73757149411509	-1.62016486366237	0.824318772872087	-0.845217770761782	0.0011518625140553	0.0140280164301866
0.25	-3.42577327239301	0.536442669188962	582.845174145073	3.87779496134527	-1.68893898779745	0.844812889700171	-0.866199153783057	0.00140998527183755	0.0139045846810895
0.26	-3.39705201656132	0.526631378910278	581.105986567033	3.99962067417274	-1.77788788731	0.871917028733146	-0.89384189805296	0.0016397659351457	0.0137448629393094
0.27	-3.3426007313081	0.448571282411998	579.33207279839	4.09677114101596	-1.89008697146517	0.901190558668181	-0.923507026497962	0.00182811838803354	0.0135441954467376
0.28	-3.23373314409513	0.307882486369746	577.702789725968	4.16633181299866	-2.02713373492993	0.928054323244858	-0.950435968246252	0.00196795344773115	0.0133004129307324
0.29	-3.05596510439648	0.120162176449123	576.33940596972	4.20923416408071	-2.18748483163205	0.94867201224076	-0.970691464983688	0.00205934621443282	0.0130166523702623
0.3	-2.81404125285334	-0.0916643995911859	575.295898143405	4.22987301995508	-2.36572995946974	0.96057466933559	-0.981811471646748	0.00210903969690412	0.0127026010038281
0.31	-2.53069155083959	-0.301285940936473	574.566827220907	4.23508190106455	-2.55306217046014	0.962908470881918	-0.983049678939206	0.00212864854624062	0.0123737134965514
0.32	-2.24000309819552	-0.483555151292203	574.107633665295	4.23283229840062	-2.73882083084272	0.956303019077582	-0.975206761893013	0.00213223136104257	0.0120485983536098
0.33	-1.97797942845423	-0.618798111715308	573.859536022186	4.23102774081622	-2.91263830754547	0.942460617101065	-0.960169324871588	0.0021339524125954	0.0117453574737886
0.34	-1.77351601519005	-0.696039881420366	573.770811879887	4.23665042965155	-3.0665307905098	0.923623354568884	-0.940332411673349	0.00214637230218717	0.0114779939192597
0.35	-1.6425082317577	-0.714504161744998	573.808534557453	4.25534459721446	-3.1963010807244	0.902073009398043	-0.918074787293977	0.0021795878226174	0.0112539671802246
0.36	-1.58644064377943	-0.683109873827326	573.958851413329	4.29135520634845	-3.30185436964968	0.879771303396681	-0.895399200984306	0.00224111144994976	0.0110735894328585
0.37	-1.5951734261047	-0.618131109817134	574.218102561229	4.34763752095857	-3.38638471515884	0.858182227544758	-0.873774008375855	0.0023361517987559	0.0109313562613621
0.38	-1.65233854120022	-0.539594059510074	574.580015130748	4.42593773978913	-3.45474920376076	0.838261223903176	-0.854148920435859	0.00246789101493294	0.010818693683494
0.39	-1.74116677128061	-0.467246424097337	575.024963665441	4.5267108086628	-3.51159205707853	0.820562941050271	-0.837083228382722	0.00263745593763332	0.0107271779549639
0.4	-1.84876698649089	-0.416982136335886	575.515819778492	4.64885675735217	-3.55983756462508	0.805409291546234	-0.822918648805886	0.00284349473044709	0.0106511748635574
0.41	-1.96769238459694	-0.398428079437773	576.001989060781	4.7893759324549	-3.60002715864268	0.793062115472176	-0.811938544947669	0.00308151257063782	0.0105890753035398
0.42	-2.09472484720224	-0.414056536663252	576.430060773131	4.94312214508998	-3.63068438055661	0.78385009086473	-0.804468271633523	0.00334329694739233	0.0105427901244848
0.43	-2.22781763307251	-0.459784713729897	576.757224616797	5.1028426765536	-3.64954969901236	0.778206242856509	-0.800883827848772	0.00361681023608618	0.0105157465670233
0.44	-2.36274023376893	-0.526684198401894	576.962898298313	5.25963187084878	-3.6552467659635	0.776587516305023	-0.801513038642448	0.00388682883353064	0.010510111216022
0.45	-2.49098072211706	-0.603241497997516	577.054858459331	5.40381209989951	-3.64881154847676	0.779279244680125	-0.806442193803615	0.00413640076713917	0.010524196276586
0.46	-2.5998866324198	-0.677611407918885	577.068037681846	5.52612941534888	-3.63457195439611	0.786133750232521	-0.815280811086842	0.00434894900758998	0.0105509214040675
0.47	-2.67508132205006	-0.739441879090088	577.05628349742	5.61905035662808	-3.62007991039186	0.796338489119633	-0.826974726793958	0.00451064412657209	0.0105778469151612
0.48	-2.70424629962178	-0.781038159957203	577.079124728821	5.67789942606086	-3.61509022745047	0.808330421194679	-0.839771407247813	0.00461256538548327	0.0105888014547131
0.49	-2.68079509686653	-0.797804287987569	577.186615562009	5.70159393778288	-3.62985120693497	0.819948538210576	-0.85141323040464	0.00465218606419593	0.010566669352193
0.5	-2.60601615741353	-0.78802737455513	577.405601397196	5.6928070956358	-3.67314014264682	0.828842665022696	-0.859563287062408	0.0046338442681747	0.0104966193479584
0.51	-2.48890025279604	-0.752171093119351	577.730426146147	5.65750275639149	-3.75050923577544	0.833055676649179	-0.862375395717982	0.00456806006048427	0.010369004704852
0.52	-2.34379669418092	-0.691939185418597	578.120344652718	5.60391348463955	-3.86312229256329	0.831608911596881	-0.85904323756489	0.00446979164967432	0.0101813118624556
0.53	-2.18683859056931	-0.609444366177045	578.504797416725	5.54115327663149	-4.00741004392487	0.824888559299274	-0.850140127318289	0.00435594552241758	0.00993879150465576
0.54	-2.03239956009505	-0.506821305352444	578.796267750375	5.47774287581572	-4.17560298131702	0.814675932780447	-0.837608945839798	0.00424262531173969	0.00965368174867615
0.55	-1.89060561125728	-0.386498530443841	578.908756775025	5.42035451763124	-4.35704475446213	0.803775823017999	-0.824368979304724	0.00414267893915454	0.00934317733711648
0.56	-1.76632601991617	-0.25208414583899	578.778255155426	5.37303723169006	-4.54005351695948	0.795333668679343	-0.813633986561235	0.00406404973310892	0.00902650363574453
0.57	-1.65946294726914	-0.109495890541725	578.38045166312	5.33706516829815	-4.71398538964555	0.792040904896503	-0.808134898996078	0.00400924994062746	0.008721625089541
0.58	-1.56605174536927	0.0322820549639596	577.740851393865	5.31138762600788	-4.87108037306683	0.795466527776264	-0.809473466350062	0.00397599338916621	0.00844223606959554
0.59	-1.4797472622072	0.161455578879949	576.933827111426	5.29349977632081	-5.00767162997013	0.805708100591977	-0.817788612154316	0.00395872731786651	0.00819569497570538
0.6	-1.39353295264833	0.265051300093947	576.069782294753	5.28045057894653	-5.12444855209242	0.821446140492541	-0.831813377026938	0.00395058486480104	0.00798241077393047
0.61	-1.30166434822802	0.331758052800875	575.272909611684	5.26969398039303	-5.22568609881683	0.840353981926989	-0.849275729325545	0.00394521004040393	0.00779685937857377
0.62	-1.2017541009015	0.355236607095786	574.65494939849	5.25957321368171	-5.31763970235432	0.859708231077772	-0.867494839807931	0.00393800621391527	0.00762996163290947
0.63	-1.09656242962414	0.336774799364593	574.291835773674	5.24937428902632	-5.40656350249526	0.87699818888531	-0.883978757113411	0.00392658940515633	0.00747213777805794
0.64	-0.994731299207041	0.286190132292721	574.209510613407	5.23904057077509	-5.49693672968475	0.89035788414536	-0.896851755760883	0.00391050765847711	0.00731613068886267
0.65	-0.909703450604205	0.220364547589048	574.382538498961	5.22875027310303	-5.5904145078702	0.898727237265043	-0.905017833020175	0.00389052060111206	0.00715877123974973
0.66	-0.856553800000781	0.159590558781537	574.745271390298	5.21858416173995	-5.68576697715777	0.90175558960019	-0.908069973606722	0.00386783903029109	0.00700123489924936
0.67	-0.847306503837962	0.122715272534996	575.211497201195	5.20844361344058	-5.77972525710227	0.899551525699677	-0.906044886491632	0.00384366797700331	0.00684787281035515
0.68	-0.886147041634374	0.122558993618021	575.696107604422	5.19824600346534	-5.86834808451096	0.892426296551944	-0.899168652994533	0.00381920281182779	0.00670418484060015
0.69	-0.966328602920874	0.163042014117857	576.132205777196	5.1882785887344	-5.94837643074684	0.880761781400374	-0.887725974321686	0.00379597578276392	0.00657474926056728
0.7	-1.07023849488541	0.238874731317774	576.479271747836	5.17949512043645	-6.01810446903422	0.865066837518208	-0.872121140368311	0.00377624665169707	0.00646185072369521
0.71	-1.17307325508501	0.337771391342678	576.721649309397	5.17353648023193	-6.07752689723417	0.846193883841114	-0.853106535162769	0.00376306820607208	0.00636520617826997
0.72	-1.2492384559035	0.444286947105331	576.860274492709	5.17235600649201	-6.12782258733761	0.825604189186049	-0.832067829582926	0.00375977265695826	0.00628273043523697
0.73	-1.27948778278072	0.543884695812335	576.902785445584	5.17749676212595	-6.17048251013696	0.805526745130008	-0.81120665508559	0.00376887985623753	0.0062118925972719
0.74	-1.25642903897672	0.625899531002627	576.857085969422	5.18923519539236	-6.20649659191954	0.788871303444751	-0.793473429355151	0.00379072004137793	0.00615103031090136
0.75	-1.18654557332275	0.684621335887223	576.731188730847	5.2059022459905	-6.23595202793308	0.778831892419439	-0.782177942939018	0.00382226650668471	0.00610005915546813
0.76	-1.08811399513378	0.718537188538121	576.538763419089	5.22367365033321	-6.25820241806322	0.778231847292298	-0.780322937574336	0.00385669231676644	0.00606029069961572
0.77	-0.985838669028877	0.728497914662305	576.306754068924	5.23698693082834	-6.27252583261609	0.788775972612552	-0.789826026518139	0.00388397861048817	0.00603343687764729
0.78	-0.904085435897577	0.715921452480124	576.080032884066	5.23954100168108	-6.27899469423069	0.810444547051925	-0.810870363754522	0.00389257326815429	0.00602019087571382
0.79	-0.860880187345554	0.681986957911891	575.918932745843	5.22564010144061	-6.27920141004557	0.841253437763511	-0.841618178581131	0.00387174877070162	0.00601892566580547
0.8	-0.864298327153332	0.628198313076843	575.888306505082	5.19152746500802	-6.2765426465708	0.877508125278732	-0.87842591269026	0.00381406516868665	0.00602499838676784
0.81	-0.911821545304628	0.557965322153126	576.040368015342	5.13635445046859	-6.27592942716902	0.914524694491402	-0.916543080192215	0.00371729223403849	0.00603092928127319
0.82	-0.992180668419843	0.478287705433311	576.39652215653	5.0625416187018	-6.28298911151316	0.947632108070885	-0.951114527691823	0.00358529453826106	0.00602743466591588
0.83	-1.08858004748353	0.400477412454728	576.934488526023	4.97546497041019	-6.3029815807545	0.973167859262475	-0.978199374518763	0.0034276739822755	0.00600504595105827
0.84	-1.18218700580633	0.339186331849919	577.585792057073	4.88258066769455	-6.33971494939737	0.989175324644051	-0.995512349747045	0.0032582940724456	0.00595591873796764
0.85	-1.25521914038189	0.309683105279438	578.245561966635	4.79222905696779	-6.39471045338663	0.995610598105144	-1.00268941565234	0.00309307537666415	0.00587544285488728
0.86	-1.29350508766568	0.324066133155827	578.79269368791	4.71240258640783	-6.466767629849	0.994033331523668	-1.0010432225001	0.00294758194619194	0.00576336333444805
0.87	-1.28866693603832	0.387607438548089	579.11518557925	4.64972289513967	-6.55197311156995	0.986927268469271	-0.992942217038114	0.00283489559296823	0.00562424616193719
0.88	-1.23992635849027	0.496489309870885	579.133973375763	4.60877673263743	-6.6441214418555	0.976907603730805	-0.981056870911872	0.00276412989275465	0.00546721944246575
0.89	-1.15512184935802	0.637792967108145	578.819272818948	4.59184776434617	-6.73548543081051	0.966084784563388	-0.967729892715255	0.00273973112163717	0.00530498084328357
0.9	-1.0501974123483	0.791876503562252	578.195925617134	4.59898833638993	-6.81786651989019	0.955768578033745	-0.954646630842402	0.00276151789985768	0.00515211609675115
0.91	-0.946528403396094	0.936505438303938	577.3375411509	4.62832437725403	-6.88383855912132	0.94655057678867	-0.94284569953416	0.00282527782724606	0.00502286322175732
0.92	-0.866101014892284	1.05155326192116	576.352155132786	4.67648129070187	-6.92804909967467	0.938656588519748	-0.932974878185215	0.00292369031010364	0.00492860007785084
0.93	-0.825541216126566	1.12295886461108	575.363765328093	4.73904580944951	-6.94836851985665	0.932367588708567	-0.925614591816999	0.00304737005287115	0.00487549725794711
0.94	-0.83083136334703	1.14494089544158	574.494115281882	4.81101689443756	-6.94661756979536	0.92829984660952	-0.921487074890586	0.0031858925883097	0.004862888734805
0.95	-0.87476934202087	1.12009000191008	573.847794574295	4.88722858712651	-6.92860927971614	0.927408525063428	-0.921437887278118	0.00332873343919893	0.00488288387443037
0.96	-0.938561651288295	1.05764617685226	573.501877834173	4.96273955387103	-6.9033467879534	0.930701776814848	-0.926185502545465	0.00346609795438391	0.00492152807297258
0.97	-0.99753892580979	0.970768336044733	573.499786738823	5.03317934088347	-6.88141973794286	0.938775729759382	-0.935939908159739	0.00358962984395839	0.00496143946733218
0.98	-1.02935443493634	0.873753220162921	573.848387264373	5.09502944335978	-6.87288658948301	0.951359096266879	-0.950053293951147	0.00369297166837146	0.0049854078640284
0.99	-1.02185729985438	0.779944747186913	574.517577807855	5.14581028149934	-6.8851340612762	0.967062463884892	-0.96686426698405	0.00377213127367892	0.00498008891793766
1	-0.977676770323893	0.70062249627093	575.442363323018	5.18415241940943	-6.92128231541844	0.983461636945133	-0.983835145361053	0.00382560787586883	0.00493880429496818
1.01	-0.913575511519829	0.644682237521857	576.528022030843	5.20975347992683	-6.97960452810526	0.997531971643635	-0.997984093375147	0.00385426295911373	0.00486264417389443
1.02	-0.854501273497268	0.618625277514367	577.658968170496	5.2232525295047	-7.05416224187481	1.00633153462387	-1.00651498101141	0.00386097660442641	0.00475953441538379
1.03	-0.824283022931572	0.626364857548097	578.711191923859	5.22607496707913	-7.13649879294629	1.00774511353279	-1.00748029246089	0.00385018193216613	0.00464154243048714
1.04	-0.836280445985778	0.668610642069907	579.567021570864	5.22029794201135	-7.21790095828581	1.00107505565029	-1.00029567541388	0.00382738678264261	0.00452125123965119
1.05	-0.88744308449157	0.74196689921192	580.129936969656	5.20855544068165	-7.29155343089203	0.98730402673301	-0.985960740416063	0.00379875686156439	0.00440833226081483
1.06	-0.958081159310611	0.838191894152034	580.336754075324	5.19395644458048	-7.35394535821563	0.968944009436581	-0.966915774376296	0.00377076252101705	0.00430737615287891
1.07	-1.01762256381151	0.944169433717567	580.164914023073	5.1799533728048	-7.40513883905667	0.949497042835144	-0.946555558140127	0.00374982085703979	0.00421761021763917
1.08	-1.03449544275226	1.04299152600544	579.633718904263	5.17009416222305	-7.44789210274252	0.932655433925143	-0.928506099130279	0.00374183795765193	0.00413448501566011
1.09	-0.986823103127752	1.11620747509877	578.799767282922	5.16762828519026	-7.4860109353118	0.921437438589609	-0.915829270599159	0.00375159495036248	0.00405247829703603
1.1	-0.87035172480299	1.14689645395317	577.748074209045	5.17500386703126	-7.52254588708936	0.917473721607679	-0.910342109192749	0.0037820159840849	0.0039680661471575
1.11	-0.700996201870813	1.12291505028871	576.581027011345	5.19336405287082	-7.55847475572869	0.92062565856304	-0.912215941961754	0.00383346868001189	0.00388178920640869
1.12	-0.511192822093545	1.03955953373814	575.407269866513	5.22219559802601	-7.59230636104128	0.929034471719013	-0.91995652272685	0.00390332789376646	0.00379869784902515
1.13	-0.341242742605435	0.900991144258531	574.331941316891	5.25927784627061	-7.62069195080756	0.939587741103663	-0.930771100075728	0.00398603840233758	0.00372705797230605
1.14	-0.228363301291201	0.720056350992393	573.448753839332	5.30101802298399	-7.63976610250903	0.948676436873726	-0.9412256917051	0.00407382096645237	0.0036758163999781
1.15	-0.196782197572152	0.516500513437899	572.833643803525	5.34315152912797	-7.64669291320866	0.953037117068192	-0.948018486012225	0.00415799248022164	0.00365173882017866
1.16	-0.251773422697392	0.313918055462248	572.539475794011	5.38166493462087	-7.64085016533958	0.95045945251289	-0.948672290788516	0.00423066306053488	0.00365720343633485
1.17	-0.379226460147597	0.136022075680446	572.591624268936	5.41370634129066	-7.6242493694222	0.940195749683417	-0.941990001962409	0.00428640298703409	0.0036893521732943
