Time [s]	GRFml [N]	GRFap [N]	GRFv [N]	Mml [N.m]	Map [N.m]	Mv [N.m]	Mfree [N.m]	COPml [m]	COPap [m]
0.01	-5.38444874369027	1.80524734475137	938.919501359593	-26.6740061466805	40.3321190425482	0.485368075905916	-0.410071973362087	0.0044369143905082	0.00248287266074104
0.02	-5.4792838433498	1.64959793233992	939.06944635933	-26.8157840249265	40.5625369411314	0.523165851840055	-0.437811270653245	0.00429540149138929	0.00271644998602055
0.03	-5.56000681215528	1.50342819507769	939.158162974916	-26.9511092417137	40.7895785134914	0.556094790965472	-0.461531608324241	0.00415865877669619	0.00294943166842687
0.04	-5.61126435863318	1.38071064350435	939.130861754724	-27.0771343681704	41.0071234576996	0.579498235867967	-0.477646312537463	0.00402786239490938	0.00317799741593527
0.05	-5.61890651306432	1.29809789006528	938.958301287043	-27.1952776335541	41.2084999927743	0.589734331930742	-0.483653637400285	0.00390052569110577	0.00339650501797256
0.06	-5.57282573104048	1.27250046906875	938.645379862462	-27.3107091250504	41.3878214233397	0.584752497284183	-0.478528046300827	0.00377132329479835	0.00359849452229999
0.07	-5.47052302930584	1.3163169201772	938.23267742698	-27.4299418980448	41.5418414988534	0.564585704685359	-0.462908470711845	0.00363468738129769	0.00377858218934352
0.08	-5.31986164099864	1.43192704768543	937.789699511103	-27.5574137980108	41.6715526598412	0.531585871025208	-0.439022169675838	0.00348820225144064	0.00393447891754611
0.09	-5.13942395707006	1.60766881239496	937.400491407363	-27.6924582620944	41.7827678011056	0.490259438613839	-0.410339569440427	0.0033353415336852	0.00406829514960938
0.1	-4.95566683774012	1.81724310868406	937.144460162897	-27.8280117619209	41.8853110094604	0.446664844554587	-0.381026690764782	0.00318621283700904	0.00418660113445252
0.11	-4.79733978323974	2.02343640387547	937.076868568432	-27.9517874368018	41.9909999510646	0.407466521704974	-0.355314924761722	0.00305567923639705	0.00429922619525647
0.12	-4.68881428475673	2.18561261212131	937.213896668837	-28.049694204562	42.1110783958303	0.37884602721441	-0.336920235603755	0.00295924719114404	0.00441726391186892
0.13	-4.64452661585937	2.26912113400607	937.526201811071	-28.1103744369981	42.2539499870328	0.365509555116654	-0.328611871797985	0.00290804151875379	0.00455099729298658
0.14	-4.66639868788677	2.25404676464489	937.942856452334	-28.1292358382559	42.4239022394223	0.36999229921652	-0.331970197176916	0.00290465185025979	0.00470837970392063
0.15	-4.74500659047144	2.14081509747334	938.365039139288	-28.1104719823945	42.6210733453388	0.392365538172875	-0.34731167187197	0.00294142998224489	0.00489436058318155
0.16	-4.86387303192572	1.95100789539996	938.686578995252	-28.0662675133215	42.8423971970352	0.430343387485866	-0.37372288832033	0.00300199981060534	0.00511090452828661
0.17	-5.00513918003111	1.72304666962881	938.816913765045	-28.013404230898	43.0828880484318	0.479703996160975	-0.409148480736409	0.00306560745628381	0.00535723258309273
0.18	-5.1544604956501	1.50376784617107	938.701468564474	-27.9684310935003	43.3365564307896	0.534906652736045	-0.450513487415955	0.00311291410419035	0.00562977381234869
0.19	-5.30340443102497	1.33796378498533	938.334935083253	-27.9430707248753	43.5965125239247	0.589797268643452	-0.493905837327902	0.0031313068726786	0.00592158179735497
0.2	-5.44870481140494	1.25845080276594	937.764323777935	-27.941418156356	43.8542966244489	0.638325783827732	-0.534869777280157	0.00311797212439802	0.00622142398277081
0.21	-5.58901205028873	1.27906327520878	937.080757494126	-27.9598034260735	44.0989632265758	0.675223183362551	-0.56884680555369	0.00307977124756376	0.00651317062003648
0.22	-5.72077536548757	1.39222963937657	936.401428348763	-27.9892150789776	44.3167101725284	0.696589790764269	-0.591748748706804	0.00303007526142585	0.00677626994128189
0.23	-5.83523495466442	1.5716455511822	935.845460835563	-28.0192909640474	44.491749459823	0.700337205849394	-0.600581234555278	0.00298373720000189	0.00698787462885658
0.24	-5.918075952689	1.77928216111486	935.509033683055	-28.0423950475908	44.6086739994739	0.686423732258363	-0.593988347310401	0.00295195182680585	0.00712662523925017
0.25	-5.95227347403587	1.97485333695746	935.445498622368	-28.0563596934387	44.6559470884446	0.656845068017579	-0.572586865132009	0.00293869962728277	0.00717739998487787
0.26	-5.92341906237169	2.1252077806014	935.655159746635	-28.0650162740752	44.6295764173793	0.615389312818405	-0.539005854637283	0.00293985868920754	0.00713578584766411
0.27	-5.82580552328234	2.21113003702443	936.087032239113	-28.0764352528489	44.5357646608011	0.567218065834866	-0.497624214657663	0.00294514261074097	0.00701085379170657
0.28	-5.66710863419313	2.22979200260356	936.651889674244	-28.0995625856132	44.391476912291	0.518362920500902	-0.454069493846565	0.00294211029375324	0.0068251319998055
0.29	-5.46978974765784	2.19243301313369	937.243074520483	-28.1404314481078	44.2223965727163	0.475207633817114	-0.414574241159294	0.00292087783286732	0.00661138530796312
0.3	-5.2682683953934	2.11837133774783	937.759691387223	-28.1992217117113	44.0584808790456	0.443966763103033	-0.385271908625556	0.00287800297565888	0.00640669739041799
0.31	-5.10219623732966	2.02763793440472	938.126451637139	-28.2691421525787	43.928032954799	0.430108689384716	-0.371472912820439	0.00281831765246987	0.00624512787956211
0.32	-5.00740745557345	1.93490457635543	938.305682956517	-28.3375378774791	43.8516618823442	0.437655556889035	-0.376931981167807	0.00275413393587731	0.00615064155260486
0.33	-5.00693091911281	1.84675345288001	938.299477096391	-28.3889546723162	43.8375838780346	0.468358220156138	-0.403134687882706	0.00270204315922562	0.0061319694882418
0.34	-5.10455311130543	1.76290871103814	938.14285225108	-28.4093106857067	43.8794236092088	0.520879139505398	-0.448699008113759	0.00267824184648624	0.00618059926744213
0.35	-5.28276453907928	1.6803908781417	937.891208599552	-28.3899897696973	43.9571014617474	0.5902579104151	-0.509072019428717	0.00269375484282841	0.00627235459431197
0.36	-5.50570556767385	1.59837129152667	937.606458020343	-28.3306707732807	44.0406916661791	0.667994150304534	-0.576741138460372	0.0027509625630916	0.00637221755253764
0.37	-5.72634297968624	1.52132422112403	937.345683751506	-28.2400479212667	44.0964696327846	0.742991922429527	-0.642118091318074	0.00284245951948892	0.00644135979885119
0.38	-5.89600154516382	1.45898682885937	937.154348884551	-28.1341917024135	44.0938748975688	0.803363946498375	-0.695079018649319	0.00295257840297758	0.00644491676575548
0.39	-5.97387836485174	1.42322418149358	937.063788102804	-28.032982281669	44.0118988680927	0.838768952134047	-0.726903823292012	0.00306111188101166	0.00635892458235476
0.4	-5.93438541906764	1.42341499162652	937.091032289424	-27.9556141741811	43.8435139569649	0.84268553985253	-0.732149342853149	0.00314810455480119	0.00617504248952422
0.41	-5.77095516125212	1.46270145694818	937.238673984009	-27.9164381047367	43.5971841589027	0.813943905138906	-0.709918766887764	0.00319829033344343	0.00590215611394301
0.42	-5.49599574669787	1.53703124507004	937.493553725019	-27.9222753596676	43.2951618087391	0.757008584389815	-0.664112922782105	0.00320392330088948	0.00556461431785032
0.43	-5.13764794326424	1.63755408593934	937.824886204779	-27.9718439964446	42.9690387034364	0.680888634234836	-0.602544169694423	0.00316533784364104	0.00519757417715383
0.44	-4.73460348820492	1.75526762238578	938.18400552603	-28.0572398574329	42.6536892346095	0.597004504360229	-0.535155788257734	0.00308936704523133	0.0048405618366108
0.45	-4.33036934502039	1.88562825128062	938.508270927755	-28.1667640038826	42.3811206294566	0.516681060124914	-0.47187550197046	0.00298645552570953	0.00453073728278153
0.46	-3.96804403335227	2.03071235529872	938.730502786413	-28.2880180195157	42.175695154531	0.449023853497107	-0.42072451499412	0.00286766113216796	0.00429735193984593
0.47	-3.68609580240165	2.19750896238601	938.793031604719	-28.410232192555	42.0517036137017	0.399738701884464	-0.386668482049825	0.00274262085290899	0.0041584818949546
0.48	-3.51506807092986	2.39262376678567	938.663027409334	-28.5252208752212	42.0134965903413	0.371063425489333	-0.371397488558716	0.00261902132064007	0.00412041592228152
0.49	-3.4748420319144	2.6153572395659	938.344350506994	-28.6269932895929	42.0575852136146	0.362564952186283	-0.373888669745855	0.00250339215487072	0.00417930386999982
0.5	-3.57218987222838	2.85208168363753	937.881477871482	-28.7106237166761	42.1755922874705	0.372285034533751	-0.391373045359031	0.00240243587371469	0.00432409353752738
0.51	-3.79878504322764	3.074672178271	937.353158078964	-28.771263845059	42.3568552087452	0.397689174653941	-0.420277660171931	0.00232387731075379	0.00453959930717052
0.52	-4.13034677262758	3.24447031177557	936.856631056469	-28.8040463539192	42.5898623924921	0.436071385925419	-0.456839683714569	0.00227605963464594	0.00480879547067092
0.53	-4.52786548664236	3.32131557712339	936.486346868722	-28.8051401113968	42.8623681825715	0.48438408353319	-0.497311599675561	0.00226613447857216	0.00511398021529441
0.54	-4.94165415497928	3.27525157788757	936.312966238744	-28.773585506857	43.1606903612243	0.538752238210548	-0.537887274695168	0.00229742715092174	0.00543706452725851
0.55	-5.31827584857355	3.09729181447042	936.368339095545	-28.713044993246	43.4690732465117	0.594076364946306	-0.574590563938246	0.00236708205697711	0.00575964464480122
0.56	-5.60942063464949	2.80557099220809	936.64019994746	-28.6324813944464	43.7699478697175	0.644084965191025	-0.603349951132818	0.00246516224600168	0.00606355556093974
0.57	-5.78091068465619	2.44438442123144	937.077257734194	-28.5451040918721	44.0454750679641	0.681999487732437	-0.620362915573732	0.00257593035650383	0.00633227825050109
0.58	-5.81957780697682	2.07568893311128	937.602329831749	-28.4655848616009	44.2801216815722	0.701714865693752	-0.622697856772358	0.0026812359831182	0.00655304643710924
0.59	-5.73601993970235	1.76496001542855	938.12921047919	-28.4062738218397	44.4634775903352	0.699180027277159	-0.608958548002717	0.00276509430537741	0.00671901974853562
0.6	-5.56219912986132	1.56513519118112	938.578611498706	-28.3736362565294	44.5923121589277	0.67356191753157	-0.579790518785248	0.00281800548943945	0.00683068706547979
0.61	-5.34423429188019	1.50313229789777	938.889657019035	-28.3661701831858	44.6710862253784	0.627819735423503	-0.538047735492677	0.00283955747180042	0.0068958406455209
0.62	-5.13213172271798	1.57285463524441	939.025425255979	-28.374621825701	44.7106866854604	0.568477972016366	-0.488536333847819	0.00283838931186398	0.00692794923325746
0.63	-4.96911911492862	1.7368328313568	938.9730827676	-28.3845529795429	44.7257967838101	0.504606780183051	-0.437368185305212	0.00282947060585981	0.0069433441371784
0.64	-4.88337353886576	1.9362143430703	938.74056398653	-28.380514582571	44.7317792529914	0.446225171477896	-0.391050938131605	0.00282955036403942	0.00695805565962493
0.65	-4.88418837692248	2.10640994865777	938.352175175143	-28.3505366948689	44.7420385318457	0.402479209196547	-0.355489294089254	0.00285222427368392	0.00698521045498124
0.66	-4.96323376268777	2.19405395320054	937.844991826986	-28.2895458199964	44.7665189801188	0.37998568136355	-0.335072681818295	0.00290416162052198	0.00703359683239363
0.67	-5.09998689857826	2.17053308937369	937.266794822981	-28.2006880251221	44.8114424290342	0.381675698241691	-0.331992004151997	0.00298360836811329	0.00710747285121616
0.68	-5.26917880304041	2.03832903238753	936.675008119421	-28.0942277780744	44.879850124079	0.406349584375385	-0.345882656594497	0.0030815068109219	0.00720718439730023
0.69	-5.44764605747023	1.82852795171389	936.13511986037	-27.9844627890118	44.9722367130117	0.449000581308329	-0.373845506442172	0.00318471994314928	0.00732991481808376
0.7	-5.61844110033352	1.59045846633781	935.716757812507	-27.8856896408582	45.0866674221308	0.501813517566334	-0.410853210726574	0.00328020334399126	0.00747001267413261
0.71	-5.7712589547197	1.37673944671032	935.486135405218	-27.8084938375374	45.2181951616105	0.55562137874484	-0.450500643374609	0.00335872703500728	0.00761876757216107
0.72	-5.89972812966347	1.22833479331984	935.494911373605	-27.7574659975011	45.3579323806183	0.601526476539067	-0.486003192937022	0.00341697178972744	0.00776400700599994
0.73	-5.9973339448128	1.16410463265088	935.767247134916	-27.7309379186171	45.4925185310584	0.632376472276737	-0.511293321574112	0.00345741870033422	0.0078902075771965
0.74	-6.05424424161351	1.1778310428583	936.28840952706	-27.722660012534	45.6047588363794	0.643832772226983	-0.52203053790755	0.00348621623166023	0.00797977085967499
0.75	-6.056909275324	1.24324726784581	936.999007124655	-27.7247192703399	45.6758506266021	0.634870231851359	-0.516339335682575	0.00350989695492165	0.00801569490925585
0.76	-5.99115808147271	1.32499232455826	937.79839364426	-27.7306192407569	45.6889938431913	0.607678299590721	-0.49513119486015	0.0035322035619485	0.00798524346734825
0.77	-5.84803343917508	1.39150503761754	938.558821624326	-27.7374305648979	45.6335556963885	0.567060537618118	-0.461944630071563	0.00355223854214037	0.0078836500833277
0.78	-5.63033909393293	1.42532029302936	939.148956194337	-27.7462797647238	45.5085885656995	0.519518208792109	-0.422333856653158	0.00356467711708774	0.00771665320733
0.79	-5.35729083579659	1.427258222348	939.462166760444	-27.7610603080982	45.3245455874579	0.472232431395334	-0.382927838335536	0.00356202598580202	0.00750086980738784
0.8	-5.06500970051605	1.41328013780442	939.442647197345	-27.7859142311141	45.102494570225	0.43212609069335	-0.350343818254311	0.00353812697113598	0.00726162015949233
0.81	-4.80179531491367	1.40552550159883	939.101838170197	-27.8225059828511	44.8708364422493	0.405110258821908	-0.330157147799876	0.00349158012984097	0.00702859468787259
0.82	-4.61879692961512	1.42123175692331	938.519364071137	-27.8682090641371	44.6602443128351	0.395534401551433	-0.326099693835204	0.00342770830417904	0.00683041859950378
0.83	-4.55830770404751	1.46402722126622	937.826556280547	-27.9159968381685	44.4980225579403	0.405801691621989	-0.339594484337149	0.00335815631688119	0.00668948684789472
0.84	-4.64289538027085	1.52114074006924	937.175633303018	-27.9561801752473	44.4032057985737	0.436104008431424	-0.369657446312747	0.00329806705183233	0.00661831600142249
0.85	-4.86858687376313	1.56772653075758	936.702212313731	-27.9794065039611	44.3834684863685	0.484274642210011	-0.413132375987408	0.00326169927324838	0.00661816150544986
0.86	-5.20429781455339	1.57665805979895	936.491436012289	-27.9798110921667	44.4344052850784	0.545822268999872	-0.465187501011357	0.00325799476035371	0.00667997432494999
0.87	-5.59793680153351	1.52991733632883	936.55753529861	-27.9571060606688	44.5411433780808	0.614252954788104	-0.519990310480862	0.00328770187293925	0.00678715783748751
0.88	-5.98767078250587	1.42698617482629	936.84301375897	-27.9167595184764	44.6817341590015	0.681768009524486	-0.571478138824338	0.00334315750307068	0.00691922366346065
0.89	-6.31533959421647	1.28674053249606	937.237841974499	-27.8681227225488	44.8314641945833	0.740332092473865	-0.614140054865774	0.00341089319994781	0.00705541128387777
0.9	-6.53843854344359	1.141851385524	937.612917385472	-27.8211363858882	44.9671628129334	0.782965123783048	-0.643715982535841	0.00347621101070417	0.00717758001071139
0.91	-6.6376177490402	1.02763702651965	937.857616120577	-27.7827871844212	45.0707272284179	0.804982167182862	-0.657711131012495	0.00352815659129091	0.00727205901323119
0.92	-6.61807298589014	0.969534924858829	937.910062508956	-27.7545811442725	45.1313500995836	0.804852738011386	-0.655634985140977	0.00356317585049104	0.00733048337940251
0.93	-6.50502977703527	0.973974696309392	937.77122543625	-27.7319153652094	45.1462290129659	0.784415001910151	-0.638916582546197	0.00358623100193678	0.00734983263134797
0.94	-6.33514765198486	1.02616950531626	937.499311619483	-27.7055169956349	45.1198022896817	0.748353918824481	-0.610518403796067	0.00360908315169794	0.0073318988531873
0.95	-6.14660001704809	1.09567643834044	937.187348101431	-27.6643616304677	45.0617699787615	0.703079534838841	-0.57434925075155	0.00364646123749457	0.00728231420685893
0.96	-5.97059404365772	1.14755125742039	936.932124802072	-27.5989806242553	44.9843271160924	0.655337257358279	-0.534631227476676	0.00371154218286107	0.00720917840854413
0.97	-5.82628652165226	1.15474529686671	936.804994419471	-27.5040085188203	44.8991606724861	0.610965799423087	-0.495380197338428	0.00381230337758476	0.00712134041885309
0.98	-5.71978348322082	1.10694554028194	936.833661373215	-27.3792110417257	44.8148229486432	0.574149847150664	-0.460103598383533	0.00394984905313889	0.0070265228690034
0.99	-5.64664180766311	1.01253822996405	936.999656199432	-27.2288883431136	44.7350535588963	0.547313380351354	-0.431721214797563	0.00411897185335919	0.00692965984546734
1	-5.59640852677736	0.893193815130016	937.250444272424	-27.0601814315285	44.6584449862675	0.531543459422849	-0.412613474370547	0.00431035147122272	0.00683192242151082
1.01	-5.55744008429511	0.773581681644491	937.52025502214	-26.881159603696	44.5795359851955	0.527229080934618	-0.404645509338443	0.00451326405304453	0.00673082298526856
1.02	-5.52052455452692	0.670687488565343	937.751485250675	-26.6995063119415	44.4910348659468	0.534535032250436	-0.409035856281319	0.00471766983324762	0.00662149596092593
1.03	-5.4805012423864	0.587304356464372	937.909522805871	-26.5222076033803	44.3865345642769	0.553438660709721	-0.426034740145855	0.0049150196159109	0.00649883957865843
1.04	-5.43587034753368	0.512451657688549	937.987316011464	-26.3560881939537	44.2629100321967	0.5832945483853	-0.454508940608667	0.0050978282820846	0.00635984342157103
1.05	-5.38705545573987	0.428492580160732	938.000318002531	-26.2085953810631	44.1216702587981	0.622154603767316	-0.49163587321022	0.00525867512010258	0.00620529407033743
1.06	-5.33434234796375	0.321818879446337	937.975761680485	-26.0880978710074	43.9688684057327	0.666239529296755	-0.532931832543086	0.00538953863401181	0.00604023400683618
1.07	-5.27649554038198	0.19236765164064	937.941401052169	-26.003197177151	43.8136505870822	0.709950048337223	-0.572755410718654	0.00548216531154588	0.00587299627663368
1.08	-5.21068904767181	0.0576123261324453	937.917770940835	-25.9610330974868	43.6659758643103	0.746616012934144	-0.605261619544541	0.00552962191877693	0.00571317340280891
1.09	-5.13381564628514	-0.0511130928350241	937.915522050676	-25.9650833838608	43.534295032722	0.769881328821769	-0.625598614316545	0.00552854930436697	0.00556927753575909
1.1	-5.04465257868825	-0.0989456436524736	937.936814810286	-26.0132833699358	43.4239325722046	0.775334135754875	-0.631012181728523	0.00548120721408707	0.0054469348307723
1.11	-4.94595857906214	-0.0606710173653275	937.978275900498	-26.0972855394378	43.3365900237242	0.761834689057504	-0.621508189043298	0.00539635864650434	0.00534818748686461
1.12	-4.84550064548792	0.0683703321718727	938.033147996012	-26.2033465867913	43.2709102460814	0.732037607795217	-0.599832640952542	0.00528839963220518	0.00527196391029205
1.13	-4.75530111248187	0.268054139610095	938.091684896831	-26.3148059863104	43.2236062833625	0.691843261183536	-0.570729153936808	0.00517474169622845	0.0052152440751343
1.14	-4.68897681016381	0.497878188295892	938.140637760036	-26.4156039504543	43.1904496599622	0.648863750424417	-0.539657704403027	0.00507205932778587	0.00517413420257601
1.15	-4.65772878398866	0.708741605682831	938.163780581556	-26.4939537413168	43.1665266928712	0.610327366877121	-0.511330613899218	0.0049924032757569	0.00514412725253488
1.16	-4.66609923540752	0.858092211933595	938.145155788571	-26.5452249026618	43.1455715203969	0.581049373308438	-0.488483521638989	0.00494023436737123	0.00511925930757068
1.17	-4.70883517762674	0.923202948625341	938.075139141751	-26.5733013734584	43.1187090329068	0.56209209170549	-0.471229764930879	0.00491116313843398	0.00509050327350502
1.18	-4.76998263763381	0.908044481721966	937.957325817939	-26.5900674307707	43.0733614321483	0.550524439495389	-0.457169944007247	0.00489270243993323	0.00504428977036936
