Time [s]	GRFml [N]	GRFap [N]	GRFv [N]	Mml [N.m]	Map [N.m]	Mv [N.m]	Mfree [N.m]	COPml [m]	COPap [m]
0.01	-0.131640395332682	2.73209452574109	592.116188724189	-0.567240582359533	24.7061364598735	0.47584315036114	-0.589561734188181	-0.00544821087088332	0.00316981294072638
0.02	0.00107520460737872	2.46347062171331	591.454225635126	-0.348180550169386	24.5799666908807	0.482505760752952	-0.584840255935773	-0.00507744150830169	0.00299903806410962
0.03	0.0483147397952253	2.20602862897122	590.742047787002	-0.143514099523799	24.483845076203	0.488581140266388	-0.58011203312419	-0.00473092972679257	0.00288293611965212
0.04	-0.0523755369861398	1.9712919889601	589.928472623563	0.0333324335002688	24.4392454413367	0.493136171627067	-0.575001360213338	-0.00443132476466723	0.00286173344122692
0.05	-0.322974680360418	1.77027260092567	588.993913695042	0.171584410495864	24.4559123762453	0.49578699138399	-0.569605979271326	-0.00419684674774745	0.00295348335595541
0.06	-0.740565996262246	1.61176907646951	587.962133620236	0.264470227139512	24.5307516968805	0.497007130710355	-0.564729900989608	-0.00403900398253565	0.00315130853111101
0.07	-1.24584421176848	1.50023533687691	586.903160983588	0.310307933386887	24.6502856810912	0.49825937009905	-0.561940189852918	-0.00396073776860495	0.00342731802181695
0.08	-1.76103445311508	1.43419954324758	585.92562073446	0.312985027579298	24.7956552603723	0.501867263727538	-0.563399515091313	-0.00395558049879774	0.00374161602442136
0.09	-2.21106361005806	1.40613190949599	585.158556437705	0.28157399678729	24.9483649579808	0.510597430835257	-0.571473799681791	-0.00400827412189664	0.00405335355678443
0.1	-2.54144691175644	1.40410673840943	584.725382831705	0.229039235817759	25.0948432087956	0.527012407677466	-0.588178928676868	-0.00409693533139643	0.00433037191455854
0.11	-2.72810952591347	1.41484532853035	584.715270043657	0.170246791732485	25.2284433696768	0.552743274663323	-0.614590711307879	-0.00419641616112187	0.00455471849425976
0.12	-2.7774262511385	1.42710917827522	585.158969954356	0.119694614111337	25.3485077789501	0.587881744977457	-0.650372006427519	-0.00428215259278586	0.00472287114595316
0.13	-2.71798256745214	1.43421168680553	586.015886321294	0.0894671744190858	25.4571845685328	0.630676634925618	-0.69355356502035	-0.00433364190698127	0.00484132707221985
0.14	-2.58788976486977	1.43472107475231	587.176735225519	0.087856409822046	25.5554494479333	0.677640644979103	-0.740643546982249	-0.00433679192731828	0.00491968626716077
0.15	-2.42230497357801	1.43111410942905	588.482014476657	0.118902655614965	25.639995343944	0.724058129091616	-0.787056131575425	-0.00428470592540287	0.00496402581965688
0.16	-2.24505612211328	1.42693298393308	589.752013715853	0.182856082119444	25.7022669575242	0.764774114876978	-0.827771072594556	-0.00417690016061878	0.00497304503477486
0.17	-2.06639051312788	1.42358334602059	590.820790308957	0.277318573026059	25.7300936358422	0.795074894062234	-0.858086404979201	-0.00401736317366996	0.00493831462592009
0.18	-1.88657796922937	1.41806285205773	591.565552748804	0.398664593934883	25.7114099433382	0.811458163878356	-0.874314726745051	-0.00381214202177205	0.00484840391062402
0.19	-1.70315655806105	1.40256883109102	591.924536062243	0.543295511336957	25.6387814540248	0.812132229671484	-0.87429522843039	-0.00356721530388537	0.00469522870199646
0.2	-1.51856917246263	1.36622999957477	591.90009544853	0.708360349390735	25.5131318313131	0.797160766246266	-0.857637759438043	-0.00328727781474447	0.00448014467150659
0.21	-1.34503988428285	1.29840568756951	591.548101719546	0.891754601787383	25.3452982011453	0.768258178072955	-0.825670190665452	-0.00297575663570881	0.0042173762703186
0.22	-1.2046697002581	1.19239632275071	590.958351702072	1.09144382717313	25.154740393692	0.728318808247546	-0.781117095179102	-0.00263597849880004	0.00393328494951922
0.23	-1.12449365892729	1.0482327426624	590.232516570054	1.30439103971536	24.96565525556	0.680815181569665	-0.727588723299963	-0.00227301394719193	0.00366141634033079
0.24	-1.12806657154319	0.873522585133302	589.465743811724	1.52552937600899	24.8015861116616	0.629217099930823	-0.668996005153563	-0.00189544780829398	0.00343472106394016
0.25	-1.22644765276529	0.682014588523889	588.735776030542	1.74725535262367	24.6800896754058	0.576562463636133	-0.60902028604633	-0.00151626651080938	0.00327731409075271
0.26	-1.41179777500597	0.490346994897975	588.100301527999	1.95979493545824	24.6089775593043	0.525256988028664	-0.550747965498032	-0.00115225870067459	0.00319829528588894
0.27	-1.65604284939336	0.3140804480555	587.600364911898	2.15253588423225	24.5851160531063	0.47710630880244	-0.496529800125551	-0.00082176169083592	0.00318946147843313
0.28	-1.91541605712019	0.164344163380699	587.265995813973	2.31609885433189	24.5959428098469	0.433510586601205	-0.448053687349784	-0.000541130135686796	0.00322746163753296
0.29	-2.13971870148929	0.0461575619815457	587.120202710991	2.44464143503896	24.6230353887941	0.3957021981681	-0.406550590046566	-0.000320778810884326	0.00327954734997032
0.3	-2.28353593317201	-0.0411761660303206	587.178944307482	2.53775182363256	24.6465260609282	0.364900308089402	-0.373011971194115	-0.000161892151881449	0.0033110445154414
0.31	-2.31600653998563	-0.102018218905457	587.446938705103	2.60134458107496	24.6490666241731	0.342297448349233	-0.348302363151461	-5.48083695792734e-05	0.00329235463823063
0.32	-2.22632284131788	-0.141728892460882	587.91128298413	2.6472057928747	24.6183979472951	0.328869755574678	-0.33310397061434	2.03040241414376e-05	0.00320373896914306
0.33	-2.02370571904469	-0.164621445928133	588.536044252458	2.69117587911346	24.5481988841945	0.325085452299697	-0.327712442425335	9.04339987434222e-05	0.00303710951017916
0.34	-1.73254375803805	-0.173421690863766	589.260868425552	2.7503033363716	24.4375183306109	0.330640896769511	-0.331780241636614	0.000184924871617032	0.00279513201810061
0.35	-1.38494232413747	-0.170375060087736	590.005366340038	2.83955781569942	24.2894958402903	0.344354018782045	-0.344141233767908	0.000329866661380795	0.00248872362009783
0.36	-1.0135120768384	-0.159317299225118	590.679117967729	2.96879706845932	24.1101297391244	0.364286809742974	-0.362827221355761	0.00054286293527217	0.00213425548557666
0.37	-0.646671823088126	-0.14749058893729	591.195292483335	3.14062489437419	23.9075885361048	0.388074043799087	-0.385310880921129	0.000829266729968192	0.00175145082234707
0.38	-0.307360477344496	-0.145904814537526	591.484728727967	3.34958104054276	23.692134670668	0.413346086456453	-0.408912728888398	0.00118065730411143	0.00136231720928631
0.39	-0.0144822566935561	-0.167636203506986	591.507188714385	3.5828206492078	23.476337800287	0.438091716803728	-0.431237054321553	0.00157585332564703	0.000990786291709178
0.4	0.21468278068155	-0.224381555894649	591.257360030589	3.82213553286544	23.275058298952	0.460834425767575	-0.450488339421272	0.0019842380656232	0.000662331223854895
0.41	0.36306632590661	-0.322439822513906	590.764693404443	4.04690816448751	23.1047457203239	0.480582530506356	-0.465573521540093	0.00237072066752808	0.000402832024089583
0.42	0.414651973228542	-0.459684023465722	590.087778613523	4.23742505361471	22.9818782149068	0.496620739318426	-0.475992675587872	0.00270136729181747	0.000236327359734612
0.43	0.357583432023802	-0.62482192383721	589.305142875128	4.3779375243742	22.9207418446546	0.508288283814538	-0.481616183168009	0.00294865852326776	0.000181852552694761
0.44	0.188361053313999	-0.799419486213399	588.504754103792	4.45894253955172	22.9310581206791	0.514898117147061	-0.482494547460598	0.00309546428354412	0.00025007505214425
0.45	-0.0846849309596379	-0.962122023338736	587.774105794726	4.47833554450806	23.0160875227779	0.515884941158607	-0.478823085807003	0.00313712788890841	0.000440682253671831
0.46	-0.440273222935922	-1.09369276797459	587.191854524655	4.44131810944746	23.1717169081228	0.511154257677509	-0.471096726173988	0.00308144311833758	0.000741342659455413
0.47	-0.846142764998621	-1.1812315206898	586.821061881608	4.35917922443814	23.3867292054831	0.501491667992519	-0.460379683627677	0.00294671175306738	0.00112859752739064
0.48	-1.26367131416892	-1.22032095386874	586.703606141717	4.24726781914644	23.644086981197	0.488834001755662	-0.448533557220256	0.00275840920300541	0.00157044036188753
0.49	-1.65373388139936	-1.21468183242997	586.855476481865	4.12259898757071	23.9227973545451	0.476231386533668	-0.438236481266574	0.00254519919140972	0.00202986702789326
0.5	-1.98205773957831	-1.17383056432477	587.263308172374	4.00156112097706	24.1998769835685	0.467434863490397	-0.432695219903501	0.00233508053306841	0.00246853616494858
0.51	-2.22273046565704	-1.10984962776557	587.883250723204	3.89810765044693	24.4521082048576	0.46618589726655	-0.435074633804176	0.00215230801893873	0.00284991181879568
0.52	-2.35942592561919	-1.03448949037596	588.643589933726	3.82264521416759	24.6575609798913	0.475403815702318	-0.44779260978607	0.00201544130752407	0.00314171890907861
0.53	-2.3848786673924	-0.957441998784625	589.452135771442	3.7816204264461	24.797078784975	0.496515216039567	-0.471899118193492	0.00193652771797903	0.00331795973699112
0.54	-2.29970185730954	-0.8859826846175	590.208246718354	3.77763016653218	24.8559502824487	0.529126152828801	-0.506743824174492	0.00192113498166868	0.00336087518069211
0.55	-2.11156694094365	-0.825575779602487	590.817860772679	3.80979873929144	24.8257858015336	0.57112209731402	-0.550042792523216	0.00196882251652075	0.00326301054723449
0.56	-1.83513837980945	-0.780714902491603	591.208637152408	3.87420495094864	24.7062961433773	0.619140161260723	-0.598320705392078	0.00207371368574472	0.003029099277227
0.57	-1.4923581545883	-0.75532679747143	591.341833740487	3.9642733338132	24.5064186371375	0.669248458712988	-0.647585734168292	0.00222505293583264	0.00267708428261515
0.58	-1.1121567788318	-0.75241953642424	591.218111580903	4.07119151217243	24.2442169957951	0.717627544363211	-0.694035251609191	0.0024078729765904	0.0022375189704319
0.59	-0.728724757707868	-0.77311840910991	590.875908296889	4.18449672360775	23.9452473696821	0.761085102932815	-0.734608409900917	0.00260401972871038	0.00175092699283896
0.6	-0.378091267778708	-0.815584297442846	590.382847281335	4.29294134578572	23.6395358518265	0.797321872227892	-0.767279256585814	0.00279371115297344	0.00126332673503821
0.61	-0.0936045783072154	-0.874399132496876	589.822227776261	4.38561479068675	23.3577549831693	0.824961707414136	-0.791082681024099	0.00295757042133682	0.00082075623616179
0.62	0.0984624865938301	-0.940807911331276	589.277523150906	4.4531380665957	23.1274202953166	0.843423938070891	-0.805944643515531	0.00307879669243083	0.000463964697411168
0.63	0.181899266254523	-1.00383735889233	588.817896658837	4.48864792555054	22.9698532732971	0.852734851530569	-0.812423563451008	0.00314497021290938	0.000224307454016193
0.64	0.151422926088035	-1.05195515789932	588.487237254576	4.48831229105914	22.8983223832858	0.853354549959575	-0.811460300708289	0.00314903535277933	0.000121357596827798
0.65	0.011634823613869	-1.07475957673929	588.298449019161	4.45126865421449	22.9173480237888	0.846057489462843	-0.804196604913955	0.00308926418347311	0.000162090326655207
0.66	-0.224918201719939	-1.06426235012346	588.23390924044	4.3790893030481	23.0228440066092	0.831871359106385	-0.791878608374933	0.00296836659113175	0.000341032551294695
0.67	-0.539321197899493	-1.01558115311326	588.252142317391	4.27505430975313	23.2027030976838	0.812059998632669	-0.77582937984029	0.00279221754144277	0.000640727107309891
0.68	-0.90672771115073	-0.927137747971528	588.29971975443	4.14357010027421	23.4376178928112	0.788129309006694	-0.757458145567641	0.00256877659881627	0.00103224580452799
0.69	-1.29584911112427	-0.800612276633565	588.326167956378	3.98997529857822	23.7022287777293	0.761832077443506	-0.738270180837784	0.00230762438943444	0.00147607562337193
0.7	-1.6686494805752	-0.640867774888151	588.298497626405	3.82076131105973	23.9669129793354	0.735143128846624	-0.719844926867213	0.00202019175671819	0.00192415135108975
0.71	-1.98180507376839	-0.455882125750245	588.211375712156	3.64399192485176	24.2005168457932	0.710173202636611	-0.703757904059243	0.0017203547554685	0.00232381861278463
0.72	-2.19105267418083	-0.256535322936387	588.089482672305	3.46954149976431	24.3740524603434	0.688996772724533	-0.691435376158591	0.00142478791955303	0.00262399018831438
0.73	-2.25839715917909	-0.0560234438083642	587.980453915345	3.30876653664225	24.4649358798535	0.673391526213479	-0.68395051255092	0.00115244434532036	0.00278287355378376
0.74	-2.16075516182851	0.131242945603916	587.939644126462	3.1733994123756	24.4609362314996	0.664522151950786	-0.681793348065905	0.000922799217145887	0.00277576070845315
0.75	-1.89759035068869	0.291197793570849	588.010872592242	3.07374939556709	24.3628303962145	0.662635782506512	-0.684667069910058	0.000752966614238293	0.00260087957969063
0.76	-1.49491072029978	0.41187491765631	588.209165448256	3.01660179003576	24.1849241351831	0.666854784441719	-0.691371432627089	0.000654297737318621	0.0022814675882793
0.77	-1.00377385525364	0.484999191873017	588.511423141936	3.00339759804617	23.9530781365026	0.675143506102374	-0.699824636679275	0.000629391485174602	0.0018630508382218
0.78	-0.492935369662185	0.507098095519743	588.858719727913	3.02927173998924	23.7005158735362	0.684488882440009	-0.707248123827099	0.000670459422627112	0.00140615185954934
0.79	-0.0369780236768091	0.479967975008094	589.170246090358	3.08332214691307	23.4622792272013	0.691281679511062	-0.710501311482501	0.000759671663124628	0.00097590202015746
0.8	0.297384997432347	0.410495530070909	589.365029235051	3.1501459787434	23.2695470893951	0.691833617216838	-0.706516460960815	0.000871576715760658	0.000630890891979985
0.81	0.463558871577722	0.309938138588179	589.384897113663	3.21232831611443	23.1450359306075	0.682933017546989	-0.692759153666407	0.000977119565902185	0.00041377033246498
0.82	0.442962032220269	0.192783303101233	589.211669459538	3.25331653510973	23.1003692733277	0.662337785953497	-0.667634818253562	0.00104836135208752	0.000345598730971952
0.83	0.24685119439985	0.0752777732386057	588.87338951274	3.26003257154513	23.1357500703448	0.629127859562813	-0.630776948365082	0.00106285150724172	0.000424846636555787
0.84	-0.0880041061671798	-0.0262913131926322	588.437889635965	3.22467746622109	23.2416723091184	0.583877862149003	-0.583181078224619	0.00100674522839317	0.00063073405842784
0.85	-0.508300895371753	-0.0974257407056597	587.995888994193	3.14542305992009	23.4019425843292	0.528648155800432	-0.527178615177249	0.000876130528847274	0.000929514093689743
0.86	-0.955284237236427	-0.127118562706629	587.638857371526	3.02598286964923	23.5970710643421	0.466815610494022	-0.466265388800714	0.000676503785419502	0.00128175155265253
0.87	-1.37511818928613	-0.109117609595527	587.438109998354	2.87431829108637	23.8071696638957	0.402770432793349	-0.4048065338396	0.000420767726588611	0.00164869215685814
0.88	-1.72627191505267	-0.0424650608971042	587.430734297186	2.70089720024642	24.0138105112912	0.341499193379268	-0.347635996379029	0.000126405664302109	0.00199640824983766
0.89	-1.98274683697332	0.0688142539968388	587.615409369225	2.51694785664129	24.2007337274539	0.288070142479138	-0.299566050343611	-0.000187447021049558	0.00229731646046027
0.9	-2.13325967558595	0.216756988224216	587.957921300033	2.33305277837096	24.3537095776975	0.247047150143196	-0.264830899940544	-0.000502448606351957	0.0025295893307356
0.91	-2.17759501267824	0.390885885590924	588.403349065603	2.15825040322644	24.4601313461753	0.221886474298003	-0.246513416949664	-0.000802700500496134	0.00267563764279644
0.92	-2.12196753074546	0.579557409963766	588.890410696253	1.99962023335379	24.508963599684	0.214406677013354	-0.246038740727095	-0.00107559741113517	0.00272102800036145
0.93	-1.97525532298396	0.770867341546777	589.363663675265	1.86218255700533	24.4914819665285	0.224446648084278	-0.262845495067247	-0.00131212143048554	0.00265487266865205
0.94	-1.74740806507843	0.953021884119484	589.780828155237	1.74889165866837	24.4028700008331	0.249818467786357	-0.294343544775921	-0.0015069267946024	0.0024719984657719
0.95	-1.45037002174507	1.11442155144064	590.114653160309	1.66055463003335	24.2443010045375	0.286609805110421	-0.336222860722224	-0.00165849338853985	0.00217631547875269
0.96	-1.100777544448	1.24394309646897	590.350592555641	1.59564044689828	24.0247787316083	0.329803542178189	-0.383095356684489	-0.00176942141367153	0.00178407929089514
0.97	-0.722846507622574	1.33189316581683	590.482511875647	1.55009651258951	23.7618861222484	0.374089109653807	-0.429355095111375	-0.00184669120239001	0.00132545888550378
0.98	-0.349580725792263	1.37180108382647	590.508607759616	1.51739053040121	23.4807818296818	0.414678176388818	-0.47006866136498	-0.00190154107962115	0.000843140895734895
0.99	-0.0208816543728209	1.36271902746592	590.42899945854	1.48899026660696	23.2112693681855	0.44793539259563	-0.501689113226146	-0.00194861699196802	0.000387565050516347
1	0.221758808193145	1.3112296204552	590.245513899555	1.45537210141819	22.9833995876668	0.471697310164312	-0.522435788688347	-0.00200424322846282	9.52270369186659e-06
1.01	0.342908565500004	1.23217411563357	589.963391054418	1.40745237961631	22.8226242689959	0.485256136023855	-0.532283139786205	-0.00208398904703921	-0.000248151596429158
1.02	0.320974441647731	1.14735973246721	589.594111809202	1.33814117645453	22.7457663138434	0.489088577499812	-0.532617696267373	-0.00220003218832232	-0.000357605577820497
1.03	0.153519823578619	1.08214064788444	589.1582518734	1.24360930640219	22.758880060191	0.484473539113727	-0.52571030919765	-0.00235900601927852	-0.000309818900992909
1.04	-0.141835280171757	1.06055566421051	588.687138124079	1.12389121845631	22.8574840893795	0.473144477377034	-0.514180386761754	-0.00256096719878585	-0.000114368589723246
1.05	-0.531409878353787	1.10031211348588	588.222180587097	0.982622861872659	23.0288691602133	0.457068823042734	-0.500594138220008	-0.00279982610259799	0.000204476833420619
1.06	-0.973061620169117	1.20905660984831	587.811203719257	0.825982728618989	23.2555183519707	0.438366811937138	-0.487260000250967	-0.00306512910528789	0.000613765200910166
1.07	-1.42476446943799	1.38299067876147	587.501952979019	0.661172886331058	23.5183940854404	0.419311940025482	-0.476196903341668	-0.00334462741959574	0.0010778614267033
1.08	-1.8512327890536	1.60812831341142	587.334019717625	0.494942108840228	23.7990643876435	0.4023223783806	-0.469189185884321	-0.00362678579567599	0.00156262056930523
1.09	-2.22656508455095	1.86366330606023	587.331286220378	0.332642764420234	24.0802669319427	0.389864514504462	-0.467824987902377	-0.00390239917217405	0.00203690556469321
1.1	-2.53265410665841	2.12633380859422	587.497177654675	0.178117893332137	24.3452759849809	0.384234428005636	-0.473441787025288	-0.00416481237618127	0.0024718997408581
1.11	-2.75500309721447	2.37452686919617	587.814290935559	0.0343988532605378	24.57701069741	0.387238497531251	-0.486956554311347	-0.00440876981240079	0.00283967971631099
1.12	-2.87875787080539	2.59115175837103	588.248543045043	-0.0951274042372597	24.7579474200419	0.399839475185409	-0.508615925982301	-0.00462846420837426	0.00311282265592228
1.13	-2.88765377798609	2.76486138278488	588.756402792649	-0.20562682227623	24.8715108374158	0.421856604631596	-0.537744035273233	-0.00481570015927535	0.00326627798257162
1.14	-2.76718480169654	2.88977951205034	589.292710994006	-0.29035543678697	24.9048818643757	0.451804862210858	-0.572580828510037	-0.00495910432276514	0.00328156659725787
1.15	-2.51121243534163	2.9642931723095	589.81651943357	-0.341181690571354	24.8523972505076	0.486933484641481	-0.610289787370489	-0.00504498684431465	0.00315209293690438
1.16	-2.12936967794193	2.98959178803906	590.293339397337	-0.35011666053077	24.718269159125	0.523485303231437	-0.647176623829627	-0.00505989965652254	0.00288754057038526
1.17	-1.6518362543369	2.96849603439487	590.693808251999	-0.311518559834446	24.5174327947545	0.557154422899995	-0.679110254093536	-0.00499433784808057	0.00251534984705348
