Time [s]	GRFml [N]	GRFap [N]	GRFv [N]	Mml [N.m]	Map [N.m]	Mv [N.m]	Mfree [N.m]	COPml [m]	COPap [m]
0.01	-1.59203319046061	0.0488429309481599	572.789524219453	-5.2103246835537	12.9943070621544	0.633590326756446	-0.620274512735081	-0.00457791643933092	0.00868020640680905
0.02	-1.73002877736651	0.410969863908693	573.819900658199	-5.20940892645437	13.1510051092055	0.601968076804427	-0.595932626014702	-0.00455958502729248	0.00890806460331295
0.03	-1.80883497709104	0.733991958876857	574.770567381351	-5.20455220480584	13.2828679852137	0.575981084402723	-0.576820720865016	-0.00453549117120577	0.00909594696755123
0.04	-1.78395916369076	0.98727951577802	575.574543586307	-5.19226342403902	13.3692758746329	0.560324649768858	-0.567294520473293	-0.00450049903627603	0.00921070348178521
0.05	-1.6358144748975	1.1530379658604	576.180044389293	-5.16904684548243	13.3955974342202	0.557515005425538	-0.569612377072726	-0.00444927011741902	0.00922895467356682
0.06	-1.37287183899042	1.22841359334726	576.555665775911	-5.13162858241834	13.3546021777188	0.567497198761305	-0.583567093348678	-0.00437657517872836	0.00913932566011066
0.07	-1.02735649880007	1.22404140096623	576.693305454992	-5.07752082478302	13.2468411872337	0.587854244589693	-0.606702450445048	-0.00427821754406166	0.00894298985384823
0.08	-0.645389979533689	1.15971640710593	576.607905881118	-5.0057804948872	13.0801174405143	0.614475690643341	-0.63497074468599	-0.00415234006110377	0.00865277338169862
0.09	-0.275010113710705	1.05866259683672	576.333772446131	-4.91773537825481	12.8683188109496	0.642450944508191	-0.663599505268246	-0.00400073389689981	0.00829130482037582
0.1	0.0442184540951104	0.942131393915568	575.91809800147	-4.81745185497961	12.6299051769167	0.666959816376831	-0.687946374917866	-0.00382975289209853	0.00788868640226098
0.11	0.287247925486435	0.825745688856848	575.413043310328	-4.71178017619338	12.3862322506792	0.684006441687704	-0.704196557251951	-0.00365052767349561	0.00747993953797854
0.12	0.444242842996625	0.718294682605174	574.868034793571	-4.60990147680375	12.1597436755166	0.690927555485094	-0.70984187376765	-0.00347831589611935	0.00710219925408251
0.13	0.516798273070444	0.622863964715239	574.323788673982	-4.52239143452507	11.9719807060205	0.686660157826407	-0.703932904773189	-0.00333098098509799	0.00679149637369358
0.14	0.511893584670657	0.539520080914979	573.80906541113	-4.45990006541495	11.8414135277677	0.671769299253102	-0.687108417326416	-0.00322674682873059	0.00657908769331722
0.15	0.436209708697734	0.468421936970367	573.340493887086	-4.43162354128114	11.781271101314	0.648236517879099	-0.661401821634642	-0.00318152370999236	0.00648763119230999
0.16	0.292901030382076	0.412241149399113	572.925158945331	-4.44380478479476	11.7977378116909	0.619023942659924	-0.629833827069995	-0.00320622423704198	0.00652787231505592
0.17	0.0817367633329108	0.377081840288934	572.565125015279	-4.49852850079386	11.8889688885683	0.587472647686222	-0.595839623780474	-0.00330455402692054	0.0066966809993626
0.18	-0.197796857633942	0.371586819914338	572.26271710858	-4.59305506801512	12.045270813338	0.556653169404008	-0.562636500875752	-0.00347173502788012	0.00697711040499005
0.19	-0.54184509238559	0.404472774041689	572.025226395551	-4.71985872309229	12.2505098735913	0.528827392168456	-0.532681651803755	-0.00369448382570448	0.00734065605983586
0.2	-0.937800334397475	0.481223187995783	571.867788660522	-4.86740926165891	12.4844577937436	0.505170983932251	-0.507366754525552	-0.00395234057028537	0.00775126288590178
0.21	-1.36178664823171	0.600967117794724	571.81352555346	-5.02159002395898	12.7255084251605	0.485833394422591	-0.487032829875986	-0.0042201746211713	0.00817012157064484
0.22	-1.77896874418503	0.754596006212871	571.890607637647	-5.16751321242729	12.9531255818231	0.470299578813423	-0.471283716098755	-0.00447144533032517	0.00856013268750744
0.23	-2.14684133113834	0.924886674728677	572.126583606142	-5.29140982551848	13.1495436464066	0.457909371721869	-0.459470949551006	-0.00468163363563401	0.00888916513279986
0.24	-2.42094429614017	1.0888572586191	572.540962850114	-5.38225888463804	13.3005705604262	0.448333775189784	-0.451162161986155	-0.00483122761406163	0.00913178337470799
0.25	-2.56195963219376	1.2219270362152	573.137492146785	-5.43288612900341	13.395697411188	0.44182751918204	-0.446415753699512	-0.00490775763676121	0.00926972792021041
0.26	-2.54289845526373	1.30288465990208	573.897743765336	-5.44039289221149	13.4279523620596	0.439165495361532	-0.445761882572367	-0.00490661119940494	0.0092918489448825
0.27	-2.35504668840556	1.31838695096814	574.7775117944	-5.40593892455644	13.3939569969894	0.441289997662188	-0.449901378049291	-0.00483065439645636	0.00919424991043727
0.28	-2.01148044135773	1.26581758514796	575.707127099628	-5.33405336049925	13.2944498700713	0.448799121823043	-0.459236222126254	-0.00468896379645212	0.00898108899510275
0.29	-1.5472937913803	1.1537992654148	576.596213930039	-5.23174103077714	13.1352219812487	0.461458252939604	-0.47340195229106	-0.00449514725240907	0.00866595547609933
0.3	-1.0162112326096	1.00031476976056	577.3427118045	-5.10765745768771	12.9280962322444	0.477904431606316	-0.490969126370585	-0.00426575087129955	0.00827321389226776
0.31	-0.483936249159177	0.829030755409427	577.845275512692	-4.97154265487464	12.6914039738439	0.495649798208358	-0.509426135972109	-0.0040191063952234	0.00783840800876373
0.32	-0.0192780234100187	0.664838531401899	578.017536207014	-4.83395884271625	12.449438417544	0.511401694302354	-0.525472397317486	-0.00377471734798773	0.00740686529321627
0.33	0.315397365571263	0.529725118749771	577.802229342987	-4.70622059747029	12.2305932881402	0.52163122297502	-0.535565949737434	-0.00355300345438792	0.00703003847157568
0.34	0.472698704454859	0.439873513698563	577.18293324538	-4.60029425839766	12.0642538796328	0.523259835754832	-0.536604102218925	-0.00337502276008672	0.00675974375174077
0.35	0.42630152961391	0.40445739311362	576.191194214719	-4.52841923097974	11.9768848918673	0.51430619934326	-0.526582899354067	-0.00326174630909615	0.00664111323699962
0.36	0.173770306243298	0.426081087358617	574.907237099283	-4.50227982220835	11.9880396325402	0.494346848451199	-0.505086016402067	-0.00323259357914651	0.00670556828116731
0.37	-0.264005951706436	0.502365833138609	573.453338395337	-4.53171031748525	12.1071128481053	0.464690835279832	-0.47349446886259	-0.00330320750733804	0.00696528540567792
0.38	-0.846270743754264	0.627921901382681	571.980217543606	-4.62309955238044	12.3315425728077	0.428239699085238	-0.434875612941547	-0.00348276781064871	0.00741040436225154
0.39	-1.5178947756189	0.795948895554131	570.648244166199	-4.77781618213807	12.6468650861691	0.389080038646705	-0.393585321158795	-0.00377140660560127	0.00800966977879569
0.4	-2.21596549774046	0.998973858977559	569.606471563112	-4.99105279196537	13.0286245713705	0.35191274475732	-0.354678050490586	-0.00415841461782596	0.00871445477393373
0.41	-2.8766316497556	1.22867791011866	568.973079680068	-5.25145839633282	13.4457460255815	0.32144159635067	-0.323246552172526	-0.00462186376071316	0.00946539211518294
0.42	-3.4415330729933	1.47520905026085	568.820510659799	-5.54179548405519	13.8646995786224	0.301821063043311	-0.303800452959383	-0.00513002735163048	0.0102003285657949
0.43	-3.86329265502351	1.72664266818741	569.167487187858	-5.84064812798902	14.2536803297185	0.296215022437246	-0.299753105294569	-0.00564460568970426	0.0108621391831222
0.44	-4.10965112250839	1.96920510199666	569.978595498822	-6.1249711533604	14.5861073783263	0.306473386303132	-0.313043746369147	-0.0061253501323304	0.011405101867064
0.45	-4.16592431060288	2.18852476256901	571.170690261073	-6.37306464144774	14.8429642198566	0.332917223645091	-0.34390037449488	-0.00653532460404671	0.0117989528576214
0.46	-4.03560296984978	2.37167109704098	572.624424441847	-6.56743470532515	15.0137858640545	0.374239951613337	-0.390754828656887	-0.0068458398972453	0.0120302825345786
0.47	-3.73910891455332	2.50931890575973	574.198842619722	-6.69699407453075	15.0963710506581	0.427563084913372	-0.450340668410536	-0.00704010158850921	0.0121014504279997
0.48	-3.31093668794658	2.59723996982276	575.747057633679	-6.7581731791944	15.0955073310082	0.488697278784877	-0.518009223178415	-0.00711484051260058	0.0120276016455337
0.49	-2.79559668074371	2.63654818004743	577.131299159326	-6.75473518514271	15.0211176343261	0.552629010859726	-0.588268558076319	-0.00707960862767187	0.0118326070288446
0.5	-2.24289596009836	2.63260979717674	578.235886662769	-6.69637120042625	14.8862665149226	0.614183202730441	-0.655486178613938	-0.00695393676144629	0.0115448161440877
0.51	-1.70313196117086	2.59305710779626	578.976912160583	-6.59642859619788	14.7054108001594	0.668734112767293	-0.714626885693069	-0.00676304147066975	0.0111934133057919
0.52	-1.22272906959558	2.5256786171844	579.30772698522	-6.46932345042314	14.4931554418601	0.712794428754567	-0.761861239332989	-0.00653310417332309	0.0108059199827669
0.53	-0.84071900822205	2.43696417640818	579.219826665091	-6.328248551131	14.2636004076711	0.74433518068998	-0.794904374879289	-0.00628722406890614	0.0104070287564685
0.54	-0.586264349522986	2.33177069413203	578.739425452998	-6.18368574012604	14.0301719728916	0.762774065651757	-0.813026738170169	-0.00604292937983342	0.0100185545366069
0.55	-0.477193666834261	2.21408609223742	577.920769816593	-6.04298557763818	13.8056722629684	0.768682097428769	-0.816785063184468	-0.00581166512858455	0.00965995332018632
0.56	-0.519335450863308	2.08840904557321	576.837832027054	-5.91095288121774	13.6022112629529	0.76334910385163	-0.807607517952807	-0.00560008429481984	0.00934870350349959
0.57	-0.706388146866407	1.96100890344138	575.576231353265	-5.79106830379812	13.430744822749	0.748379096526787	-0.787395211634652	-0.0054124258924555	0.00909994801584552
0.58	-1.02017843769393	1.84037498484158	574.226925046612	-5.68678258831156	13.3001251201252	0.725447133062644	-0.758264217943019	-0.0052529422113522	0.00892514834598118
0.59	-1.43138700124052	1.73648384878914	572.88241473406	-5.60231210569619	13.2158161166096	0.696261356957909	-0.722468801972897	-0.00512735618927662	0.00882998876432411
0.6	-1.90103481114137	1.65898343016892	571.635113079633	-5.54255497921287	13.1786376195299	0.662677793863402	-0.682456560487358	-0.00504270134709006	0.00881220250563836
0.61	-2.38308360340254	1.61483602607979	570.576446267186	-5.5120790598323	13.1839839138416	0.626851178431053	-0.640947772419763	-0.00500550809176081	0.00886018744418393
0.62	-2.82833139748177	1.60620954767222	569.794641052526	-5.51349160834708	13.2218728591028	0.591295387580182	-0.600925351237535	-0.00501894015408233	0.00895314199312885
0.63	-3.18940716459937	1.62936175803259	569.369311421641	-5.54575482411336	13.2779488669271	0.5587704256859	-0.565465577226148	-0.00507991860901613	0.00906302400442072
0.64	-3.42622402097477	1.67493972531827	569.362041730348	-5.60306695504824	13.3352797918225	0.531987386898659	-0.53741106993672	-0.00517733493120687	0.00915807816334824
0.65	-3.51092601657815	1.72963910662267	569.803928668905	-5.67476755735505	13.3765642566527	0.513197504641409	-0.51895630415653	-0.00529212718338601	0.00920720167992894
0.66	-3.43131746906787	1.77871948969579	570.682909524113	-5.7464121354205	13.3862824552647	0.503779305044903	-0.511257286469926	-0.00539940366977576	0.0091841937226757
0.67	-3.19204986188982	1.80862432376889	571.9349106367	-5.8018130100652	13.3523971935013	0.503944822061082	-0.514178728365255	-0.00547216792855632	0.00907102348195021
0.68	-2.81337935555265	1.8089945758924	573.442773032892	-5.82557941863295	13.2673958905891	0.512653031569152	-0.526256929346438	-0.00548574797762169	0.00885959494481353
0.69	-2.32791056802757	1.77366201118798	575.045366382238	-5.80558693333555	13.128674762468	0.527759910678512	-0.544898762073266	-0.0054218946736857	0.00855193741134735
0.7	-1.77618947302016	1.70062439538366	576.556683340348	-5.73487467633458	12.9384227652166	0.546370183197881	-0.566776077603774	-0.00527169433664998	0.00815914389948047
0.71	-1.20213964602539	1.59136099852986	577.791874078185	-5.61265864237065	12.7032199758548	0.565305858093676	-0.588328793722332	-0.00503683113136	0.0076995945768833
0.72	-0.649121327179479	1.44999896090384	578.595120415358	-5.44437868882623	12.4335251487523	0.581584577742472	-0.606270641123349	-0.00472917042246113	0.00719700125561784
0.73	-0.156946924744705	1.28274422808657	578.86366101268	-5.24088820315607	12.1431287100225	0.592809801842193	-0.618001272143978	-0.00436896782246832	0.00667863451040956
0.74	0.240280036500808	1.09771302342343	578.563296847884	-5.01700626758993	11.8485410801227	0.597408085268605	-0.62186041713242	-0.00398216634169057	0.00617383875863931
0.75	0.515912503257659	0.904984301249774	577.732875061453	-4.78968331707059	11.5682123638841	0.594693292756869	-0.617202145494312	-0.00359724200183742	0.00571270201126045
0.76	0.65247641607055	0.716489227065998	576.477763201197	-4.57601480231487	11.3214585512877	0.584780505551385	-0.604308393152041	-0.00324197320939734	0.00532460258717921
0.77	0.64343733628489	0.545350892328584	574.954389044969	-4.39131050611492	11.1270051606587	0.568404447797114	-0.584192714111162	-0.00294042467690847	0.00503634664608121
0.78	0.494683227683455	0.40448641014185	573.34905310418	-4.24740973575938	11.0011461148053	0.546713334995905	-0.558363035862484	-0.00271039630877279	0.00486974403184598
0.79	0.225075247102697	0.30460287449743	571.854377624797	-4.15141926082294	10.9556409223818	0.52110582818958	-0.528612493481566	-0.00256157909705301	0.00483871637003397
0.8	-0.134619013223136	0.252032953211908	570.646248950846	-4.10502072877874	10.9956136777659	0.493154370981895	-0.496887385141402	-0.00249463573745812	0.00494632627012837
0.81	-0.544792779032077	0.247042666524447	569.863397018048	-4.10443070328658	11.1178363883943	0.464615411896537	-0.465242438061173	-0.0025013400794347	0.00518236815247908
0.82	-0.961885443915569	0.283223578446218	569.591213237428	-4.14100332099145	11.3098319026359	0.437477729042796	-0.43584634511882	-0.00256576289154398	0.00552227210015471
0.83	-1.34426988780846	0.348340804987495	569.851181976085	-4.20236885397113	11.5501795068473	0.413964989543068	-0.410964489571077	-0.00266632401436695	0.00592797104326043
0.84	-1.65786951475982	0.426604415110896	570.597275910864	-4.27393431747447	11.8102342736053	0.39640949066788	-0.392842121787955	-0.00277840509115135	0.0063510549720332
0.85	-1.88016217695199	0.50188079138589	571.720544511973	-4.34055333695798	12.0572015847623	0.386960526635109	-0.383450324102393	-0.00287717442841984	0.00673804413292961
0.86	-2.00162440655857	0.561008854827138	573.062573964604	-4.38819356643522	12.2582006470512	0.387170770438059	-0.384128492893524	-0.00294031111139748	0.00703708201366737
0.87	-2.02443316185068	0.596270263875099	574.437308051744	-4.40546267596518	12.384687890139	0.397583841303557	-0.395230062886036	-0.00295038508333656	0.00720493420171581
0.88	-1.95910745104256	0.606260528972721	575.658950691471	-4.38487133487133	12.4164721277688	0.417484543615428	-0.415914578050097	-0.00289670517886487	0.00721301464660679
0.89	-1.82039974940453	0.594895157901593	576.571717054292	-4.32370860175989	12.3445861779216	0.444942253756068	-0.44420296462697	-0.00277647124671188	0.00705130836494444
0.9	-1.62387115869252	0.568919794131326	577.075739972155	-4.22440224227459	12.1724830702338	0.477180468042866	-0.477326133313012	-0.00259508327449565	0.00672948380426436
0.91	-1.38414388794605	0.534849311450749	577.143219514934	-4.09426400136405	11.9153488625861	0.5111782004906	-0.512282767206532	-0.0023655109938806	0.00627506817149753
0.92	-1.11500874516022	0.496507070252664	576.820412893527	-3.94459444402876	11.5976867341039	0.544307646016222	-0.54643081047744	-0.00210673488957003	0.00572913358748911
0.93	-0.830734230956283	0.45413786966352	576.214214006418	-3.78923327977966	11.2496417400652	0.574786754412533	-0.577913376096286	-0.00184141902536061	0.00514036633002807
0.94	-0.547440456502013	0.405464346527174	575.46609258005	-3.64275650261121	10.9027355831457	0.601793303207481	-0.605780045680347	-0.0015931234012353	0.00455858314009611
0.95	-0.283457984158351	0.348262517330357	574.719777931232	-3.51860408041256	10.5857339701524	0.625224397322276	-0.629787205993175	-0.00138346190074656	0.00402871323502646
0.96	-0.0581260275734641	0.283364825496995	574.090970938129	-3.42744637397042	10.321281244006	0.645233836778409	-0.649994117553591	-0.00122963432633882	0.00358604195634943
0.97	0.110775033552946	0.216743992327806	573.646755870946	-3.3760568980428	10.1237439386509	0.661773098631694	-0.666355385113336	-0.00114270350135626	0.00325320206225138
0.98	0.210150326258673	0.159614692715095	573.399369949267	-3.36686058215428	9.99845874993886	0.674356430307593	-0.678506445638132	-0.00112685953867719	0.00303908492240706
0.99	0.234228303837312	0.12621981697649	573.314593488852	-3.39818710345627	9.94233290728744	0.682167695938845	-0.685847341182941	-0.00117972762722474	0.00293957606317291
1	0.185846386144992	0.129867146105117	573.330782249997	-3.46510430003515	9.94553498356026	0.684471496447655	-0.687892055673848	-0.00129355887361415	0.00293980808056055
1.01	0.0760121401724651	0.178502822731175	573.3818952904	-3.5605736566766	9.99386439727058	0.681151873542953	-0.684727237275842	-0.00145694257931506	0.00301745721776825
1.02	-0.0780505633947953	0.27136911460241	573.41752141515	-3.67660026766352	10.0713103193773	0.673137881363562	-0.677368166164208	-0.00165655801387332	0.00314648369741766
1.03	-0.255702956584784	0.397988786602537	573.414722674095	-3.80507674239239	10.1623155510967	0.662511224147608	-0.667832991315118	-0.00187850537159551	0.00330065541686486
1.04	-0.435682494824819	0.539953229870997	573.379622630711	-3.93815090292732	10.2533581659371	0.652209240177255	-0.658861878555731	-0.00210894225370617	0.00345625017681883
1.05	-0.59814912143075	0.67504524593584	573.339918070861	-4.06814891916532	10.3336529000028	0.645387458450837	-0.653341188555342	-0.00233406232544975	0.00359354464750189
1.06	-0.725638768465277	0.782446471093431	573.331902390339	-4.18729057968328	10.3950280086374	0.644631211742092	-0.653601990319806	-0.00253977982819109	0.00369705611427867
1.07	-0.803094399134094	0.847445970608044	573.386611756993	-4.28755749141485	10.4312882368746	0.651260361481757	-0.660807828878903	-0.00271168721870951	0.0037549139037435
1.08	-0.81760740653801	0.864290446100461	573.519280012101	-4.361051701389	10.4375431741092	0.664938764372771	-0.674615409435516	-0.00283581852924542	0.0037580495972811
1.09	-0.758713091987834	0.836495546713871	573.724738348617	-4.40099763956857	10.4099843263417	0.683696696764828	-0.693199128059071	-0.00290045019830065	0.00369995946088508
1.1	-0.619908435146033	0.774802663243317	573.979282298799	-4.40325061751908	10.3464050798653	0.704340615550202	-0.713612872504314	-0.00289869519458907	0.00357753826943774
1.11	-0.401497920194755	0.693692007625479	574.24750591836	-4.3678929504262	10.2474216792962	0.723109397323401	-0.732363640039742	-0.00283118274896166	0.00339296843941161
1.12	-0.11409509343115	0.607701962033949	574.491269346258	-4.30034856822713	10.1179860770538	0.736378442256105	-0.746024787025574	-0.00270787327387112	0.00315605320783935
1.13	0.218577406695767	0.528675743124791	574.677700459809	-4.21150842452197	9.96852945559803	0.741227535191546	-0.751733584023642	-0.00254816893851417	0.00288595013888843
1.14	0.559203083688184	0.464562488726396	574.783959138585	-4.11662645280585	9.81505796394998	0.735761971592327	-0.747484689030014	-0.00237893392967592	0.00261119961873485
1.15	0.859931877332007	0.419766083382825	574.798051524362	-4.03312602967635	9.67777913009986	0.719175453615765	-0.732216907158318	-0.00223067695081036	0.00236733384250365
1.16	1.06922206981029	0.396504440815062	574.716643566635	-3.97780716146181	9.57830149811874	0.691627982306702	-0.705759770820085	-0.00213273255293178	0.00219210056397534
1.17	1.1413961974707	0.396381297983625	574.541940488884	-3.96413308194954	9.53596300342249	0.654052424376849	-0.668733683601358	-0.00210858806575176	0.00211918989008569
