Time [s]	GRFml [N]	GRFap [N]	GRFv [N]	Mml [N.m]	Map [N.m]	Mv [N.m]	Mfree [N.m]	COPml [m]	COPap [m]
0.01	0.426166103545048	1.53341022765498	888.777721163997	-5.87208150323763	13.208081806883	1.18050503889746	-1.2060877525653	-0.00092378057276854	-0.0136138783989477
0.02	0.540217024007303	1.44186000644449	889.390821059796	-5.8880616319958	13.2841371079868	1.16276741492333	-1.18783887463763	-0.000934167798815611	-0.0135375926664204
0.03	0.647897775598465	1.36833131058059	889.84668861761	-5.90909541437805	13.3552297572251	1.14548078896817	-1.17028063084638	-0.00095134260945462	-0.0134642886425176
0.04	0.741590678128862	1.32916695239158	890.016861985997	-5.93968124928105	13.418237528016	1.12891534899857	-1.15388489866326	-0.000981279663134327	-0.0133953410765989
0.05	0.817201730810131	1.3371640428025	889.820820352456	-5.98230568094	13.4717635152306	1.11389802607826	-1.13964736380529	-0.00102737431330657	-0.0133309614141919
0.06	0.875382946083251	1.39993753697517	889.235689262816	-6.03675161799233	13.5159439064984	1.10189282990214	-1.12915071376784	-0.00108959277851728	-0.0132705804317009
0.07	0.921703059215875	1.5184889226486	888.295224468847	-6.0999083498688	13.5516821845405	1.09482228676384	-1.12436571406048	-0.00116425036214463	-0.0132137074277516
0.08	0.965845889409724	1.68639046734542	887.080020923394	-6.16618428075478	13.579673987236	1.09468753868675	-1.12725471750854	-0.00124452227703964	-0.0131608826913611
0.09	1.01998975403502	1.88994069056113	885.702417575225	-6.22851577141563	13.5996958011055	1.10310000272462	-1.13929678200354	-0.00132166368188424	-0.0131142405608928
0.1	1.0964927661025	2.10940627290207	884.28972114927	-6.27983044129902	13.6105464178544	1.12084943370177	-1.16106117884253	-0.00138676296636497	-0.013077298955136
0.11	1.20501369716933	2.3211829010957	882.968510537374	-6.31469806831605	13.6107922736474	1.14760363706066	-1.19192189731614	-0.00143271418794877	-0.0130538487760037
0.12	1.34934620445245	2.50052816539453	881.851569965596	-6.33082696564889	13.6001627174594	1.18178228487801	-1.22995133871339	-0.0014560126398272	-0.0130461453752983
0.13	1.52452921424742	2.62450298005225	881.028028024373	-6.33006340977289	13.5811679565783	1.22059765332695	-1.27198402889259	-0.00145797813999626	-0.0130529005460779
0.14	1.7150789467809	2.67485157341467	880.556828389137	-6.31862795776708	13.5603570671054	1.2602298532609	-1.31382017527695	-0.00144509602839094	-0.0130677427882525
0.15	1.89526549336717	2.64063650765742	880.463637238202	-6.30645756616428	13.5486510236275	1.29610871088335	-1.35054616183104	-0.00142831807183841	-0.013078791377001
0.16	2.0320771539949	2.52042797252005	880.741373609165	-6.30569006883375	13.5603870602974	1.32329622820615	-1.37696905099601	-0.00142135717838343	-0.013069758690067
0.17	2.09087236972246	2.32372042688723	881.354383467639	-6.32850194519913	13.6110561608958	1.33697918949893	-1.38817111451488	-0.00143821294289004	-0.0130225960796633
0.18	2.04287386456848	2.07111223867149	882.245703514383	-6.38466693351137	13.7141186159768	1.33307032940262	-1.38017028954076	-0.00149035104677964	-0.0129212288363996
0.19	1.87288743243306	1.79278126515862	883.346011651606	-6.47931362186715	13.8776270121978	1.30887321899891	-1.35062235929544	-0.00158409359680545	-0.0127555215494585
0.2	1.58521606346119	1.52502582114601	884.582137837127	-6.61138984152488	14.101555418966	1.26370609287748	-1.29944014177564	-0.00171881632099313	-0.0125244155946721
0.21	1.20588687365964	1.30510655499264	885.88289895953	-6.77325724923098	14.3766496011147	1.19933395265415	-1.22916655807876	-0.00188645115133712	-0.0122372813865916
0.22	0.78004993975483	1.1651824011866	887.180833377268	-6.95162868443732	14.6852699767274	1.12005755830151	-1.14495179872067	-0.00207254414492652	-0.0119129385925391
0.23	0.364592931232255	1.12656963444183	888.410045401325	-7.12975283829215	15.0041783911228	1.03236652283194	-1.05405978749614	-0.00225875422142185	-0.0115764203663834
0.24	0.017332387019666	1.19567152363416	889.502263445276	-7.29042123806374	15.3086735093005	0.944168749026737	-0.964947295008774	-0.00242628922852273	-0.0112542087177441
0.25	-0.214794424844995	1.36263786138771	890.384530343218	-7.41912432258779	15.5770809952991	0.863723702596262	-0.88607941669515	-0.00255948580825105	-0.0109691362397045
0.26	-0.305644950458822	1.60317940831856	890.981941439856	-7.50660757729588	15.7944858886948	0.798489428781501	-0.824722387489364	-0.00264865703784578	-0.010736273627041
0.27	-0.255309544523529	1.88317278504574	891.227261028564	-7.55021569603007	15.9547984564829	0.754113000830486	-0.78596017309328	-0.00269150365688686	-0.0105608527682678
0.28	-0.0895271069826952	2.16499413587146	891.076478916491	-7.55373239374854	16.0607104680681	0.733747637169494	-0.772115367497186	-0.00269277227480891	-0.0104386908305255
0.29	0.146953600055543	2.41412573520829	890.526377899433	-7.52583349748205	16.1216855029331	0.73778884605362	-0.78264490024572	-0.00266233393671256	-0.0103588603924019
0.3	0.401504818691126	2.60458938886044	889.628148030632	-7.47764766655337	16.1506612732844	0.764021513064852	-0.814466859395051	-0.00261229873334134	-0.0103077121015616
0.31	0.626430053505119	2.72214135391144	888.490948311026	-7.42014728449879	16.1604704329009	0.808091711544677	-0.862591564925803	-0.00255403872246851	-0.0102729893417627
0.32	0.790083752315825	2.76477860468107	887.271406640273	-7.36210016770571	16.1610171280299	0.86417846029539	-0.920896169717655	-0.00249597935081747	-0.010246786807386
0.33	0.883261296882377	2.74077412713535	886.148902538615	-7.30909533727906	16.1579734870771	0.925741250303116	-0.982895963346878	-0.0024427375886853	-0.0102264931155471
0.34	0.919019974625245	2.66501210942718	885.290955900639	-7.26377901481937	16.1532647170551	0.986245418262733	-1.04241086172299	-0.00239571803690775	-0.010213507157833
0.35	0.925902607839187	2.55471491556056	884.816698435463	-7.22702193918045	16.1470409204042	1.03980144405502	-1.09408020109488	-0.00235477673848972	-0.0102102345537564
0.36	0.936489718011814	2.42568730168717	884.767960293835	-7.19942784700253	16.14036067504	1.08168186745991	-1.133723814092	-0.00232019749380574	-0.010216435503233
0.37	0.974725069411803	2.28995671936466	885.096309614568	-7.18249849396383	16.1375826500746	1.10869482639979	-1.15857163445127	-0.00229413022252045	-0.0102262303802019
0.38	1.0460199872724	2.15522856367683	885.670640828303	-7.17893208604095	16.1475521734077	1.1193982042718	-1.16738634529072	-0.00228085765399411	-0.0102268933003324
0.39	1.13346577332058	2.02601987848029	886.30463190304	-7.19189383253994	16.1830565678179	1.11413969738178	-1.16049007529145	-0.0022857136804405	-0.0102000216026882
0.4	1.20167923886815	1.90583258331062	886.798091772726	-7.22352476510604	16.2585877118035	1.0949134811261	-1.13968793773013	-0.00231300861307204	-0.0101249231906326
0.41	1.20738742518523	1.79942073075685	886.982428657899	-7.27328364027383	16.3870132696716	1.06503952881943	-1.10807101626437	-0.00236372399279494	-0.00998334648235971
0.42	1.11360297868721	1.71419144223303	886.759264199074	-7.33681719337455	16.5761364054488	1.02869872601082	-1.06968919287606	-0.00243386614370333	-0.00976421828039425
0.43	0.90293058577774	1.66007035873381	886.122905965867	-7.40588430550863	16.8261927178057	0.99039073211371	-1.0291119304696	-0.00251416222809919	-0.00946700269560313
0.44	0.585666388016693	1.64767987062041	885.161462258493	-7.46948379575622	17.1290693314184	0.954409791324223	-0.990933385791802	-0.00259132100835513	-0.00910266869458304
0.45	0.199911176070653	1.68526561760482	884.036711269667	-7.51589892697605	17.4695206886593	0.924440441740373	-0.959308528700233	-0.00265053662250747	-0.00869193794271428
0.46	-0.196580606791108	1.77527683359295	882.948025057007	-7.53504267529957	17.82806382019	0.903348576952732	-0.937610092867189	-0.00267849059233616	-0.00826126500838098
0.47	-0.540474403491968	1.91170287030748	882.08939687858	-7.52038927916964	18.1847507149936	0.893184623345635	-0.928263372117724	-0.00266595702303651	-0.00783763885708899
0.48	-0.778637558595937	2.0791206731187	881.610019759103	-7.46993824289213	18.5227861154667	0.895342217013117	-0.932755804062357	-0.00260928113537195	-0.00744359704536746
0.49	-0.880902604754861	2.25395633689796	881.587589796806	-7.3860041872231	18.8310496304157	0.910756631914119	-0.951755209319357	-0.00251040445764394	-0.00709372782586792
0.5	-0.8460877930366	2.40784647364917	882.019898217784	-7.27402190256438	19.1049521213671	0.940010194216846	-0.985233417500266	-0.00237559296498435	-0.00679344688752653
0.51	-0.699726599580286	2.51239116980552	882.835284668871	-7.14085733224491	19.3455804517067	0.983249864720387	-1.03250007656928	-0.00221341567123523	-0.00654013567437567
0.52	-0.484580782909281	2.54419770229653	883.917515187766	-6.99322661521389	19.5575902859071	1.03990497961925	-1.09210421455499	-0.00203269852371391	-0.00632604038118378
0.53	-0.247218891921013	2.48903493802482	885.137042294508	-6.83672521705956	19.7466361981894	1.10829048129506	-1.16163789553725	-0.00184110257104353	-0.00614186686535456
0.54	-0.0250246787191156	2.34416734284989	886.37944895345	-6.6757057097133	19.9171904916456	1.18525456558583	-1.23754528040789	-0.00164468978300669	-0.00597989833142842
0.55	0.162361262506121	2.11843152464946	887.563488224504	-6.51391046591385	20.071397557483	1.26604916898593	-1.31507242164927	-0.00144844838897717	-0.00583572118103487
0.56	0.314798599677947	1.83020412764093	888.644954064577	-6.35547556802607	20.2092234638998	1.34455674315627	-1.38847341946597	-0.00125738362520744	-0.00570816592681717
0.57	0.446562808971628	1.50391391213016	889.607399510746	-6.20577243577477	20.3297215768591	1.41391022659548	-1.45152167170258	-0.00107756262325509	-0.00559767900480473
0.58	0.576619756057998	1.16603292345314	890.444907028478	-6.07160051858275	20.4328761201212	1.46742563017649	-1.49828203053032	-0.000916512945323134	-0.00550385131733472
0.59	0.717902868263923	0.841477107694595	891.14437937455	-5.96048120737311	20.5213035705065	1.49966533175301	-1.52401051179407	-0.000782618430646642	-0.00542309607768299
0.6	0.869457324389384	0.551082540336871	891.674469993237	-5.87915445397727	20.6011310967698	1.50739639966745	-1.52599112773394	-0.000683555045902229	-0.00534742110042691
0.61	1.01428299952225	0.310404874345658	891.985477886975	-5.83172080806763	20.6816212253586	1.49021819812109	-1.50411251741793	-0.000624221092176858	-0.00526489144916986
0.62	1.12376383356458	0.12966259933522	892.020260407291	-5.81807238092661	20.7735114840333	1.45070404782823	-1.46103313921417	-0.000604884122483718	-0.00516181809155819
0.63	1.16731684267182	0.0143465741589889	891.731935629944	-5.83323266991073	20.8864838556917	1.39401250021424	-1.40187043172076	-0.000620282415190299	-0.00502609057468101
0.64	1.1240220410281	-0.0340654573488679	891.101363226897	-5.8679760106621	21.02654164194	1.32704423517792	-1.33345342493845	-0.000660165746172447	-0.00485058485052192
0.65	0.992107156806201	-0.0177094089971684	890.147166797648	-5.91070591518818	21.1942222174474	1.25731910498434	-1.26327321127495	-0.000711321878990923	-0.00463539859663631
0.66	0.792599580473793	0.0576324551441218	888.923612335345	-5.95017142270661	21.3844270592612	1.19180072893861	-1.19832897894838	-0.000760659952761533	-0.00438790346277923
0.67	0.565179715455972	0.182296864247068	887.506228719754	-5.97832329641757	21.5882049051905	1.13589374074075	-1.14408627760862	-0.000798565111723049	-0.00412023954483937
0.68	0.356814099471549	0.342785899043627	885.970085735972	-5.99254031802504	21.7961884323257	1.09278753546711	-1.10373811347954	-0.000821608853678546	-0.00384474616517455
0.69	0.206328103698544	0.522617355916073	884.369244266349	-5.99660307439326	22.0027598015829	1.0632385419047	-1.07789776719373	-0.000833829961741306	-0.00356864149277614
0.7	0.129810181737677	0.704276930155992	882.726496069728	-6.0001082192096	22.2096363067196	1.04579372221506	-1.0647698285165	-0.000846150549615565	-0.00328972003044675
0.71	0.111935872073628	0.872127315564904	881.039500356331	-6.01641078429311	22.4275970082947	1.03738087790211	-1.06075848482129	-0.000873966358441947	-0.00299471153199893
0.72	0.10674821112445	1.01561936943307	879.303505564661	-6.05955451287681	22.6755514170168	1.03413768356234	-1.06139306793898	-0.00093342932557916	-0.00266121221800175
0.73	0.0485264073486464	1.13178435946926	877.543963729333	-6.14090949418638	22.9769511913904	1.03232359037024	-1.06239118119189	-0.0010373020403861	-0.00226296539013188
0.74	-0.129967363427455	1.22595706154476	875.847095164165	-6.26631857693652	23.3544021520123	1.02915373959972	-1.06064848568342	-0.00119140996279976	-0.0017771152433983
0.75	-0.477207592031497	1.31007537497774	874.375116446861	-6.43443585933483	23.8239451707621	1.02340782683506	-1.0549488096457	-0.00139259882529141	-0.00119130487991265
0.76	-1.00689467088935	1.39865000567166	873.356383216398	-6.63664892583569	24.3906179052505	1.01569796443249	-1.04623296895691	-0.0016287411913487	-0.000508430134131155
0.77	-1.6913793106317	1.50336661592601	873.048267709196	-6.85858656438706	25.0465309292025	1.0083292733441	-1.03734805014412	-0.00188081998353273	0.00025246261045242
0.78	-2.46677250618543	1.62795345592341	873.679706682704	-7.0828300486438	25.7719288480468	1.00475597942306	-1.03231044078763	-0.00212659016934047	0.00105946520588152
0.79	-3.24827461567384	1.76512750912585	875.387823141119	-7.29217091573203	26.5388314852119	1.00871918556963	-1.03523443784902	-0.00234493036967431	0.00187434241154089
0.8	-3.95102817596827	1.89697573912889	878.166181621433	-7.47265931450493	27.3161592133789	1.02323548237195	-1.04917409019136	-0.00251984852943066	0.00266044366729379
0.81	-4.51017722890646	1.99911403374154	881.839970764148	-7.61577917372952	28.074948838049	1.04966467630378	-1.0751681496411	-0.00264322962982599	0.00338982561043144
0.82	-4.89432476319335	2.04769952232569	886.076520182308	-7.71933181558832	28.7924143249831	1.08709530367297	-1.11174585884847	-0.00271575943547331	0.00404779836359526
0.83	-5.1089612672747	2.02729263197691	890.430347680364	-7.78693462687999	29.4540958363897	1.13223318324602	-1.15504471181068	-0.00274592053058054	0.0046339791258268
0.84	-5.18977747795279	1.9370907470376	894.413245625253	-7.82636118426319	30.053969013955	1.17986529587141	-1.19953493988607	-0.00274740989267719	0.00515997444119454
0.85	-5.18887873211526	1.79340771348912	897.574135433294	-7.84719071068031	30.5929393820163	1.22382488968578	-1.2391828680523	-0.00273566263560499	0.0056446857159359
0.86	-5.15876859425091	1.6273719140906	899.571790122058	-7.85835148275011	31.076471205696	1.25824526879396	-1.26876481104302	-0.0027243178271068	0.00610871110407357
0.87	-5.13907479078489	1.47829183307213	900.225998092862	-7.86612040826397	31.5121448553902	1.27880230715916	-1.28500140379765	-0.00272241308302734	0.00656932778178027
0.88	-5.14950865721016	1.38447628353232	899.538259004475	-7.87299511118885	31.907749493448	1.28363904303303	-1.28723175383432	-0.0027328737145319	0.00703715863433968
0.89	-5.19015633921274	1.37403961436485	897.680080295824	-7.87762489594914	32.2702087483831	1.27374516493275	-1.2774725470353	-0.00275253091160288	0.00751502899527695
0.9	-5.24778932481972	1.45814814633622	894.953728823528	-7.87572728887427	32.6053266206982	1.25270780327913	-1.25987175837327	-0.00277354055058032	0.0079988982639656
0.91	-5.30522677248513	1.62835507023281	891.735488844863	-7.86168666090011	32.9181167221735	1.22591441725228	-1.23972146461464	-0.00278576075503834	0.00848026604805763
0.92	-5.35029104630818	1.8584546898063	888.414123630885	-7.83038375002325	33.2133753205238	1.19942301836573	-1.2222947475721	-0.00277945146165748	0.00894919184551946
0.93	-5.38153936690398	2.11008741366157	885.336906174255	-7.77877516288409	33.4961681919644	1.17877951454075	-1.21179121522626	-0.00274762674311257	0.00939705147701725
0.94	-5.40934888841626	2.34050006342235	882.772450981184	-7.70683751194378	33.771991454019	1.16804225931439	-1.21061477228795	-0.00268752701408659	0.0098183519613157
0.95	-5.4525442599036	2.51058677037873	880.894455303916	-7.61768533831376	34.0465033061109	1.16918599070873	-1.21909293906894	-0.00260094626869289	0.0102112750633835
0.96	-5.53209173736643	2.59157273927092	879.784710179389	-7.51690914992832	34.3248765853516	1.18193942957642	-1.23562169327536	-0.00249347333399763	0.0105770289524297
0.97	-5.66411763397331	2.56927426120394	879.449009368138	-7.41138922307092	34.6109596050358	1.20400587429775	-1.25712436053982	-0.0023729910405984	0.0109184491367002
0.98	-5.85452374756605	2.44553770581094	879.837304028998	-7.30796014789616	34.9065176422977	1.2315542256102	-1.27967156299776	-0.00224793925947575	0.0112384945523608
0.99	-6.09683244162021	2.23703123956414	880.860317312665	-7.21229780400095	35.210824142926	1.25985620674701	-1.29912210806598	-0.0021258424198205	0.0115392556084543
1	-6.37380273741833	1.97193322373332	882.398442358869	-7.12828232015281	35.5207644690275	1.28396981390956	-1.31169237005922	-0.00201244027500702	0.0118218239384444
1.01	-6.66212331047063	1.68522802061723	884.30364143025	-7.05790296386335	35.8314308370988	1.29940377098471	-1.31441554170976	-0.00191150548450914	0.0120869584082732
1.02	-6.93847531525372	1.41334723662659	886.399231146062	-7.00158175971563	36.1369921713941	1.30271982476608	-1.30548737323782	-0.00182517746913535	0.0123360836749396
1.03	-7.18481097815745	1.18886194263747	888.484111182061	-6.95866972837927	36.4315035880106	1.29202887189895	-1.28450055244105	-0.00175448200703665	0.0125719546998414
1.04	-7.39101128631807	1.03588942931086	890.346412291926	-6.92785610027525	36.709343067293	1.26731959931199	-1.25255152290986	-0.00169969717467133	0.0127984235746942
1.05	-7.5541076432171	0.966825561505252	891.787328988388	-6.90732706693437	36.9651355491459	1.23054368366357	-1.21218029379354	-0.00166036535888525	0.0130191356919879
1.06	-7.67463010672038	0.98090676737802	892.650853861585	-6.89467147180505	37.1932843770648	1.18539168685213	-1.16709866915146	-0.00163497322461736	0.0132355083070838
1.07	-7.75184719463815	1.06489071546825	892.851449637757	-6.88668291157945	37.3874644514671	1.13674183309092	-1.12169097141799	-0.00162052549537894	0.0134447775736095
1.08	-7.78018530790835	1.19580258813207	892.391040161305	-6.87928131707825	37.5405262981573	1.08984520144029	-1.08033285686702	-0.00161233085142143	0.0136390340843322
1.09	-7.74870751898201	1.34527177681253	891.359451831705	-6.8677386339686	37.645151491539	1.04940090402994	-1.04664802995165	-0.00160425669430386	0.0138059116281247
1.1	-7.64431660689081	1.48459635228555	889.91752551594	-6.84726138929173	37.6953076464145	1.01873633163427	-1.02287636210678	-0.00158952236843557	0.0139310216476496
1.11	-7.45778715503134	1.58946322809777	888.267507261236	-6.81381911170802	37.6881793023128	0.999306266709931	-1.00952822220192	-0.0015618727640988	0.0140015493191157
1.12	-7.19043761152103	1.64332790312077	886.618897457097	-6.76498565432361	37.625950267053	0.990647057412839	-1.00543485643857	-0.00151680661007614	0.0140099160540513
1.13	-6.85874095667016	1.63882977606764	885.158400339167	-6.70053174607888	37.516721231787	0.990786467552564	-1.00818823868448	-0.00145249522397373	0.0139562844500121
1.14	-6.49466363517533	1.57717940302738	884.030014427989	-6.62257843958583	37.374029046602	0.996963565823614	-1.01483717694268	-0.00137012642402934	0.013849007710362
1.15	-6.14086892923036	1.46601082577163	883.326931762842	-6.53525655737702	37.2148498440297	1.00641409684265	-1.02262091213091	-0.00127359466061316	0.0137027999673068
1.16	-5.84166746801622	1.31654857442351	883.092687060946	-6.44395981205854	37.0564777429223	1.01696772767038	-1.02951484540771	-0.00116865307538572	0.0135351797114023
1.17	-5.63214428130954	1.1409803803535	883.326611265841	-6.35437948911867	36.9130861464244	1.02729020620814	-1.03444078716486	-0.0010617767232326	0.0133623238098034
1.18	-5.52869821479506	0.950669712667001	883.988873683307	-6.27154344283195	36.792936376259	1.03675021436392	-1.0371250466739	-0.000959025985221573	0.0131956429990297
