Time [s]	GRFml [N]	GRFap [N]	GRFv [N]	Mml [N.m]	Map [N.m]	Mv [N.m]	Mfree [N.m]	COPml [m]	COPap [m]
0.01	23.0598187245534	12.949233629011	950.81794803203	-84.5634024486668	-12.7481267475704	-3.03223041317775	-0.806843167432218	0.000780820711217614	-0.00750415317646054
0.02	23.9235535710832	12.1879733869573	950.040070211587	-83.9727371023541	-13.0923862092152	-3.22248595375061	-0.939240474043797	0.000402551537544656	-0.00806327323783861
0.03	24.7726249112507	11.4270199690651	949.191455836791	-83.3685456466774	-13.4304548719645	-3.40788972238815	-1.06989323762971	2.98698004334488e-05	-0.00863115404536448
0.04	25.5922309339587	10.6728653189431	948.247997852042	-82.7486607979908	-13.7564104349697	-3.58433513232205	-1.19594218864101	-0.00033138512101356	-0.00920792167841437
0.05	26.3684967030219	9.93208713141922	947.190568148707	-82.1117226451915	-14.0646909073138	-3.74803184735044	-1.31468597036223	-0.000675685028501103	-0.00979325219852836
0.06	27.0889750919889	9.21133315959068	946.007097113545	-81.4576181537797	-14.3502983903322	-3.89567080371986	-1.42369620783359	-0.000997991284446635	-0.010386087659561
0.07	27.7430796730568	8.51727571227578	944.694197407338	-80.7878297108277	-14.60897916022	-4.02456314995197	-1.52091723459682	-0.00129391449977823	-0.0109844104365192
0.08	28.3224295321048	7.85652992591728	943.25819918961	-80.1056620922882	-14.837371747137	-4.13274560520302	-1.60474584303912	-0.00155984902985984	-0.0115850975039285
0.09	28.8210910718443	7.23553474211911	941.71551132121	-79.4163285172437	-15.033116264284	-4.21904707130187	-1.67408776023205	-0.00179307689842058	-0.012183868189527
0.1	29.2357077393216	6.66040074448936	940.092275512708	-78.7268885744419	-15.1949201483492	-4.28311391581323	-1.7283888657271	-0.00199183719575063	-0.0127753301672458
0.11	29.5655148887915	6.13673350937918	938.423333587153	-78.0460426648462	-15.3225776298922	-4.32539397390364	-1.76764042421997	-0.0021553586078943	-0.0133531199177426
0.12	29.8122432564956	5.66944447270579	936.750577936134	-77.3837982804785	-15.4169425403445	-4.34708180788045	-1.79235880483399	-0.00228385438931078	-0.0139101263298125
0.13	29.9799203789636	5.26256325215115	935.120798320749	-76.751032225686	-15.4798563558699	-4.35002995164638	-1.80354131278032	-0.00237848067028271	-0.0144387801244677
0.14	30.0745843701451	4.91906580585612	933.583171549905	-76.1589793009033	-15.5140355535547	-4.33663262360971	-1.80260086956231	-0.00244126041053544	-0.0149313877322201
0.15	30.1039284902598	4.64073182894079	932.186562246318	-75.6186817604533	-15.5229242979022	-4.30968962712539	-1.79128331830369	-0.00247497654050537	-0.0153804862960221
0.16	30.0768976814575	4.42804259501905	930.976811817117	-75.1404349940085	-15.5105200865576	-4.27225882740194	-1.77157204280797	-0.00248303888352704	-0.0157791965386427
0.17	30.003259599585	4.28012734839536	929.994188791585	-74.7332635309002	-15.4811811849098	-4.22750569642777	-1.7455852901209	-0.00246933036151144	-0.0161215520591748
0.18	29.8931726249254	4.1947627109719	929.271157731849	-74.4044579537782	-15.4394254142798	-4.17855799099368	-1.71547198738609	-0.00243803878527711	-0.0164027867965186
0.19	29.7567719707088	4.16842577125842	928.830597670856	-74.1591980786725	-15.3897300974061	-4.12837274487841	-1.68331187017731	-0.00239348122083499	-0.0166195664245199
0.2	29.6037924940973	4.19639793420951	928.684566881432	-74.0002813307378	-15.3363427031217	-4.07962151147315	-1.65102535163017	-0.00233992846205264	-0.0167701538240388
0.21	29.4432433859028	4.27291353581399	928.833671605383	-73.927968163516	-15.2831109899567	-4.03459830012103	-1.62029776822342	-0.0022814374421679	-0.0168545030756197
0.22	29.283145855608	4.39134488825295	929.267055284066	-73.9399491616053	-15.233340270298	-3.99515302696381	-1.5925214995607	-0.00222169937084943	-0.0168742803133139
0.23	29.1303405448454	4.54441394469682	929.962984927186	-74.0314316045614	-15.1896838686625	-3.96265166477968	-1.56875808182176	-0.00216391088586994	-0.0168328130978583
0.24	28.9903670036127	4.72442018071055	930.889975370399	-74.1953371424978	-15.1540710140681	-3.93796273071062	-1.54972095357329	-0.00211067449597	-0.0167349726637638
0.25	28.8674134356548	4.92347451178634	932.008362666336	-74.4225971280288	-15.1276743861767	-3.92146838296404	-1.53577803403502	-0.00206393306870994	-0.0165869955309276
0.26	28.7643313076409	5.13372995811538	933.272216449956	-74.7025282418656	-15.1109174360951	-3.91309727273507	-1.52697207214866	-0.00202494116649856	-0.0163962526632592
0.27	28.6827065091495	5.34760113159388	934.631468792927	-75.0232684100998	-15.1035195375954	-3.91237545689652	-1.52305572529295	-0.00199427380712625	-0.0161709757260827
0.28	28.6229766682785	5.55796623630545	936.034134003258	-75.3722516133902	-15.1045751031267	-3.91849113748609	-1.52353769373431	-0.00197187091792716	-0.0159199511290302
0.29	28.5845830211696	5.75834692727648	937.428499470132	-75.7366999273511	-15.1126611233206	-3.93036875040792	-1.52773597006728	-0.00195711357227033	-0.0156521934763793
0.3	28.5661448841743	5.94306287798299	938.765180771377	-76.1041118493415	-15.1259662468449	-3.94674795379272	-1.53483433853257	-0.00194892622943343	-0.0153766107623576
0.31	28.5656452047022	6.10735912898925	939.998953108172	-76.4627274681526	-15.1424335785466	-3.96626332727827	-1.5439386196187	-0.00194589778489366	-0.0151016740848819
0.32	28.5806167416679	6.24750515364328	941.090293633119	-76.8019531202403	-15.1599088838702	-3.98752103862368	-1.55412972109864	-0.0019464133615085	-0.0148351047301563
0.33	28.608319985658	6.36086507255042	942.00659319386	-77.1127306614875	-15.1762858666194	-4.00916931055689	-1.56451123915778	-0.00194878845988601	-0.014583591130881
0.34	28.6459057922504	6.4459386281188	942.723019307726	-77.387839206352	-15.1896406281302	-4.02996017571685	-1.5742500675623	-0.00195139731735084	-0.0143525473745473
0.35	28.6905576888937	6.50237249479452	943.223032969011	-77.6221200220618	-15.1983482848547	-4.04880069224573	-1.58260914718751	-0.00195278804316925	-0.0141459236207129
0.36	28.7396107610578	6.53094138305576	943.498578753241	-77.8126181285287	-15.2011759594319	-4.06479246536422	-1.58897207050662	-0.00195177822484094	-0.0139660769973128
0.37	28.7906457892909	6.53349834113023	943.549979741593	-77.9586369948503	-15.1973478876384	-4.07725894846063	-1.59285971578429	-0.00194752614590388	-0.0138137093357515
0.38	28.8415587941286	6.51289380353689	943.385575748586	-78.0617055184327	-15.1865801041696	-4.08576055789519	-1.59393941496484	-0.00193957442342486	-0.0136878755441707
0.39	28.8906072904766	6.47286338629278	943.021145477469	-78.1254592172115	-15.1690839781062	-4.09009811533672	-1.59202736660522	-0.0019278646636984	-0.0135860635929306
0.4	28.9364353385818	6.4178852457933	942.479151336039	-78.1554402574004	-15.1455396552319	-4.09030552471051	-1.58708511221746	-0.00191272354651136	-0.0135043440892629
0.41	28.9780799242876	6.35300900685511	941.787840891975	-78.1588235685563	-15.1170421241548	-4.08663289889144	-1.5792109291461	-0.00189482248043409	-0.0134375843495243
0.42	29.0149613567478	6.28365977063464	940.980232729353	-78.1440788359673	-15.0850240623386	-4.0795215796231	-1.56862698451872	-0.00187511452578902	-0.013379718847274
0.43	29.0468603079522	6.21542242483184	940.093008233478	-78.120580553972	-15.051160759343	-4.06957265056563	-1.55566306783896	-0.00185475356808558	-0.0133240650473707
0.44	29.0738839160626	6.15381324138952	939.165325895672	-78.0981804923135	-15.0172632019704	-4.05751063616149	-1.54073769225157	-0.00183500166706141	-0.013263671072095
0.45	29.0964231135545	6.10404737657284	938.237572117866	-78.086758766361	-14.9851658083215	-4.04414411566434	-1.52433733558092	-0.00181713105023534	-0.0131916795440225
0.46	29.1151030906881	6.07081219187601	937.350062819999	-78.0957710896647	-14.9566153093762	-4.03032496820535	-1.50699458274141	-0.00180232733646701	-0.0131016904814314
0.47	29.1307286159036	6.05805711165588	936.541713536501	-78.1338105972082	-14.9331669169282	-4.01690790552713	-1.48926592516891	-0.00179160026494779	-0.012988105450438
0.48	29.1442258356583	6.06881087875912	935.848701758748	-78.2082027418306	-14.9160932270438	-4.00471184701448	-1.47170996063188	-0.00178570749796587	-0.0128464354428864
0.49	29.1565821713656	6.10503646870616	935.30315321472	-78.3246510900377	-14.9063103483544	-3.99448454922106	-1.45486670731816	-0.00178509601780486	-0.0126735562385631
0.5	29.1687860029872	6.16753254713595	934.931892402691	-78.4869503196869	-14.9043245869352	-3.98687172166062	-1.43923869062048	-0.00178986432717496	-0.0124678973385627
0.51	29.1817679429216	6.25588824637493	934.755305635111	-78.6967803426984	-14.9102017439313	-3.98239164552123	-1.42527437501209	-0.00179974718261264	-0.0122295538467387
0.52	29.1963456153694	6.36849530763161	934.786370687635	-78.9535922894746	-14.9235597694228	-3.98141606701357	-1.41335439781768	-0.00181412304515969	-0.0119603147554156
0.53	29.2131739180806	6.50261845993754	935.029909609597	-79.2545932058794	-14.9435842432776	-3.98415786903295	-1.40378092315887	-0.00183204292968756	-0.0116636057006
0.54	29.2327027132384	6.65452150741078	935.482119354701	-79.5948318929387	-14.9690649894319	-3.99066574242318	-1.39677028398608	-0.00185227797772698	-0.0113443490682667
0.55	29.2551437419137	6.81964322235241	936.130428074443	-79.9673835772932	-14.9984511308285	-4.00082579183166	-1.39244893140975	-0.00187338196270331	-0.0110087490053219
0.56	29.2804482681169	6.9928140481434	936.953713121841	-80.3636262867019	-15.0299211006544	-4.01436973257732	-1.39085257687269	-0.00189376413756503	-0.0106640130752558
0.57	29.3082965386709	7.16850204046197	937.922900503402	-80.7735971897844	-15.0614635688491	-4.03088907619915	-1.39192830475464	-0.0019117674045094	-0.010318025705685
0.58	29.3380996167033	7.34107461707358	939.001945648118	-81.1864130148342	-15.0909649330528	-4.04985447508371	-1.39553935686968	-0.00192574674550694	-0.00997899098626617
0.59	29.3690135474072	7.50506168883924	940.149173295866	-81.5907352438179	-15.1162989576316	-4.07063921117394	-1.40147224660368	-0.00193414318698011	-0.009655063667527
0.6	29.3999651929099	7.65540568389294	941.318931687746	-81.97525830366	-15.1354143074198	-4.09254567858419	-1.40944584449569	-0.00193554923496663	-0.00935398735665065
0.61	29.4296884806692	7.78768485690155	942.463494841143	-82.3291976145135	-15.146416087573	-4.11483363068459	-1.41912208036825	-0.00192876263229729	-0.00908275796403366
0.62	29.4567692963775	7.89829802843489	943.535128252647	-82.6427542057385	-15.1476380319245	-4.13674894154863	-1.43011791934637	-0.00191282636078329	-0.00884732855178845
0.63	29.4796968591188	7.98460139422095	944.488219442059	-82.9075337029968	-15.1377026379775	-4.15755166908255	-1.44201828052013	-0.00188705393474295	-0.00865236904679056
0.64	29.4969191717407	8.04499109707784	945.28136655256	-83.1168997755818	-15.1155672823856	-4.17654229906392	-1.45438957045254	-0.00185104010659557	-0.00850109100793218
0.65	29.5069000556642	8.07892864605978	945.879316544875	-83.2662454885727	-15.0805551212475	-4.19308518922696	-1.46679349599921	-0.00180465804413056	-0.00839514399191464
0.66	29.5081753529088	8.08690975974947	946.254649657869	-83.3531702394112	-15.0323703416741	-4.20662841148351	-1.47880080310507	-0.00174804477783467	-0.00833458625434766
0.67	29.499406090362	8.0703805651596	946.389118525747	-83.3775548284913	-14.9710980462987	-4.21671939745353	-1.49000456527398	-0.00168157721690585	-0.00831792875284029
0.68	29.4794267218969	8.03160807873637	946.274567917611	-83.3415324360635	-14.8971896885691	-4.2230160154951	-1.50003262468214	-0.00160584128264402	-0.00834224786905646
0.69	29.4472869549854	7.97351434218417	945.913383340723	-83.2493585524356	-14.8114355095881	-4.22529293362496	-1.50855877869617	-0.00152159672060314	-0.0084033590979658
0.7	29.4022860893545	7.89948533903997	945.318442232552	-83.1071879362266	-14.7149258415586	-4.22344333963978	-1.5153123123127	-0.00142973996119413	-0.00849604129783041
0.71	29.3439992072408	7.8131667883101	944.512568456176	-82.9227711790109	-14.609003432124	-4.21747628603172	-1.52008550802132	-0.00133126705005693	-0.00861429905459056
0.72	29.2722949251184	7.71825906887834	943.527517533918	-82.7050871959388	-14.495209110209	-4.20751009349199	-1.52273882103665	-0.00122723822110447	-0.00875164935400019
0.73	29.1873447216497	7.61832290294378	942.402544796923	-82.4639307559208	-14.3752231669234	-4.19376237604652	-1.5232034887005	-0.00111874519641506	-0.00890141810127082
0.74	29.089624083355	7.5166061047754	941.182629881573	-82.2094758896581	-14.2508047800494	-4.17653733936721	-1.52148144412877	-0.00100688182540385	-0.00905703207185084
0.75	28.9799058570616	7.4158998163512	939.916447559466	-81.9518366146622	-14.1237316867579	-4.15621105103533	-1.51764251966355	-0.000892718270631131	-0.00921229257677386
0.76	28.8592462764844	7.31843037249578	938.654185920937	-81.7006459061416	-13.9957421271996	-4.13321539018066	-1.51181904793024	-0.000777278646755327	-0.00936161841449898
0.77	28.7289641579933	7.22579045261361	937.44531804293	-81.4646722962842	-13.8684808616165	-4.10802135943539	-1.50419808953661	-0.000661521844307369	-0.00950024747314704
0.78	28.5906137621119	7.1389106738724	936.336432489688	-81.2514910305763	-13.743450823198	-4.08112239201818	-1.49501162942602	-0.000546325224998626	-0.00962438854689647
0.79	28.445951818702	7.05807043701094	935.369221744748	-81.0672235187861	-13.6219717216317	-4.05301821956265	-1.48452518236343	-0.000432470945829076	-0.0097313174378533
0.8	28.2968992389969	6.98294479686091	934.578716711003	-80.9163550889483	-13.5051466668294	-4.02419979053229	-1.47302532696957	-0.000320634824826685	-0.00981941412842471
0.81	28.1454981046032	6.91268250078612	933.99184073776	-80.8016369984301	-13.3938376421686	-3.99513565205959	-1.46080674329458	-0.000211377859581894	-0.0098881406267386
0.82	27.9938646414513	6.84600917825379	933.626339370304	-80.7240744913476	-13.2886504205832	-3.96626013502703	-1.44815935832242	-0.000105140703222189	-0.00993796190439461
0.83	27.8441390543016	6.78134898431406	933.490123325385	-80.6829986197722	-13.1899292801226	-3.93796361564071	-1.43535620505704	-2.24154553777819e-06	-0.00997021505326562
0.84	27.6984333031907	6.71695776569544	933.581043159473	-80.6762157503197	-13.0977616311965	-3.91058506618776	-1.42264257279906	9.71220966469542e-05	-0.00998693427333142
0.85	27.5587781264416	6.65106096246613	933.887095646108	-80.7002253131112	-13.0119924084221	-3.88440705011834	-1.41022696866511	0.000192867227311678	-0.00999064145184994
0.86	27.4270708283749	6.58198989031496	934.387044737828	-80.750493539976	-12.9322478002986	-3.85965325735146	-1.39827432437306	0.000285014567381867	-0.00998411379461149
0.87	27.3050255234679	6.5083106699474	935.051424650906	-80.8217687725276	-12.8579675878939	-3.83648860960387	-1.38690177048533	0.000373673068184539	-0.00997014112391856
0.88	27.1941276331733	6.42894078847249	935.84387935178	-80.9084224546288	-12.7884450423443	-3.81502188833134	-1.37617716726033	0.000459020036892367	-0.00995128598857298
0.89	27.0955944423557	6.34324901879346	936.722781634697	-81.004799183125	-12.7228729990173	-3.79531074752126	-1.36612043359328	0.000541277522336223	-0.00992965959267043
0.9	27.0103434227261	6.25113513927713	937.643066030148	-81.1055591735409	-12.6603943982868	-3.77736887123225	-1.3567075615666	0.000620685950073186	-0.00990672573373677
0.91	26.9389698142485	6.15308656975404	938.558202889055	-81.2059971780785	-12.6001552788625	-3.76117492619708	-1.34787705339709	0.000697476285474003	-0.00988314347788545
0.92	26.8817346269664	6.05020968185118	939.422236079896	-81.3023232260166	-12.5413579531406	-3.74668285113144	-1.33953837995677	0.00077184221412236	-0.00985865726003859
0.93	26.8385638005871	5.94423418421315	940.191803817467	-81.3918924784024	-12.4833119106677	-3.73383292728768	-1.33158194489168	0.000843913942709728	-0.00983204058468216
0.94	26.8090587623121	5.83748967048824	940.828061318837	-81.4733739210585	-12.4254799106727	-3.72256300103962	-1.32388995355907	0.000913735235327893	-0.00980109664812245
0.95	26.7925180863597	5.73285419408249	941.298425467324	-81.5468504690072	-12.3675167599672	-3.71281919005945	-1.31634753729604	0.000981245214054904	-0.00976271615686927
0.96	26.7879694164219	5.63367563083756	941.578065750871	-81.613846213885	-12.309298445229	-3.70456540876611	-1.30885347411561	0.00104626628017399	-0.00971298953936323
0.97	26.7942103000995	5.5436676196444	941.651072742246	-81.6772798926887	-12.2509396080507	-3.69779110113462	-1.30132987733791	0.00110849926732445	-0.00964736780303027
0.98	26.8098561343532	5.46678301440508	941.511245567508	-81.7413470581355	-12.1927978170189	-3.69251666973108	-1.29373029193448	0.00116752663370369	-0.00956086363343985
0.99	26.8333930600677	5.40706899165019	941.16245329182	-81.8113367455274	-12.1354636926098	-3.6887962338098	-1.28604574031504	0.00122282414723781	-0.00944828211221717
1	26.8632333919332	5.36850916197074	940.618541846489	-81.8933915107924	-12.0797366556379	-3.68671752639737	-1.27830838885811	0.00127378112141036	-0.00930446877059277
1.01	26.8977710395702	5.35485913464336	939.902777656945	-81.9942224127011	-12.0265868650461	-3.68639893647725	-1.27059265603594	0.00131972882316883	-0.00912456169522927
1.02	26.935434372546	5.36948287640579	939.046840823555	-82.1207926907381	-11.9771047426437	-3.68798390120838	-1.26301374353931	0.00135997620101121	-0.00890423412983822
1.03	26.9747341047495	5.41519778048581	938.089403559697	-82.2799854268179	-11.9324402997225	-3.69163303745119	-1.25572373333926	0.00139385157849826	-0.00863991450179992
1.04	27.0143040165458	5.49413652647082	937.074352339837	-82.4782712770716	-11.8937352271704	-3.69751455585906	-1.24890554541878	0.00142074844311671	-0.00832897204036219
1.05	27.0529326864414	5.60763349541842	936.048733401872	-82.7213923555929	-11.8620513295559	-3.70579361151112	-1.24276518214436	0.00144017296353981	-0.00796985809429927
1.06	27.0895848549745	5.7561426716915	935.060519355086	-83.0140775217451	-11.8382993208978	-3.71662130389603	-1.23752278579067	0.00145179043650769	-0.00756219581341187
1.07	27.123411577036	5.93919261792259	934.156308199116	-83.3598026879537	-11.8231722098049	-3.73012404247667	-1.23340309715454	0.00145546755806939	-0.00710681390093876
1.08	27.1537489169173	6.15538230037298	933.379073792314	-83.7606073948643	-11.8170874514697	-3.74639394379106	-1.23062591987642	0.00145130729984285	-0.00660572350585611
1.09	27.1801055816594	6.40241935913129	932.766087785763	-84.2169759108573	-11.8201417175014	-3.76548082859177	-1.22939716519444	0.0014396733114539	-0.00606204080484092
1.1	27.2021405468137	6.6771999884617	932.347126772236	-84.7277876608338	-11.8320815354179	-3.78738625324466	-1.22990097797241	0.00142120120804053	-0.00547986119776737
1.11	27.2196323732387	6.97592707269667	932.143064915718	-85.290338066631	-11.8522922027371	-3.81205985136934	-1.23229333401222	0.00139679484509626	-0.0048640940698129
1.12	27.2324425072591	7.29426078460191	932.164932199941	-85.9004271030138	-11.8798063319523	-3.8393980934417	-1.23669736174584	0.00136760669571705	-0.0042202695245999
1.13	27.2404753579947	7.62749367198587	932.413492759041	-86.5525092628229	-11.9133321969962	-3.86924540738202	-1.24320049177773	0.00133500264400136	-0.00355433016068085
1.14	27.2436383111548	7.97074050048632	932.879368074661	-87.2398954006287	-11.9513008084289	-3.90139745406345	-1.25185338955262	0.00130051276986135	-0.00287242169380182
1.15	27.241805025484	8.31913192917709	933.543698021785	-87.9549942833078	-11.9919294316494	-3.93560622782427	-1.26267049271365	0.00126577087974512	-0.00218069593871979
1.16	27.2347853295136	8.66800057997811	934.379300890617	-88.6895797804676	-12.0332981697893	-3.97158656016654	-1.27563186591962	0.00123244649176315	-0.00148513836435826
1.17	27.2223047664148	9.01304828758474	935.352263705243	-89.4350685931412	-12.0734353446279	-4.00902354853547	-1.29068600887678	0.00120217359677814	-0.000791430225407036
1.18	27.2039963135663	9.35048429986705	936.423868373411	-90.1827933063122	-12.1104067956631	-4.04758041218271	-1.30775321126152	0.00117648072102529	-0.000104852338050423
