Time [s]	GRFml [N]	GRFap [N]	GRFv [N]	Mml [N.m]	Map [N.m]	Mv [N.m]	Mfree [N.m]	COPml [m]	COPap [m]
0.01	-4.21413597188048	4.34334235255934	625.048823586721	-10.7151548651085	19.5542946373714	-0.567367423428096	0.503516624387588	-0.00807353809065536	-0.00173520702334096
0.02	-4.32834194139022	4.03012150256999	624.454529066318	-10.6382409041773	20.2035620948575	-0.425527055023558	0.36922413890833	-0.00796532920578008	-0.000659399514549297
0.03	-4.31980239166578	3.74355085229999	624.65013664685	-10.5727538601119	20.8533232830342	-0.286526959885734	0.235113303046116	-0.00785484150509175	0.000370777736084738
0.04	-4.09576620600316	3.50674816205679	626.304438958807	-10.5287286736313	21.5031814106838	-0.152035968725589	0.100794048598839	-0.00774092593899067	0.00131514391925308
0.05	-3.63225596398531	3.33304453265856	629.810335150697	-10.5097562978212	22.1476533039625	-0.0230957264220863	-0.03335962690435	-0.00761987440280698	0.00214140402883373
0.06	-2.98314880854012	3.22359544353337	635.220071785538	-10.5118094742083	22.7755243075023	0.0996006759730836	-0.16572941136338	-0.00748523820448233	0.00282804524655023
0.07	-2.26615386418648	3.16776662192664	642.244600690129	-10.5241764961019	23.3706118107396	0.215097056236686	-0.293096754240529	-0.00732906967449798	0.00336582822991965
0.08	-1.63107510790502	3.14614143158073	650.310222710812	-10.5320967882233	23.9134556406952	0.321462169565142	-0.410545474150071	-0.00714418744497702	0.00375739925025798
0.09	-1.2204620072712	3.13526856718588	658.655636952676	-10.5202222927997	24.383483872956	0.41534775591684	-0.511797561807963	-0.00692664871581472	0.00401517360069187
0.1	-1.13387837291096	3.11280068958778	666.448123732277	-10.4758745253347	24.7613818468385	0.492159469987488	-0.590100486605768	-0.00667750478646301	0.00415822879165684
0.11	-1.40477807451396	3.06165414078172	672.898550448879	-10.3912632684813	25.0315140996188	0.546971348191795	-0.639612214483631	-0.00640317689545389	0.0042091650415958
0.12	-1.99456148188287	2.97224985004793	677.359528389254	-10.2642799039921	25.1842294533798	0.575994419256234	-0.656998375330368	-0.00611431309773691	0.0041916673269829
0.13	-2.80341014251872	2.84259675131987	679.397149590699	-10.09798655305	25.2177673571842	0.578120715131612	-0.642770556984394	-0.00582355030494242	0.00412901035874519
0.14	-3.69343278150302	2.67667584988085	678.832358290069	-9.89929337660961	25.1393961868456	0.555942081107763	-0.601859732030297	-0.00554297014815097	0.00404326821280199
0.15	-4.51744046796053	2.48202457164578	675.752070904246	-9.6774276328472	24.9654512194948	0.515761052668141	-0.543083951335828	-0.00528205896016798	0.00395475281301466
0.16	-5.14653330609212	2.26747967684932	670.492546886583	-9.44264877131246	24.7201239034465	0.466440746120938	-0.477499655050359	-0.00504667544520943	0.00388127801564114
0.17	-5.49121578527764	2.04174559904004	663.598814057584	-9.20536624878936	24.4331235069279	0.417361217045174	-0.416008544488392	-0.00483905649073868	0.00383713045330147
0.18	-5.51316418170658	1.81297550920595	655.764911041611	-8.97553634958981	24.1365828059867	0.376095202366813	-0.366879580002898	-0.00465848153385517	0.00383194117745561
0.19	-5.22719233318291	1.58909729633984	647.760766502679	-8.76208800941964	23.8617219960677	0.346546135816289	-0.333918890482745	-0.00450205409223348	0.0038698345897209
0.2	-4.69478069080504	1.37835811822206	640.352648904213	-8.57219910177185	23.6357867361512	0.328152173200593	-0.315841609181318	-0.00436519636835941	0.00394922246548507
0.21	-4.0115053560629	1.18956399730951	634.224921325644	-8.4104483714982	23.4796646570283	0.31640786854681	-0.307031668191138	-0.00424178369127337	0.0040634523212626
0.22	-3.29093311976965	1.03169882020746	629.910943767212	-8.27807084603995	23.4064193774758	0.30452911169138	-0.299454400036016	-0.00412416788688286	0.00420230207149097
0.23	-2.64732890095228	0.912888568758919	627.740240111034	-8.17262149288803	23.4208166079819	0.285744938542965	-0.285161527827305	-0.00400346657466077	0.00435411459479634
0.24	-2.17915617999872	0.838904267031648	627.807613907844	-8.08825640937808	23.5197805413286	0.255550846002455	-0.25869837616259	-0.00387036259037832	0.00450821919090294
0.25	-1.95503462832241	0.811513227862691	629.967972108068	-8.01662656659852	23.693613001849	0.213323974823726	-0.218804714108998	-0.0037163517432256	0.00465719278185367
0.26	-2.00360984305086	0.827017783916419	633.858298794893	-7.94816433150402	23.9277291966144	0.162922060970359	-0.16903334723138	-0.00353508455787011	0.0047984768286245
0.27	-2.30863114608879	0.875327549464863	638.94544867759	-7.87343937159995	24.2046189691807	0.1121680127043	-0.117198600375993	-0.00332334330831696	0.00493491661943118
0.28	-2.81029371739188	0.939929794774257	644.595152220769	-7.78431008489515	24.5057481478413	0.0713741947663197	-0.0738256719620985	-0.00308134157124407	0.00507396862590936
0.29	-3.41342148013635	0.999114976642457	650.154092382272	-7.6747529884891	24.8131822574831	0.0512396816488335	-0.049955936739354	-0.00281234682124953	0.00522563602866816
0.3	-4.00222339295337	1.02868786422732	655.033854092043	-7.5414144600502	25.110831318632	0.0605536273569591	-0.0547642702825606	-0.00252193146549129	0.00539957609455488
0.31	-4.46014414959892	1.0060738961615	658.784030589758	-7.38400433381141	25.3853365943484	0.104167528078011	-0.0934693050284914	-0.0022172887127514	0.00560213814231753
0.32	-4.69193902481721	0.915241251324392	661.142756168484	-7.2056083900838	25.6266914846585	0.181659639200188	-0.165967523191128	-0.00190694383305889	0.00583418300090316
0.33	-4.64391955136855	0.751359955932372	662.056717509175	-7.01287943136966	25.828671247408	0.286996146932399	-0.266490715941199	-0.00160091573825183	0.00609031786613917
0.34	-4.31783251838032	0.523847021487413	661.668567033967	-6.81595707980845	25.9890482809109	0.409293910868267	-0.384377055531349	-0.00131108735369823	0.00635970147912174
0.35	-3.77445465989271	0.256598007862208	660.276042938568	-6.62793411435511	26.1094509381724	0.534539559150983	-0.505794202300462	-0.00105136872474865	0.00662801493956894
0.36	-3.1248227556634	-0.0151778620243152	658.272137355448	-6.46375102203715	26.1946693961922	0.647889388369065	-0.616029309158437	-0.000837249662619666	0.00687979481544504
0.37	-2.50977243605367	-0.251177349990351	656.077990602224	-6.33852816630921	26.2512877182354	0.736047706718553	-0.701845776989997	-0.000684511268605692	0.00710027414959646
0.38	-2.07144751863856	-0.414007761183708	654.079522911526	-6.26548184641579	26.2857325740218	0.789250509797782	-0.753446450911412	-0.000607112891513051	0.00727620856612909
0.39	-1.9228012314529	-0.477104182404795	652.575948286513	-6.25367363699151	26.3021079179822	0.802552292291287	-0.765757352445779	-0.000614505461785875	0.00739573598548848
0.4	-2.12208110889051	-0.430632591083148	651.744704293989	-6.30589890901643	26.3004114769116	0.776345262010249	-0.738971375220762	-0.00070879266726509	0.00744786676473791
0.41	-2.6584779115881	-0.283972981803131	651.624371212921	-6.41704263366508	26.2757818461324	0.716224792102382	-0.678462464857727	-0.000882260101742527	0.00742246075684383
0.42	-3.45264363233922	-0.0642972360415352	652.115551005822	-6.57323533371715	26.2192376934321	0.632376636459193	-0.594228026402316	-0.00111583330188503	0.00731137246439556
0.43	-4.37225198551188	0.188233997342527	652.999202522228	-6.75212894511113	26.1199683967557	0.538597159565478	-0.499945283718882	-0.00137901316732558	0.00711088071793098
0.44	-5.25911487011622	0.427360093220887	653.971649171731	-6.92455425522728	25.9687366825437	0.450938793373632	-0.411612647464598	-0.00163174650734765	0.0068247928478159
0.45	-5.96156873535015	0.608091115872462	654.694331889004	-7.05767576779813	25.761530951509	0.385904396929304	-0.34569517773716	-0.00182847162233257	0.00646704435318918
0.46	-6.36467427674412	0.693155087491431	654.853846967082	-7.11949753831552	25.5024201077577	0.358175002740483	-0.31677678286994	-0.00192419691726364	0.0060624798434406
0.47	-6.41155081438497	0.657680925285885	654.224295314465	-7.08421421730666	25.2047037401783	0.378049664087753	-0.334934919152275	-0.00188194778134443	0.0056449107737539
0.48	-6.11164878609391	0.491941063771758	652.720781506818	-6.93753060340519	24.8898884497997	0.449023813572733	-0.403306413945222	-0.00168036722511977	0.00525238876907796
0.49	-5.53519285616437	0.202459514242839	650.431737185906	-6.68082497217361	24.5846206459263	0.566106508042434	-0.516473252392608	-0.00131986697668607	0.00492060930321153
0.5	-4.79636066866762	-0.188098052247308	647.619933604269	-6.33303854566697	24.3162689940818	0.715467007505222	-0.660257092714117	-0.000825691157672059	0.00467609261127477
0.51	-4.03001890192014	-0.642102072652588	644.687843322301	-5.92950122765324	24.1081890415379	0.875771959602195	-0.813245767036849	-0.000246680361634111	0.00453097574919353
0.52	-3.36745637151434	-1.10950600573189	642.111256950365	-5.51750841694382	23.9757141646673	1.02118588447195	-0.949958548334185	0.000350637135444809	0.00448079389420941
0.53	-2.91559276387816	-1.53238030930995	640.353447651825	-5.14919779647449	23.9236197100521	1.12558704182946	-1.04513020369757	0.000891947619380606	0.00450568614544089
0.54	-2.74223503388734	-1.8519300965605	639.778009204125	-4.87293887024175	23.9453344712674	1.16723379200354	-1.0782986242646	0.0013073850809634	0.00457438734813342
0.55	-2.86801116738181	-2.01780924905515	640.579691378322	-4.72486073693399	24.0237170002589	1.13298969207972	-1.03779904166277	0.00154378672376088	0.00464957830217816
0.56	-3.26439627814878	-1.99845592205019	642.748469042035	-4.7221984824591	24.1329410902547	1.02129012713974	-0.923396267213705	0.00157452301475736	0.00469296418481202
0.57	-3.85702982475177	-1.79010896412711	646.073790758123	-4.85982413660435	24.2410156939366	0.843260426131148	-0.747056437494495	0.00140485739081608	0.00466889217754124
0.58	-4.53398605630677	-1.42166320138369	650.185939115821	-5.1107175099981	24.3126442789579	0.621705461561842	-0.53168426900524	0.0010716456623886	0.00454618572805687
0.59	-5.1591013673641	-0.95299544430815	654.622727629941	-5.43035675290557	24.3123567405495	0.388028266999761	-0.307967527899747	0.000637308915628187	0.00429876178329103
0.6	-5.59021111790222	-0.46589462431226	658.90488250011	-5.76422854592549	24.2079564304482	0.177468989101619	-0.109751812187194	0.000179170539167717	0.00390609993290547
0.61	-5.70097101917015	-0.0488601824575583	662.603567922253	-6.05703500568495	23.9742216507702	0.0233623667782777	0.0313894324327608	-0.000223807949363719	0.00335452241552125
0.62	-5.40322016300107	0.220939079031991	665.388055197934	-6.26184304977907	23.5965194010222	-0.0486466770674717	0.0915378524901661	-0.000504336069863776	0.00263958654999752
0.63	-4.66543353065333	0.294100391061073	667.048556939895	-6.34746033931118	23.073681198365	-0.0253755995180935	0.0588250143281508	-0.000617619087668442	0.00176901523248296
0.64	-3.52259730938384	0.159572304516751	667.496231932458	-6.30272826322998	22.4193515993363	0.0911095215063161	-0.0640346972554446	-0.000547746889402956	0.000764933921631072
0.65	-2.07426112418885	-0.153325605096866	666.747211919425	-6.1371062628143	21.6611854205798	0.283362220607147	-0.259682778733512	-0.000308691645054537	-0.000335920047675076
0.66	-0.470292746193546	-0.581826337100491	664.899219601396	-5.8777182330888	20.8377376857034	0.521244589782745	-0.498690298916404	5.98737369268409e-05	-0.00148482395644378
0.67	1.11294513510497	-1.04360083888887	662.108205825299	-5.56374095573498	19.9935097352315	0.767009501362423	-0.744386393870047	0.000500683220297726	-0.00262640536845415
0.68	2.50082314983234	-1.45397909515752	658.569576350888	-5.23945877389563	19.1731482028049	0.981814066675014	-0.959057395568339	0.00094900488935068	-0.00370562091850352
0.69	3.54706188441218	-1.74237319829621	654.505379038256	-4.94738981739621	18.4160251504448	1.13237603355265	-1.11031219457174	0.00134275636929415	-0.00467476282211704
0.7	4.15367961200422	-1.86440277963957	650.15632408985	-4.72262338386503	17.7522637258241	1.19646287901048	-1.17637185402729	0.00163095059510177	-0.00549892423389003
0.71	4.28144911116864	-1.80765777252354	645.776171303938	-4.58902064721466	17.2007840488649	1.16619379727561	-1.14930223899283	0.00177950018918815	-0.00615893428212577
0.72	3.95060171192226	-1.59075803839665	641.625785879521	-4.55740707380231	16.7693275194239	1.04865355805426	-1.03569217535795	0.00177413950515859	-0.00665160598538239
0.73	3.23349403357503	-1.25689168999268	637.96472658168	-4.62549744546844	16.4559101954992	0.863915869289122	-0.85484588886434	0.00162075756500657	-0.0069878733341705
0.74	2.24187257162727	-0.863989381318847	635.039251075223	-4.77913664361559	16.2509270932544	0.641089100662881	-0.635050529899299	0.00134365149049787	-0.00718976715001213
0.75	1.11131387295722	-0.473976911717927	633.066835566531	-4.9944943662931	16.139217599332	0.413304137180107	-0.408777669964944	0.000982146147824325	-0.00728712502833873
0.76	-0.0151501789999253	-0.143197823544755	632.218480450398	-5.24100957331082	16.101713149072	0.212614134929851	-0.207735491397742	0.00058584548033902	-0.00731457397651614
0.77	-1.00277015049061	0.0846738881912894	632.600972516486	-5.4849953558777	16.1166511511435	0.0656053305380763	-0.0585401549420122	0.000208686256166324	-0.00730889706819626
0.78	-1.73899075172769	0.182796155491655	634.241674946658	-5.69378011106522	16.1605902260462	-0.00977511220124773	0.020488617918494	-9.79097311565313e-05	-0.00730661370072494
0.79	-2.14436841724819	0.142659047104789	637.078207677831	-5.84006384507492	16.2095153337785	-0.00596903066967016	0.021176921764266	-0.000292150971839544	-0.00734156935181079
0.8	-2.17938382713851	-0.0264934805680351	640.954652861941	-5.9059023579903	16.2401968027203	0.0738465235287072	-0.0540300053302665	-0.000348230278270134	-0.00744250191243551
0.81	-1.84639826028784	-0.299795979752555	645.624966775081	-5.88555315307431	16.2317647419413	0.216677957911662	-0.192868221381937	-0.000260670821796039	-0.00763078218078744
0.82	-1.18671777184085	-0.640188678223517	650.763488263901	-5.7864649919442	16.167299452944	0.401713014987546	-0.375163842478981	-4.55680330286867e-05	-0.00791865938174052
0.83	-0.273584698525193	-1.00309072188344	655.982104497415	-5.62801447763635	16.0351941682467	0.603181875021275	-0.575634312086897	0.000261808676667918	-0.00830830006856653
0.84	0.797448918921024	-1.34222169286037	660.853805082095	-5.43810753796168	15.8301151895838	0.793806674273165	-0.767294452419443	0.000612769114913481	-0.00879172821003216
0.85	1.91918411028803	-1.61612766693635	664.942723953627	-5.24829517816122	15.5534972483334	0.948471112856003	-0.925086381837351	0.000953221627728928	-0.00935157762431843
0.86	2.98330146844668	-1.7944847524957	667.840781003931	-5.08841003387078	15.2135834991885	1.04764871042767	-1.02927163811121	0.00123236624207446	-0.00996248013623752
0.87	3.89025818662839	-1.86291074575846	669.210140537087	-4.98179395447683	14.8250046873621	1.08009019257651	-1.06810185534354	0.00141042241020883	-0.0105929801108945
0.88	4.55858682539415	-1.8250650285508	668.828684814124	-4.94195949884331	14.407815245678	1.04433034671608	-1.03935320590445	0.00146412935007001	-0.0112080221809225
0.89	4.93365271205596	-1.70134079058597	666.632924262401	-4.97112175056912	13.9858462745361	0.948740396777407	-0.950470143753898	0.00138936955227464	-0.011772160828823
0.9	4.99539521291358	-1.52430854964497	662.750180704648	-5.06061095323534	13.5842849912627	0.810091937843322	-0.817284425723302	0.00120087241105471	-0.0122535520894042
0.91	4.76376430372632	-1.33194561666712	657.510713949907	-5.19286293072375	13.2265869095361	0.650855223462642	-0.661506191956267	0.000929376004174975	-0.0126284664048899
0.92	4.29994387892429	-1.16025218326079	651.431721113355	-5.34453569995225	12.9311283336179	0.495667106680039	-0.507375436644539	0.000616812553839607	-0.0128855994613309
0.93	3.70146571787491	-1.03691465425438	645.16913923167	-5.49028462770147	12.7082962905648	0.367528195215002	-0.377979926984969	0.000310114022887276	-0.0130290553525332
0.94	3.09015552677605	-0.977248905426578	639.439343288912	-5.60676272311999	12.5588460019281	0.284308875766553	-0.291776966243584	5.42442926158015e-05	-0.0130787626262605
0.95	2.59338678387336	-0.982943243605356	634.919813043637	-5.67641968652084	12.4742226141039	0.256071379099087	-0.259809425264397	-0.000114840316143838	-0.0130674155009626
0.96	2.32097045624798	-1.04339839550163	632.143946161251	-5.69062653447572	12.4391232863118	0.283579103067645	-0.284002286571257	-0.000176409315873705	-0.0130338152942741
0.97	2.34169384184291	-1.13895139719421	631.408839681572	-5.65159338767542	12.4359579386478	0.358197282742713	-0.356787962813502	-0.000129276125614197	-0.0130135483810579
0.98	2.66457539068004	-1.24506337491222	632.714941829722	-5.57256640266504	12.4502338213272	0.463213905952691	-0.462152954737901	6.87423702039336e-06	-0.0130289630395155
0.99	3.22994892898938	-1.33660978595197	635.752553836879	-5.47597618126076	12.4754593048412	0.576435605320681	-0.578029836833767	0.000193918599284082	-0.0130810338666092
1	3.91428439729001	-1.39162478280592	639.942537043755	-5.38959760835503	12.5161177508673	0.673740517750933	-0.679775642146928	0.00038156149141555	-0.0131456336161139
1.01	4.55014838058762	-1.39410538196452	644.528323293507	-5.34130636424357	12.5876775560695	0.733103576252526	-0.744285455462551	0.000516542224526129	-0.0131758579298119
1.02	4.95918244054657	-1.33570556630666	648.705269241276	-5.35352002952991	12.7134030590475	0.738471634849781	-0.754113577610877	0.000552945520716386	-0.013110517858876
1.03	4.99213077879139	-1.21632474085034	651.763986756431	-5.43868377449997	12.9186892194122	0.682799473022987	-0.700864116741458	0.000461207026111077	-0.0128871343373779
1.04	4.56687252712554	-1.04372609410026	653.219154741683	-5.5970322273243	13.2244498463925	0.569615196152638	-0.587131675392257	0.000233509966592882	-0.0124562992832742
1.05	3.69432818599588	-0.832413214281048	652.896532657508	-5.81728894836653	13.6414517774665	0.412699716764218	-0.426469536381634	-0.000115856819969506	-0.011793641789871
1.06	2.48389492225931	-0.602033524112267	650.959050171858	-6.08009243614151	14.1672460356014	0.233828197767977	-0.241237252277662	-0.000555170495780688	-0.0109061488967384
1.07	1.12475922424325	-0.375538735943918	647.866452881288	-6.36305985618912	14.7865519968786	0.0589573186482279	-0.0586608420019374	-0.00104343643970972	-0.00983114859047107
1.08	-0.154037278824275	-0.177207572271977	644.278550208197	-6.64586479329777	15.4748621635523	-0.0863738505740845	0.0941073729284557	-0.00153945928666321	-0.00862838648652481
1.09	-1.13553681406	-0.0304687923121409	640.925126756266	-6.91375715366852	16.204034914368	-0.181461704129544	0.194869688389561	-0.00200912035868361	-0.00736760170624629
1.1	-1.66559285995612	0.044641472828995	638.472118413462	-7.15860199576881	16.9480868110129	-0.213770901000649	0.230160954435065	-0.00242903286895069	-0.00611515460996914
1.11	-1.68912745315339	0.0344705277342113	637.411936127968	-7.37750736819535	17.6874706471689	-0.180588784545554	0.19718860019343	-0.00278625966466917	-0.00492321425462461
1.12	-1.26268055043816	-0.0650574447405517	637.996933256162	-7.57003508359684	18.4107700326495	-0.0888509952873343	0.103692281881478	-0.00307529080839397	-0.00382387191775868
1.13	-0.540706700930071	-0.245770293645614	640.222417620229	-7.73545448291741	19.1136801075303	0.0465964628487065	-0.034019387160994	-0.00329435541448952	-0.00282881060534956
1.14	0.259883411232781	-0.486205417172233	643.853639870651	-7.87132595885147	19.7960097068517	0.205774175274591	-0.194251696486991	-0.00344304994369993	-0.00193350744753024
1.15	0.907309119016572	-0.753284032511256	648.483291283266	-7.97399380986945	20.4579321482368	0.366800239119499	-0.353607571692884	-0.00352231657216129	-0.0011239361947416
1.16	1.2031006524499	-1.00719794269669	653.603586948224	-8.04066156196782	21.0967130621862	0.509078380812096	-0.490538943502036	-0.00353648770855919	-0.000383593903299784
