Time [s]	GRFml [N]	GRFap [N]	GRFv [N]	Mml [N.m]	Map [N.m]	Mv [N.m]	Mfree [N.m]	COPml [m]	COPap [m]
0.01	6.99117891084821	6.93995753510304	543.069448642207	-52.1034480942555	-5.79323888108571	-0.737970107973713	0.00675749411181971	-0.00554778095184413	0.0178104870607258
0.02	6.92315275509213	6.77356827050109	542.925372844931	-52.0727425280551	-5.75753491571866	-0.681493793151202	0.0543214862883489	-0.00548312915632812	0.0177833469720652
0.03	6.85650194230759	6.61001582278991	542.782976983859	-52.0430516901781	-5.72179788987601	-0.626033152211317	0.101063696193183	-0.00541840695598537	0.0177573540204458
0.04	6.79229660470896	6.45256198696047	542.645271961311	-52.0159079456434	-5.68605216630703	-0.572629668939435	0.146093616893872	-0.00535360848357403	0.0177347319275865
0.05	6.73150049545263	6.30434837156551	542.515421242827	-51.9929033480991	-5.65029050666562	-0.52226805453455	0.188565008023018	-0.00528866603594295	0.0177178216517688
0.06	6.67492940092774	6.16828663025704	542.396652680674	-51.9756292885273	-5.61448240253086	-0.47583986644845	0.227706760028715	-0.00522346711684923	0.0177089819987424
0.07	6.62321574430475	6.04695867893387	542.292152186417	-51.9656127114132	-5.57858269738597	-0.43411135027338	0.262850282624077	-0.00515787238759342	0.0177104840921066
0.08	6.57678111764018	5.94253121941367	542.204941862907	-51.9642513453908	-5.54253982742123	-0.397696959401791	0.293452171811718	-0.00509173325063964	0.0177244050545559
0.09	6.53581804019095	5.85668810827441	542.137747263835	-51.9727505656676	-5.50630314940722	-0.367039674038385	0.319111189822961	-0.00502490800206957	0.017752526369053
0.1	6.50028174678002	5.79058315306039	542.092860326458	-51.9920645815006	-5.46982898315732	-0.342398858680959	0.33957891684115	-0.00495727572909373	0.0177962421076946
0.11	6.46989229968551	5.74481484184928	542.072006005213	-52.0228446092752	-5.43308515868554	-0.323845990630141	0.354763781805957	-0.00488874738020867	0.0178564815793599
0.12	6.44414682566835	5.719423379453	542.076221546714	-52.0653965415784	-5.3960540119752	-0.311268186408026	0.364728530857273	-0.00481927368617155	0.0179336500409068
0.13	6.42234123567313	5.71390928119311	542.10575756979	-52.1196503521267	-5.35873390914842	-0.304379071169537	0.369681525888531	-0.00474884985143067	0.0180275900503661
0.14	6.40360040964747	5.72727172892949	542.16000958796	-52.1851430884792	-5.32113949005857	-0.30273619803839	0.369962564039128	-0.00467751716015936	0.0181375649272404
0.15	6.38691553491513	5.75806398380219	542.237487340378	-52.2610168080901	-5.28330090431491	-0.305763945466771	0.366024156427404	-0.00460536183953832	0.0182622647219402
0.16	6.37118707664137	5.80446242641507	542.335827348139	-52.3460322233292	-5.24526236279264	-0.312780612367668	0.358409389175552	-0.00453251168490568	0.0183998341517197
0.17	6.35527172824346	5.86434529580056	542.451851610228	-52.4385981583769	-5.20708034492587	-0.323028299462691	0.34772760388319	-0.0044591310659928	0.0185479211671067
0.18	6.33803162721007	5.93537694648126	542.581672469363	-52.536816211569	-5.16882178752772	-0.335704113132773	0.334629174376108	-0.00438541499149479	0.0187037441703496
0.19	6.31838411324865	6.01509344505249	542.720840618914	-52.6385392918999	-5.13056253741051	-0.349991253004289	0.319780622210226	-0.0043115829053655	0.0188641753907041
0.2	6.29535033571261	6.10098557393585	542.864530213085	-52.7414419929006	-5.09238628239889	-0.365088640727824	0.303841209644909	-0.00423787282280044	0.0190258374934451
0.21	6.2681010724536	6.19057577398373	543.007752309908	-52.8431001184105	-5.05438408979685	-0.380237905764698	0.287441984238091	-0.00416453629365764	0.0191852101252588
0.22	6.23599819328484	6.28148619850544	543.1455856302	-52.9410761210129	-5.01665458565767	-0.394746752526268	0.271168036193121	-0.0040918345189419	0.0193387427568545
0.23	6.19863028441971	6.37149581640359	543.273412031916	-53.0330067917878	-4.97930471079261	-0.408007977738504	0.255544483592191	-0.0040200357594367	0.0194829698739486
0.24	6.15584104794524	6.45858533125805	543.387143307368	-53.1166892823071	-4.94245089900473	-0.41951367176664	0.241026439457628	-0.00394941398449072	0.01961462431251
0.25	6.10774921044388	6.54096951360474	543.48342598182	-53.1901614725162	-4.90622044769028	-0.428864406542243	0.227992957047228	-0.00388024853305946	0.0197307443739028
0.26	6.05475882896546	6.6171173153179	543.559811734378	-53.2517728380817	-4.87075279763984	-0.435773469748545	0.216744714380511	-0.00381282441558536	0.0198287703406169
0.27	5.99755908383577	6.68576079572791	543.61488282111	-53.3002423230446	-4.8362004126921	-0.440066435483039	0.207505002179383	-0.00374743278714017	0.0199066261925907
0.28	5.93711290821639	6.74589439873613	543.648324343684	-53.3347002800811	-4.80272895365583	-0.441676553563706	0.200423434117445	-0.00368437107723721	0.0199627827344421
0.29	5.87463413197473	6.79676645351584	543.660938214513	-53.3547122793077	-4.7705164748888	-0.44063658408766	0.19558171261818	-0.00362394227225437	0.0199962990009809
0.3	5.81155321421574	6.83786491953633	543.654597026122	-53.3602834719624	-4.73975143381597	-0.43706779584872	0.193000759898138	-0.00356645290999937	0.0200068397019656
0.31	5.74947209896061	6.86889936685836	543.632139523096	-53.3518431804047	-4.71062938883777	-0.431166886152776	0.192648559126506	-0.00351220945599145	0.0199946675601836
0.32	5.69010923764032	6.88978099661892	543.597212778834	-53.3302104148062	-4.68334836293244	-0.423191569135362	0.194448135631948	-0.00346151287775379	0.0199606106289794
0.33	5.63523635769684	6.90060219764134	543.55406928533	-53.296542028671	-4.6581029608099	-0.4134455274841	0.198285229795583	-0.00341465140470235	0.0199060059684247
0.34	5.58660908878047	6.90161674433233	543.507329783356	-53.2522661580859	-4.63507743798519	-0.402263339165144	0.204015355545837	-0.00337189164337098	0.019832622326199
0.35	5.545894051479	6.89322131330799	543.461724637354	-53.1990043851464	-4.61443802178791	-0.389995888873333	0.211470084174612	-0.00333346839606862	0.0197425656219654
0.36	5.51459542987031	6.87593857580983	543.421827780995	-53.1384866739948	-4.59632486887276	-0.376996666398379	0.220462526487681	-0.00329957369074567	0.0196381719917515
0.37	5.49398434998406	6.85040174973482	543.391797661459	-53.07246350962	-4.58084410422391	-0.363609252716123	0.230792093844567	-0.00327034565667498	0.0195218938444527
0.38	5.48503453610195	6.81734020110259	543.37513918088	-53.0026198006694	-4.56806041769354	-0.350156208629159	0.242248691360544	-0.00324585796224888	0.0193961847673906
0.39	5.48836768676898	6.77756549209931	543.374499412217	-52.9304949798916	-4.55799069273387	-0.336929515860923	0.254616530296491	-0.0032261105587219	0.01926338916471
0.4	5.50421178315683	6.73195719235052	543.391507942684	-52.8574133579502	-4.55059910761956	-0.324182678195527	0.26767774232538	-0.00321102244261294	0.019125642216863
0.41	5.53237510720459	6.68144780137664	543.426670201103	-52.7844281827054	-4.54579408415339	-0.312124568033672	0.281215941253562	-0.00320042706076197	0.018984785129684
0.42	5.57223811337181	6.62700626252312	543.479319217539	-52.7122820651355	-4.54342736710052	-0.300915095649715	0.295019816573412	-0.00319407084257611	0.018842299736894
0.43	5.62276448871984	6.56961976267516	543.547628124836	-52.6413855046171	-4.54329540599719	-0.290662776179209	0.308886768621579	-0.00319161516595642	0.0186992653879751
0.44	5.68253178895941	6.51027378209493	543.628682528296	-52.571814237736	-4.54514308762342	-0.281424263650456	0.322626518397483	-0.00319264186282401	0.0185563397665555
0.45	5.74978100353527	6.4499306553506	543.718608820542	-52.5033251073768	-4.54866974117355	-0.273205903404205	0.336064556861502	-0.00319666216495767	0.0184137639248732
0.46	5.82248334113778	6.38950719702026	543.812751764173	-52.4353891634152	-4.55353721776752	-0.265967317128619	0.349045247687326	-0.00320312879836132	0.0182713904738158
0.47	5.89842150462388	6.32985220551888	543.905892338038	-52.3672398195051	-4.55937973927007	-0.259626974638778	0.361434370498594	-0.00321145076913684	0.0181287326196884
0.48	5.97528180907119	6.27172485950358	543.992495043939	-52.2979331509087	-4.56581512463731	-0.254069623448807	0.373120892297679	-0.00322101025587227	0.0179850306641586
0.49	6.05075275309384	6.21577514384679	544.066972662609	-52.2264168638647	-4.57245693928026	-0.249155345219509	0.384017783897406	-0.0032311809375559	0.0178393317447331
0.5	6.12262513787928	6.16252747302393	544.123955857971	-52.1516041223706	-4.57892707599007	-0.244729895234314	0.394061753657012	-0.00324134704149843	0.0176905780331479
0.51	6.18888858409985	6.11236861362667	544.158555049227	-52.0724482939867	-4.58486826436959	-0.24063586808453	0.403211848064097	-0.00325092238804589	0.0175376983505079
0.52	6.24781935065641	6.06554084732544	544.166602563139	-51.9880147685454	-4.58995601720824	-0.236724132407388	0.411446960829644	-0.00325936873082604	0.017379698201166
0.53	6.29805471844696	6.02214107137253	544.144864181536	-51.8975462954085	-4.59390955335303	-0.232864902726491	0.418762390577628	-0.00326621273501142	0.0172157435516651
0.54	6.33864985363504	5.98212622272334	544.091210731515	-51.8005187478716	-4.59650128336072	-0.228957778750159	0.425165682210416	-0.00327106099465078	0.0170452342482668
0.55	6.36911397447735	5.94532505624391	544.004742238015	-51.6966848208017	-4.59756450267187	-0.22494009064311	0.430672068556869	-0.0032736125586407	0.0168678637248305
0.56	6.38942376151086	5.91145593269383	543.885859277248	-51.5861038578569	-4.59699900393971	-0.22079294760946	0.435299887423103	-0.00327366851107133	0.0166836625418952
0.57	6.40001320565141	5.8801499048327	543.736278443927	-51.4691567442221	-4.59477439306676	-0.216544496752943	0.43906637660975	-0.00327113823558182	0.016493024254405
0.58	6.40174040496267	5.85097805584323	543.558991190124	-51.3465455476954	-4.59093097092772	-0.212270054856961	0.441984240230675	-0.00326604208675542	0.0162967130680898
0.59	6.3958331159856	5.82348176629295	543.35816763067	-51.2192783072104	-4.58557812382217	-0.208088968064673	0.444059331476299	-0.00325851029681434	0.0160958536575779
0.6	6.38381605796407	5.797204382727	543.139009167349	-51.0886400214561	-4.57889024981197	-0.20415827015738	0.445289711437027	-0.0032487780646811	0.015891904336667
0.61	6.36742398326998	5.77172264584429	542.90755589428	-50.956151456139	-4.57110033448168	-0.200663433192612	0.44566622649156	-0.00323717690694892	0.0156866154580077
0.62	6.34850530224396	5.74667621601239	542.670456644746	-50.8235178489583	-4.56249137696692	-0.197806717303357	0.445174607666073	-0.00322412249417824	0.0154819754533522
0.63	6.32892153958858	5.72179370922295	542.434711161259	-50.6925699359021	-4.5533859531226	-0.195793812332555	0.443798946928662	-0.00321009934627782	0.0152801472963763
0.64	6.310448076121	5.69691382202005	542.207395152363	-50.5651999466375	-4.54413428431623	-0.194819607292281	0.441526262062783	-0.00319564291012596	0.0150833983790587
0.65	6.2946814889496	5.6720003686133	541.995379880277	-50.4432953214151	-4.53510125355767	-0.195054012104724	0.438351738319464	-0.0031813196817303	0.0148940268503672
0.66	6.28295836060262	5.64715036208696	541.805058346994	-50.3286728920059	-4.5266528709863	-0.196628781549957	0.434284144902418	-0.00316770615382065	0.0147142873904464
0.67	6.27628971775166	5.62259462593346	541.642090066747	-50.2230161528479	-4.51914273343641	-0.1996262504469	0.42935087805937	-0.00315536745762739	0.0145463192071744
0.68	6.27531433285174	5.59869080186079	541.511175799248	-50.1278180362547	-4.51289904350044	-0.20407078347419	0.423602086622708	-0.00314483661576485	0.0143920787695076
0.69	6.28027303829645	5.5759090043219	541.415872462029	-50.0443313094676	-4.50821274861134	-0.209923579176194	0.417113391876708	-0.00313659532493977	0.0142532794578463
0.7	6.29100502988166	5.55481074172862	541.358456759877	-49.9735283452758	-4.5053273278187	-0.217081256378846	0.409986818096542	-0.0031310571390566	0.0141313399379899
0.71	6.30696594329667	5.53602206098807	541.339843914608	-49.9160715969746	-4.50443069243133	-0.225378406737018	0.402349694593835	-0.00312855382524293	0.0140273426709814
0.72	6.3272663400148	5.52020216061369	541.359565332495	-49.872295649013	-4.50564957775953	-0.234594036205096	0.394351462084921	-0.00312932552120797	0.0139420035712458
0.73	6.35072819696552	5.50800894604003	541.415806225094	-49.8422012344146	-4.50904669009266	-0.244461558944673	0.386158500202833	-0.00313351513958943	0.0138756534310885
0.74	6.37595610830734	5.5000631599194	541.505501245714	-49.8254611275269	-4.51462074107807	-0.254681767718893	0.377947272078654	-0.00314116725394317	0.0138282313488384
0.75	6.4014192171222	5.49691280426407	541.624483282833	-49.8214373549024	-4.5223093578606	-0.264938002139164	0.369896239387998	-0.00315223147428321	0.0137992900363025
0.76	6.42553942749132	5.49899957751254	541.767677838169	-49.8292087368808	-4.53199471001886	-0.27491258475422	0.362177122202418	-0.00316657009110189	0.0137880125427978
0.77	6.44678121822625	5.50662897803536	541.929333084022	-49.8476073952566	-4.54351155248408	-0.284303505865168	0.354946150848367	-0.003183969549021	0.0137932396210238
0.78	6.46373839113789	5.51994557916051	542.103273899252	-49.8752625535523	-4.5566572562009	-0.292840317601004	0.34833597471536	-0.00320415511699475	0.0138135066772231
0.79	6.4752133300178	5.53891476516366	542.283167054547	-49.9106497279676	-4.57120329348545	-0.300298247628329	0.342448853763043	-0.0032268079618383	0.0138470889972623
0.8	6.4802848017969	5.56331194123573	542.462784342385	-49.9521432671388	-4.5869075696654	-0.306509659096144	0.337351665960267	-0.00325158371405909	0.0138920537244431
0.81	6.47836096996948	5.59271990423875	542.636250861417	-49.9980701510562	-4.60352695157741	-0.311372157279918	0.333073126668511	-0.00327813154534861	0.0139463168875013
0.82	6.46921507654555	5.62653469851403	542.798266847569	-50.0467630027929	-4.62082933956315	-0.314852861919328	0.329603446750971	-0.00330611275905281	0.0140077036423525
0.83	6.45300214165925	5.66397989753605	542.944293315264	-50.0966103955346	-4.63860466309996	-0.316988611377665	0.326896470336825	-0.00333521792954471	0.0140740098034105
0.84	6.43025598560944	5.70412886466278	543.070694197517	-50.1461027421374	-4.65667424912999	-0.317882122726439	0.324874147138183	-0.00336518171245567	0.0141430627050548
0.85	6.40186685154051	5.7459341722077	543.174830473546	-50.1938723220756	-4.67489811233251	-0.317694382729337	0.323433023788195	-0.0033957945816879	0.0142127794567876
0.86	6.36904085387949	5.78826301511058	543.2551047362	-50.2387263156589	-4.69317984194802	-0.316633771794924	0.322452297412791	-0.00342691092519514	0.0142812207422627
0.87	6.33324335603659	5.82993716036843	543.310957555029	-50.2796720606398	-4.71146890273618	-0.314942612150245	0.321802872702247	-0.00345845314146127	0.0143466384668998
0.88	6.29612915250613	5.86977574130841	543.342819617427	-50.3159341039116	-4.72976031961655	-0.312881972088871	0.321356807066268	-0.00349041161185036	0.0144075157827773
0.89	6.25946296211323	5.9066390496901	543.352025790383	-50.3469629732265	-4.74809186732043	-0.310715643505266	0.320996518589819	-0.00352284066779765	0.0144625983105175
0.9	6.22503420345233	5.93947140853503	543.340698795436	-50.3724359241042	-4.76653902873811	-0.308694237511614	0.320623165906307	-0.00355585091168632	0.0145109157283309
0.91	6.19457029997231	5.96734123091736	543.311611044741	-50.3922502107121	-4.78520810979553	-0.307040314087642	0.320163681841661	-0.00358959847074516	0.0145517932949881
0.92	6.1696528373067	5.98947648685844	543.268033330097	-50.40650967459	-4.804227996826	-0.305935381108733	0.319576045459268	-0.00362427194899033	0.0145848532974156
0.93	6.15164076355494	6.00529400917103	543.213578540415	-50.4155056332861	-4.82374110819272	-0.305509473003136	0.318852500396546	-0.00366007797902362	0.0146100068415556
0.94	6.14160448650458	6.01442136134884	543.152047519917	-50.4196931777645	-4.84389412099922	-0.30583385879876	0.318020561365591	-0.00369722635194704	0.0146274368109693
0.95	6.14027419089773	6.01671035240481	543.087282731689	-50.4196640524022	-4.86482904409081	-0.30691724362078	0.317141786273071	-0.00373591571224	0.0146375731747282
0.96	6.14800499337212	6.01224169535516	543.023033752045	-50.4161172979193	-4.88667516081171	-0.308705627459388	0.316308420697821	-0.00377632074253922	0.0146410621096049
0.97	6.16476070156204	6.00132074344569	542.962836992748	-50.4098287923374	-4.90954228245356	-0.311085780908049	0.315638138056905	-0.00381858163367349	0.0146387305909715
0.98	6.19011698532973	5.98446467348877	542.909910618346	-50.4016207372624	-4.93351564189568	-0.313892099883515	0.315267197847329	-0.00386279644633303	0.0146315481881645
0.99	6.2232837493215	5.96238188986459	542.86706454745	-50.3923320171724	-4.95865262469194	-0.31691641975382	0.315342422436254	-0.00390901673570765	0.0146205877677082
1	6.26314547142295	5.93594476828558	542.836624798786	-50.382790219374	-4.98498139155039	-0.319920212625111	0.316012447738783	-0.00395724654671539	0.0146069866654667
1.01	6.30831730034058	5.90615712203162	542.820371299603	-50.3737859529729	-5.01250130246352	-0.322648467470332	0.31741873347963	-0.00400744461528389	0.0145919096500952
1.02	6.35721384758358	5.87411793866268	542.819488580383	-50.3660499567197	-5.0411849194997	-0.32484446764057	0.319686824088701	-0.00405952935208153	0.014576514687956
1.03	6.40812692110482	5.84098299479615	542.834529436271	-50.3602333464576	-5.07098125259607	-0.326264638705704	0.322918331868655	-0.00411338596034032	0.0145619221645778
1.04	6.45930797779323	5.80792591301438	542.865392490243	-50.3568912296374	-5.10181982928962	-0.326692644104929	0.327184070909595	-0.00416887486817818	0.0145491878556215
1.05	6.50905085460182	5.77610009081989	542.911315461373	-50.3564698112282	-5.13361512174526	-0.325951956952236	0.332518705224413	-0.00422584055366457	0.0145392796088623
1.06	6.5557703908885	5.74660272774631	542.970886630367	-50.3592970341761	-5.16627085657456	-0.323916231108084	0.338917190680443	-0.00428411981812156	0.0145330574334965
1.07	6.59807287550397	5.72044193027997	543.042077327236	-50.3655767378525	-5.19968376561238	-0.320516928144601	0.346333191547605	-0.00434354862369332	0.0145312565234871
1.08	6.63481481912266	5.6985076150454	543.122298107086	-50.3753862769806	-5.23374640662568	-0.315747821360243	0.354679543943115	-0.00440396675168696	0.0145344726869972
1.09	6.66514732447154	5.68154668798119	543.208480554198	-50.3886775168093	-5.26834878630886	-0.309666183607532	0.363830726023028	-0.00446521974788908	0.0145431497205358
1.1	6.68854424836403	5.67014277600124	543.297185359597	-50.4052811020025	-5.30337864551137	-0.302390660871211	0.373627184831116	-0.0045271578827155	0.0145575684458651
1.11	6.70481335324487	5.66470064559665	543.38473552794	-50.4249138803186	-5.33872040791124	-0.294096025955226	0.383881268726084	-0.00458963214537252	0.0145778373968998
1.12	6.71409066107689	5.66543536800961	543.467371432176	-50.4471893412683	-5.37425293642766	-0.285005184028421	0.394384428398981	-0.00465248758712838	0.0146038854667107
1.13	6.71681917898283	5.67236628008963	543.541422153115	-50.4716308989093	-5.40984637435693	-0.275378952744931	0.404915284088124	-0.00471555460402778	0.0146354571557509
1.14	6.71371400121722	5.68531582997035	543.603485356734	-50.4976878025175	-5.44535845902052	-0.265504254455898	0.415248116085454	-0.00477863898089296	0.0146721113513056
1.15	6.70571645458457	5.7039134642294	543.650606126384	-50.5247533967079	-5.48063077482086	-0.255681429255459	0.425161323051302	-0.0048415116874903	0.0147132247656102
1.16	6.69394040821656	5.72760477882165	543.680443915471	-50.5521853735262	-5.51548545273343	-0.246211400737987	0.434445409419466	-0.00490389951113206	0.0147580012237104
1.17	6.67961409454271	5.75566618813681	543.691416311354	-50.5793275654119	-5.54972282028754	-0.237383400186607	0.442910108752835	-0.00496547762062075	0.0148054878920642
1.18	6.66402078469544	5.78722533575452	543.682808730725	-50.6055327246256	-5.58312045935521	-0.229463881846723	0.450390321590768	-0.00502586508304226	0.0148545992622549
