Time [s]	GRFml [N]	GRFap [N]	GRFv [N]	Mml [N.m]	Map [N.m]	Mv [N.m]	Mfree [N.m]	COPml [m]	COPap [m]
0.01	-1.0890674774125	4.54339846251125	720.671386912678	-3.37607308873281	30.7411951004925	0.331485480979505	-0.520246909201863	-0.00273896305973464	0.00909369733836607
0.02	-1.25097923894329	4.34649683919981	720.409808413849	-3.43454333629682	30.8449705257473	0.32011423475311	-0.500261635566268	-0.00282136995880189	0.00925488838381139
0.03	-1.41991131794574	4.16183435237336	720.094838814048	-3.49561843567353	30.9528905455151	0.309398542881916	-0.481415370451016	-0.00290779514572015	0.00942506561863204
0.04	-1.60435052951112	4.00079222707461	719.686898062385	-3.56176703224282	31.0680550024008	0.299729984374299	-0.464534618303546	-0.00300198244680072	0.00961094193642698
0.05	-1.81193278221804	3.87052918843944	719.173071210788	-3.63422794137326	31.1916168103185	0.291177406825048	-0.449940349336958	-0.00310578382732185	0.00981492331306982
0.06	-2.04750365350901	3.77264863312673	718.570416559037	-3.71249020294116	31.3225705112506	0.283518123659089	-0.437434065166056	-0.00321840202564705	0.0100346097213487
0.07	-2.31054935580515	3.70302253640062	717.921268956658	-3.79402940508043	31.4579816952047	0.276392430996271	-0.426462652182652	-0.00333604047240521	0.0102633853794514
0.08	-2.59297951109578	3.65283734702428	717.282780239621	-3.87442254135384	31.5934569561897	0.269511294627583	-0.416387368759535	-0.00345212294581931	0.0104916888319913
0.09	-2.8784453992977	3.61062807527201	716.713999377875	-3.94791512005085	31.7236441754932	0.262831567269072	-0.406752874392998	-0.00355817023870342	0.0107084777018658
0.1	-3.14400928149201	3.56482512034609	716.263718581756	-4.00840007224447	31.842639398433	0.256634383088749	-0.397466011914852	-0.00364525839675056	0.0109025269953112
0.11	-3.36416193800767	3.50622996890924	715.961591638226	-4.05062411513514	31.9443017106438	0.251485416810632	-0.388838161525939	-0.00370578160534019	0.0110634137925689
0.12	-3.51625702287579	3.42988285074728	715.814063344746	-4.07132610581831	32.0225762150388	0.248100894111457	-0.381498335771803	-0.00373508983928439	0.0111822321383047
0.13	-3.58579290622251	3.33595955378767	715.805590504216	-4.06998848139525	32.07194979397	0.247174339751694	-0.376226719701894	-0.00373254468594975	0.0112521763369867
0.14	-3.56990615857071	3.22957308363901	715.904527094678	-4.04896626530645	32.0881017557795	0.249227332652766	-0.37377699213338	-0.00370166326171406	0.0112691095408541
0.15	-3.4779842239904	3.11958571722482	716.072001441975	-4.01292346293601	32.0686879289677	0.254532928080337	-0.374747200264717	-0.00364926306467916	0.0112321274618103
0.16	-3.32924150853317	3.0167033321439	716.271381203794	-3.96769825871756	32.0140677755022	0.263130109275197	-0.379529561841963	-0.00358379800705222	0.0111439954040334
0.17	-3.14806293481376	2.93120978191784	716.475790150237	-3.91887487772895	31.9277125825256	0.274913024246655	-0.388332434954171	-0.00351329776205844	0.0110112491856922
0.18	-2.95854455988116	2.8707242103894	716.671755376832	-3.87041730539003	31.8160630629981	0.28975149873998	-0.401237646608427	-0.00344342548717147	0.0108437582439462
0.19	-2.77975757194867	2.8383604101121	716.858299123628	-3.82370224975806	31.6877418014478	0.307587728831044	-0.418244372688439	-0.00337613211394872	0.010653666192445
0.2	-2.62286228061855	2.83164621237327	717.042249575503	-3.77718523611074	31.5522292238528	0.328461031367705	-0.439259971256353	-0.00330922660416466	0.0104538177697251
0.21	-2.49051735694408	2.84249709579273	717.23170663003	-3.72677147073911	31.4183068952673	0.352435435027363	-0.464023396212441	-0.00323694425023302	0.0102559804568305
0.22	-2.37834576775363	2.85838600556199	717.430035469058	-3.66678074464968	31.2926793007579	0.379437205099381	-0.491977574073291	-0.00315133744792373	0.0100692897622767
0.23	-2.27775108581369	2.86459005176824	717.632340267166	-3.59124025991528	31.1791535475342	0.409042879558719	-0.522132594729379	-0.00304410187763227	0.0098993265237452
0.24	-2.17921014030739	2.84707203763278	717.825315856882	-3.49515867144521	31.078587273929	0.440284718286031	-0.552974660775208	-0.00290834943581741	0.00974806173884341
0.25	-2.07525183630843	2.79529060670848	717.990152727577	-3.37546076182992	30.989566137689	0.471551958653674	-0.582474189195161	-0.00273988695033578	0.00961463175449573
0.26	-1.96254857027474	2.7041679069405	718.107262160752	-3.23139192676009	30.9095360129571	0.500656671000028	-0.608231082786094	-0.00253774765856918	0.0094966337028789
0.27	-1.8427872511377	2.57465655561973	718.161274590308	-3.06438947032685	30.835981315794	0.525099274264667	-0.627767595878709	-0.00230398484444427	0.00939146567928423
0.28	-1.72220623181441	2.41279273522086	718.145026791441	-2.87758979137436	30.7672600009004	0.542513980060551	-0.638941509451643	-0.00204297196051129	0.00929724871614168
0.29	-1.60990022626306	2.22763385326288	718.061827966837	-2.6752276324027	30.7028679277539	0.551210239295377	-0.640409424681786	-0.00176056765295318	0.00921305947192558
0.3	-1.51524026984777	2.0288452865942	717.925836996874	-2.46215502263892	30.6431445087638	0.550672467155984	-0.632032354357726	-0.00146345827967653	0.00913850200531818
0.31	-1.4450173319181	1.82476565716819	717.760661662698	-2.24358657651769	30.5886517843204	0.541859774658923	-0.615099070316653	-0.00115881944020468	0.00907293449742363
0.32	-1.40111052972776	1.62151967272121	717.596309831785	-2.02502855854489	30.5395721377878	0.527176952694297	-0.592262105551535	-0.000854231326946508	0.00901482045198232
0.33	-1.37947634344649	1.42327820849204	717.464602771228	-1.81224308015857	30.4954311182952	0.510068693573493	-0.567142775921706	-0.000557638343855138	0.00896161990528088
0.34	-1.37096251988177	1.23328872034405	717.393373576651	-1.61108002356546	30.4552796391617	0.494301584285489	-0.543654286864776	-0.000277120521828156	0.00891038484715528
0.35	-1.36389459171204	1.05501359236795	717.400320228907	-1.42707735223579	30.418239547071	0.483106640541955	-0.525188386009624	-2.0340521149631e-05	0.0088588731646862
0.36	-1.34773329397248	0.892731563269677	717.488058553792	-1.26484738944931	30.3841298727378	0.478418638740672	-0.513875510515707	0.000206307719483712	0.00880669933579742
0.37	-1.31661696805692	0.751257945935863	717.64227590355	-1.12738009262881	30.3538322959086	0.480438691463698	-0.510131470319213	0.000398666279023074	0.00875593999810298
0.38	-1.27151729161548	0.634880373603711	717.834474488727	-1.01546150696308	30.3291528878388	0.487659708450456	-0.512635490112701	0.000555621920951044	0.00871077430077538
0.39	-1.22013572941267	0.545986263759614	718.029474664895	-0.927405748965615	30.3121531000368	0.497355656292583	-0.51876130553605	0.00067948150559427	0.00867611484776765
0.4	-1.17443414692799	0.484007169804057	718.195974901412	-0.859233637766755	30.3041628689611	0.506391185812993	-0.525344218473065	0.000775729364998479	0.0086556251971816
0.41	-1.14654389853872	0.445167204944028	718.316808299589	-0.805318798522913	30.3048462268943	0.512108871669397	-0.529561085465793	0.000852136732579112	0.00864983250255613
0.42	-1.14440504313409	0.423177983801921	718.394960484505	-0.759392870095183	30.3116934306833	0.513032113452853	-0.529665978455587	0.000917372056520316	0.00865508032489931
0.43	-1.16861503492889	0.410642017298769	718.452437487219	-0.715693090826586	30.3201602431097	0.509188163303119	-0.525374644838071	0.000979411595782631	0.00866379331885786
0.44	-1.2115654471417	0.40068168128708	718.521531819484	-0.669985194751993	30.3244325083432	0.501981923765843	-0.517807285562633	0.00104412035468771	0.00866604647740316
0.45	-1.25916816356845	0.388290020799071	718.631058780048	-0.620225130576452	30.3185698669824	0.493691358075395	-0.509039308020271	0.00111433192991128	0.00865194641166511
0.46	-1.29460642664895	0.371075439150118	718.792468149403	-0.566729879524736	30.297671843168	0.48676254784219	-0.501425060563498	0.00118960836563897	0.00861404565689294
0.47	-1.30290088561372	0.349333214188822	718.991291265001	-0.511875037067793	30.2587507218103	0.483125390139842	-0.496913869673533	0.00126665677185644	0.00854903844589383
0.48	-1.27487380268027	0.325596236077144	719.187760382989	-0.459470669802187	30.2011530531202	0.4837230981682	-0.496558956925294	0.00134019345505243	0.00845830064739367
0.49	-1.20937592052214	0.303917636929448	719.327156577901	-0.414037718972794	30.1265575435377	0.48836680399482	-0.500341573926209	0.00140394754725759	0.00834728487326181
0.5	-1.11328122937366	0.289115973826369	719.356762251197	-0.38019222786557	30.0386989323272	0.495921520108734	-0.507325972895662	0.00145151622844764	0.00822416233872181
0.51	-0.999501286812033	0.286123043120614	719.243683921283	-0.362257719474965	29.9429756483461	0.504734454329262	-0.516061205561151	0.001476903655519	0.00809826233949373
0.52	-0.883844515884039	0.299483654295277	718.987323586452	-0.364110017112002	29.8460106578769	0.51315639322733	-0.525081584703188	0.00147473639492868	0.00797876194191555
0.53	-0.781753413992215	0.333009704852296	718.622109878254	-0.38916545944061	29.7551212157031	0.519994040573547	-0.533343353137753	0.00144027796153634	0.00787381165234008
0.54	-0.705759836294032	0.389590078580947	718.209530042955	-0.44039038957777	29.6775985557008	0.524764893828892	-0.540469678978645	0.00136941202396756	0.00779000775561373
0.55	-0.664038489222534	0.471173510736563	717.822207784385	-0.520244674468845	29.6197522559996	0.527693883036529	-0.546745294471448	0.00125871706982861	0.00773198438464046
0.56	-0.659946346613524	0.578937647043682	717.525375207061	-0.630550602866104	29.5858207262343	0.529471616468662	-0.552882947243964	0.00110564771645993	0.00770195593762696
0.57	-0.692137616870637	0.713617227327891	717.361694239799	-0.772356653282265	29.5770136478706	0.530863609972429	-0.559651199217065	0.000908729639978345	0.00769923880681861
0.58	-0.754854623900412	0.8759004596105	717.343884219221	-0.945899866429689	29.5910364288667	0.532298347743387	-0.56748751980937	0.000667625754162349	0.00771998896683573
0.59	-0.838266937680971	1.0667489791651	717.456665784135	-1.15073886900111	29.6223822312561	0.533560393108183	-0.576214852925347	0.000382971400397003	0.00775747383148345
0.6	-0.929081339735399	1.28748733954001	717.666267325563	-1.38604307133269	29.66346373415	0.533677803155105	-0.584940836954547	5.59917149459688e-05	0.00780308684243813
0.61	-1.01184611648466	1.53955717746873	717.93332837875	-1.65092297843272	29.7063683047532	0.53103617153898	-0.592163448534642	-0.000311949426760938	0.00784804730848537
0.62	-1.07126635000906	1.82392546350973	718.224273904552	-1.94462415687828	29.7447729619476	0.523693179369133	-0.596053480416137	-0.00071963265915187	0.0078854232756484
0.63	-1.0954289073945	2.14024134949188	718.517297955491	-2.26642182928706	29.775455455566	0.509821695077354	-0.594845601311962	-0.00116587726123907	0.00791191088336063
0.64	-1.07927478641716	2.48591584293262	718.801498415802	-2.61514980903067	29.7989330721076	0.488182778765697	-0.587250031113808	-0.00164894982513719	0.00792879591259205
0.65	-1.02722583898076	2.85533324583931	719.070492962896	-2.98844466458399	29.819021610514	0.458523151179716	-0.572794666230504	-0.00216558471134221	0.00794172581530428
0.66	-0.953827355924951	3.23939543683418	719.31395833082	-3.38192694498765	29.8414400700491	0.421803668485578	-0.552020371731821	-0.00270990141060246	0.0079592642989138
0.67	-0.881715304509864	3.6255630675665	719.511202805892	-3.78861731250979	29.8718747873853	0.380195385357896	-0.526479094095813	-0.00327260861206047	0.00799056578656776
0.68	-0.837047548901018	3.99849928103353	719.629922252451	-4.19885880356184	29.9140648145483	0.336826151357368	-0.498524203564261	-0.00384085578555227	0.00804277095871025
0.69	-0.843452292101437	4.34133737057245	719.631155316619	-4.60088555105133	29.9684382404624	0.295316949598969	-0.470929772362783	-0.00439892665467889	0.00811880485561528
0.7	-0.916173542612784	4.63747783260443	719.479023144792	-4.98198073687832	30.0316414899203	0.259200254368199	-0.446419013613537	-0.00492971253034968	0.00821613907470642
0.71	-1.05815290438161	4.87268205359887	719.152044923926	-5.32996884900832	30.0970336904087	0.231345739102619	-0.427207335519285	-0.00541664323797109	0.0083268078200931
0.72	-1.2592206367644	5.03710309741094	718.652276790996	-5.63466250025241	30.1559562812674	0.21351866248836	-0.414661692773114	-0.00584558537941382	0.00843863428454827
0.73	-1.4985738872497	5.12682765266078	718.009314189917	-5.88888281534425	30.1994085853765	0.206161508429441	-0.40914497160414	-0.00620621012646927	0.00853732760775161
0.74	-1.74967093584424	5.14453962817724	717.277908700684	-6.088799938801	30.2197007372854	0.208431785105021	-0.41006383952678	-0.00649249466278945	0.00860892784404277
0.75	-1.98596209995077	5.0990687265953	716.529883966719	-6.23355127499837	30.2117133640375	0.218468158437014	-0.416088966111658	-0.00670229473220552	0.00864204325780904
0.76	-2.18576101798678	5.00382929491104	715.842524300209	-6.32431148144275	30.1735353133069	0.233811393297975	-0.425482941158654	-0.00683620791712913	0.00862943317847747
0.77	-2.33504073192936	4.87442225099694	715.286257424193	-6.36313230919261	30.1064280784713	0.251884507247072	-0.436459010719879	-0.00689613537207168	0.00856869673028177
0.78	-2.42778667047721	4.72588627538065	714.914223265812	-6.35189809859796	30.0142296965361	0.270436273091754	-0.447498672145757	-0.00688398534632106	0.00846206814018446
0.79	-2.4643943351844	4.57017655565248	714.755472842148	-6.29166032774109	29.9024235605967	0.287866840677989	-0.457570353468562	-0.00680085361721083	0.00831552547412823
0.8	-2.44913585213847	4.41439058185998	714.812474662362	-6.18247039598678	29.7771375035304	0.303378477329446	-0.46621015338114	-0.00664682867093624	0.00813753903732573
0.81	-2.38777784262472	4.26006994311588	715.0626895589	-6.02368600760925	29.6443044771185	0.316927127587991	-0.473449610623688	-0.0064213856111528	0.00793779493642843
0.82	-2.28607413742425	4.10364506502233	715.463416721488	-5.81462718430941	29.5091267388923	0.328991782603816	-0.479607147000282	-0.0061242093498719	0.00772614130314719
0.83	-2.14930648825544	3.93783447349207	715.958913414298	-5.55541172047449	29.3758738173604	0.340224392617704	-0.484997237284337	-0.00575623332142183	0.00751186428986561
0.84	-1.98257179760092	3.75362839076553	716.488788878188	-5.24778692351027	29.2479478581254	0.351081840728907	-0.489644621203313	-0.0053206655675736	0.00730326790397456
0.85	-1.79129980117081	3.54241254163459	716.996674385111	-4.89577191552459	29.1280962633387	0.361557351976951	-0.493104626839612	-0.00482376813681207	0.00710745555433473
0.86	-1.58156584239319	3.29781925422728	717.438078480354	-4.50593180958681	29.0186494190807	0.371108739453634	-0.494471766065869	-0.00427515886888452	0.00693020966738295
0.87	-1.36003735317696	3.01700163847571	717.78621604554	-4.08714686275555	28.9216982973169	0.378823642758838	-0.492604961699815	-0.00368745395483316	0.00677591893281093
0.88	-1.13368845299832	2.70117777428165	718.034646004864	-3.64984402861697	28.8391775730715	0.38378162734616	-0.48652239861702	-0.00307520580176335	0.0066475662251001
0.89	-0.909577845897259	2.35545371217886	718.195958574938	-3.20482053652803	28.7728606063553	0.385496614986289	-0.475848154896904	-0.0024533086778602	0.00654682124612249
0.9	-0.694934904903386	1.98807822344716	718.296562446058	-2.76195444068196	28.7242922153766	0.384280509040939	-0.461155518259089	-0.00183526911969278	0.0064742635024444
0.91	-0.497570723879883	1.60937918307449	718.368649078299	-2.32918053283671	28.6946881055616	0.381380397169894	-0.444067499990235	-0.00123185157286188	0.00642970983592545
0.92	-0.32635034929443	1.23065341380445	718.441289091819	-1.91204640299957	28.6848281152012	0.378808508183109	-0.42704349285549	-0.000650521900022127	0.00641257251183086
0.93	-0.191288722321491	0.863216978225592	718.532964477386	-1.51395546722171	28.6949714319765	0.378886100339608	-0.412881500065736	-9.58259331502731e-05	0.00642215893849546
0.94	-0.102881647722769	0.517692972249903	718.647461320766	-1.13693365262442	28.7248217807348	0.383624894305392	-0.40406364578115	0.000429529271161244	0.00645784714391689
0.95	-0.0705639173932545	0.203477055725785	718.77403681626	-0.782548497243122	28.7735589364243	0.394135460651251	-0.402133708985088	0.00092340594911644	0.00651911203076105
0.96	-0.100589701520626	-0.071751161116927	718.891490950188	-0.452564643241343	28.8399249630231	0.410255429041753	-0.407296203556209	0.00138334867997925	0.00660540967760825
0.97	-0.193973094379843	-0.302567056882862	718.974681992007	-0.149060871463652	28.9223192561213	0.430527393300407	-0.418364692248905	0.00180645117734801	0.00671593905576112
0.98	-0.345240461570187	-0.486361618120859	719.001494072523	0.126006493032956	29.0188382406728	0.452547234441167	-0.433082267765333	0.00218998725761044	0.00684930377686566
0.99	-0.542558684160225	-0.623758635255005	718.958419629372	0.371552171223295	29.1272143049867	0.473586267691927	-0.448724556888709	0.00253246287073927	0.00700311322968045
1	-0.76937654529406	-0.718667430845284	718.843610598832	0.588040795861342	29.2446664518071	0.491306284667209	-0.462812845965066	0.00283455664493393	0.00717360408553186
1.01	-1.00721941663204	-0.777821740038045	718.667147891358	0.777744978004341	29.3677482706796	0.504363036683552	-0.473738067276337	0.00309946430224095	0.00735541469444695
1.02	-1.23890773758212	-0.809823187304143	718.449025540364	0.944408588039792	29.4923258575682	0.512734991546278	-0.481130763415393	0.00333241207379542	0.00754166845397697
1.03	-1.45136375017776	-0.823881000109474	718.215723747047	1.09238148160879	29.6138019781275	0.517700944998987	-0.485892055254917	0.00353943905643805	0.00772447832730927
1.04	-1.63734621707441	-0.828527151828978	717.996239366542	1.22549512747447	29.7276124756289	0.521489893442282	-0.489897268637066	0.00372582908351837	0.00789585955183514
1.05	-1.79581081460253	-0.830553404471901	717.818204119752	1.34604087116301	29.8298843478633	0.526708182346762	-0.495467182250548	0.00389469717649682	0.00804886143810413
1.06	-1.93097663593581	-0.834300710041804	717.704448885526	1.45417147459006	29.9180219513062	0.535693024577684	-0.504750894492495	0.00404617427033827	0.00817857409366873
1.07	-2.05044983929678	-0.841308540809762	717.670198897399	1.54790134517742	29.9909466266574	0.549944211938444	-0.519172077788443	0.00417742880690952	0.00828261898052496
1.08	-2.16285881314904	-0.850266819396402	717.721031042808	1.62369215684687	30.0487984352271	0.569755395807255	-0.539062467259825	0.00428350027974178	0.00836085120255275
1.09	-2.27542753835701	-0.857224827987573	717.851737533635	1.67744277636799	30.0921058258355	0.594115902826544	-0.563555388636382	0.00435868756865176	0.00841427397720618
1.1	-2.3918405124137	-0.856069088655761	718.046256547779	1.70560201143058	30.1206699646382	0.620895823808085	-0.59075149283881	0.00439809783966483	0.00844349834166253
1.11	-2.51070458677491	-0.839327996940709	718.278814192519	1.70610917202192	30.1325910353933	0.647269812662151	-0.618109798221314	0.0043989458993261	0.00844733165539246
1.12	-2.62490185127927	-0.799342420756626	718.516362909146	1.67893482612893	30.1238920839601	0.670285599878637	-0.642968695792194	0.00436128996322982	0.00842212043279794
1.13	-2.72210269498397	-0.729739365266677	718.722294177274	1.6261172500651	30.0890375295183	0.687449687725601	-0.663072421669013	0.00428806237093282	0.00836225951774411
1.14	-2.78659283179282	-0.626988514528504	718.861236767652	1.55133170848551	30.0223426428178	0.697194636310593	-0.676976891897092	0.00418445114479704	0.00826187287930158
1.15	-2.80231413303164	-0.491678408201389	718.904516395975	1.45914911126252	29.9199355018816	0.699117200545295	-0.684239188890185	0.00405685403629441	0.00811722186887343
1.16	-2.75665327645114	-0.32910264691636	718.835564332119	1.35420434140376	29.781692622329	0.693933673417487	-0.685353364357734	0.00391171448686389	0.00792908108053525
1.17	-2.64415035463463	-0.14885197460944	718.654287187077	1.24048743257904	29.6125190508806	0.683175547746048	-0.681466953688072	0.00375453764187006	0.007704267756656
