Time [s]	GRFml [N]	GRFap [N]	GRFv [N]	Mml [N.m]	Map [N.m]	Mv [N.m]	Mfree [N.m]	COPml [m]	COPap [m]
0.01	-1.44100782224199	-6.43557168912764	578.206974585505	-19.9709483396443	4.00302472422917	-4.5007231906082	-4.50578431288833	0.00198539483240027	-0.0176276251319153
0.02	-1.19054215423461	-6.08298105137951	578.208908949559	-20.4490596562985	4.17841958104892	-4.54799771596849	-4.54600728799636	0.00228466288312288	-0.0168060188127979
0.03	-0.944275532424905	-5.73522088575871	578.222849369344	-20.9254759032228	4.35139354562306	-4.59495245650959	-4.58584724942987	0.00257966750682528	-0.0159879051862415
0.04	-0.707018044042149	-5.39573720096459	578.252029930304	-21.3986035013661	4.51957574476514	-4.64086960337842	-4.62476180218004	0.00286626625463191	-0.0151761375470939
0.05	-0.483415761758652	-5.06751574832644	578.298046215215	-21.8672558899186	4.68080860157223	-4.68502323824977	-4.66220520675551	0.00314071041083343	-0.0143727011527547
0.06	-0.277787872510283	-4.75298447119268	578.360583484437	-22.330609283422	4.83322035528652	-4.72669649994536	-4.69763919523654	0.0033997738108105	-0.0135787843705381
0.07	-0.0939753609972751	-4.45393438213231	578.437316377743	-22.7881583361561	4.97528307977194	-4.76520013254666	-4.73054537356511	0.00364085386095366	-0.012794870231053
0.08	0.0647925506860041	-4.17146234889376	578.524000779425	-23.2396767817518	5.10585354121173	-4.7998920806307	-4.76043907361735	0.00386204022150338	-0.0120208382723096
0.09	0.196008833804136	-3.90593903152763	578.614761419406	-23.6851856344865	5.22419523770609	-4.83019759648808	-4.78688426300192	0.00406214853468859	-0.0112560688418569
0.1	0.297971614397708	-3.65700470525736	578.70256103197	-24.1249290931522	5.32998106142638	-4.85562913196221	-4.80950889097999	0.00424071859387748	-0.0104995448094852
0.11	0.369836518219357	-3.42359490311537	578.779820028433	-24.5593561672441	5.42327714170649	-4.87580512807688	-4.82801987051637	0.0043979783343009	-0.00974994852204734
0.12	0.411636552873087	-3.20399673928656	578.839141098387	-24.9891044526102	5.50450948674965	-4.89046670981962	-4.8422167848162	0.0045347768718456	-0.00900575442741781
0.13	0.424269037301533	-2.99593548311436	578.874082148932	-25.4149815415024	5.57441596951716	-4.89949125737232	-4.85200336878334	0.00465249142669326	-0.00826531978945487
0.14	0.409450447420445	-2.7966895233728	578.879914428614	-25.8379393056449	5.6339869382929	-4.90290186860599	-4.85739585213465	0.00475291426207536	-0.00752697708423118
0.15	0.369641354559967	-2.60323038466275	578.854301102519	-26.2590367183664	5.68439822912423	-4.9008718536533	-4.85852735765743	0.00483812668112699	-0.00678913189835142
0.16	0.307944839270686	-2.41238302836255	578.797835087966	-26.6793879043561	5.72694059004378	-4.89372360643169	-4.85564771905082	0.0049103676117187	-0.00605036945420025
0.17	0.227982819157297	-2.22100038080157	578.714383368095	-27.1000936006427	5.76294949078513	-4.8819214687529	-4.84911830993096	0.00497190434651918	-0.00530957138965903
0.18	0.133755592857367	-2.02614496217195	578.61119764534	-27.5221560268946	5.7937390022301	-4.86605852272285	-4.83940174879816	0.00502491259340985	-0.004566042336539
0.19	0.0294905369125225	-1.82526970777178	578.498767139505	-27.9463791271508	5.82054292115409	-4.84683759448118	-4.82704665084755	0.00507137215521909	-0.00381964344504367
0.2	-0.0805137297071425	-1.61638962878708	578.390407406862	-28.3732580848058	5.84446563706415	-4.82504710209961	-4.81266791908056	0.00511298334888726	-0.00307092758428596
0.21	-0.192041295082747	-1.39823588639297	578.30159795277	-28.8028637625195	5.86644444856504	-4.80153270700627	-4.79692338234378	0.0051511077683752	-0.00232126879239988
0.22	-0.301104776802479	-1.17038416734874	578.249099791475	-29.2347291317912	5.88722420136085	-4.77716600728389	-4.78048787107386	0.00518673528992338	-0.00157297689675845
0.23	-0.404077228672383	-0.933349952487122	578.24990069588	-29.6677457136745	5.90734430285186	-4.75281172152234	-4.76402604555791	0.00522047742612288	-0.000829387261410977
0.24	-0.497805051454566	-0.688644347422425	578.320049549449	-30.1000784666951	5.92713742765752	-4.7292949374626	-4.74816543121504	0.00525258538031401	-9.49154647885489e-05
0.25	-0.579697760475943	-0.438785568711993	578.473451053899	-30.5291073825338	5.94673861220334	-4.70737003053408	-4.73347115142714	0.00528298956124054	0.000624932584116368
0.26	-0.64779157700579	-0.187262905689833	578.720697422103	-30.951403276096	5.96610297878098	-4.68769279061577	-4.72042377109763	0.00531135600930544	0.00132360303683075
0.27	-0.700785051363868	0.0615480485121211	579.068014257131	-31.3627439147798	5.98503004834985	-4.67079713513591	-4.70940147598874	0.00533715426302504	0.00199359464382955
0.28	-0.738046231794023	0.30251795378115	579.516393553999	-31.7581747887235	6.00319249858921	-4.65707754390227	-4.70066752969895	0.00535973073239044	0.0026266201514512
0.29	-0.759592197254221	0.529940881805138	580.060977924108	-32.1321165775669	6.02016728592067	-4.64677804254835	-4.69436359932274	0.00537838168163617	0.00321382789698952
0.3	-0.766043006146887	0.737750648490872	580.690747263738	-32.4785188428773	6.0354672512745	-4.63998820830488	-4.69050915796538	0.00539242044813355	0.00374607934022683
0.31	-0.758553211166229	0.919768752497427	581.388542922443	-32.7910568097444	6.04857163392582	-4.63664629770928	-4.68900679590015	0.0054012344783659	0.00421427466786112
0.32	-0.738724994640275	1.06997442485184	582.131445903668	-33.06336544682	6.05895428532288	-4.63654922528154	-4.68965293787238	0.00540432904215459	0.00460971523591416
0.33	-0.708507642487122	1.18278568832167	582.891505794408	-33.2893025636566	6.06610876414728	-4.63936877823565	-4.69215319916967	0.00540135595352559	0.00492448869072858
0.34	-0.670088467494747	1.25333914510644	583.63679707725	-33.4632304637105	6.06956986665522	-4.64467315488382	-4.69614143272779	0.00539212712384524	0.00515186031966411
0.35	-0.625780402314218	1.27775555121722	584.332760330581	-33.5803039531752	6.06893147081667	-4.65195267873285	-4.70120142524905	0.00537661414542306	0.00528665267691486
0.36	-0.577911318017646	1.25337817094914	584.94376861891	-33.6367513218108	6.06386082583355	-4.66064837584837	-4.70689018117596	0.00535493621932905	0.00532559491058402
0.37	-0.528719713847632	1.17897148479935	585.434845057054	-33.6301343677277	6.05410958730708	-4.67018201329929	-4.71276176961867	0.0053273395056922	0.0052676235376605
0.38	-0.480260813313329	1.05486906661215	585.773446890016	-33.5595736883303	6.03952197997117	-4.67998617914648	-4.71839077741004	0.0052941713418288	0.00511411767852885
0.39	-0.434326348366865	0.883061331023	585.93122506837	-33.4259263246656	6.02004047136553	-4.68953303264178	-4.72339448942972	0.00525585274586709	0.00486905393095293
0.4	-0.392380479661988	0.667216320661107	585.885666604805	-33.2319044103255	5.99570927583466	-4.69836045709722	-4.72745298956561	0.00521285224725346	0.00453906905223418
0.41	-0.355513447826565	0.412629653922185	585.621530125683	-32.9821256863792	5.96667589919989	-4.7060944959522	-4.73032643574388	0.00516566343966408	0.00413342230741907
0.42	-0.324413731152358	0.126103050894823	585.131992895357	-32.6830895130252	5.93319080379998	-4.71246713386068	-4.73186881381947	0.0051147878351852	0.00366385357836386
0.43	-0.299358739016469	-0.184245671383278	584.41943986669	-32.3430752174272	5.89560514511814	-4.71732868960677	-4.73203752957285	0.00506072371654458	0.00314433793254622
0.44	-0.280223421884982	-0.50923478280983	583.495841451686	-31.9719631194987	5.85436642651317	-4.72065430897649	-4.73089827239546	0.00500396083716756	0.00259074211822716
0.45	-0.26650563607919	-0.838923403874645	582.382685967176	-31.5809822071167	5.81001185492758	-4.72254427820459	-4.72862469593157	0.00494498009351003	0.0020203931634216
0.46	-0.25736665877351	-1.1629564089794	581.110454184581	-31.182392011195	5.76315916925426	-4.72321811874975	-4.72549262369272	0.00488425675685903	0.00145157367989941
0.47	-0.251684890034269	-1.47093477131599	579.71764607102	-30.789109577844	5.71449475897126	-4.72300266905743	-4.72186870776029	0.00482226554463423	0.000902962378929707
0.48	-0.248120483314741	-1.75279511947922	578.249392548671	-30.4142953741818	5.66475899153711	-4.72231460527945	-4.71819374268496	0.00475948574963417	0.000393041471199881
0.49	-0.245188393666218	-1.999181571169	576.755706793155	-30.0709143363179	5.61472881449149	-4.72163809569326	-4.71496115075546	0.00469640481791494	-6.05051501737647e-05
0.5	-0.241337109902236	-2.20179308173	575.289449139765	-29.771289936718	5.56519787880683	-4.72149851553701	-4.71269148584417	0.00463351913425553	-0.000441377920921304
0.51	-0.235030138724271	-2.35369059145332	573.904096045613	-29.5266700094302	5.51695462691452	-4.72243336029324	-4.71190412124288	0.00457133127798026	-0.000735206880671899
0.52	-0.224827142667303	-2.4495501190188	572.651415867681	-29.3468230592666	5.47075898344276	-4.72496167399535	-4.71308755939842	0.00451034357446927	-0.000930032637767794
0.53	-0.209461518089437	-2.48585052410117	571.579161731282	-29.2396828710669	5.42731846063095	-4.72955344142502	-4.71666999645514	0.00445104830547469	-0.00101670204342962
0.54	-0.187911161146905	-2.46098780411265	570.728893957154	-29.2110574483394	5.38726462695612	-4.7366004656959	-4.7229918654754	0.00439391537654951	-0.000989161316315754
0.55	-0.159459239418309	-2.37531132192608	570.134041103883	-29.2644157124108	5.35113097315565	-4.74639025400953	-4.73228205152964	0.00433937851387511	-0.000844634018031927
0.56	-0.123741993417708	-2.23108108828216	569.818299644696	-29.4007620920639	5.31933323508308	-4.75908435614682	-4.74463931354384	0.00428782114785994	-0.000583676618283957
0.57	-0.0807809570028191	-2.03234894361935	569.794457891809	-29.6186052764534	5.29215319288042	-4.77470243932976	-4.76002016891801	0.00423956304677664	-0.000210110096309245
0.58	-0.030997517666675	-1.78477000503287	570.063710548739	-29.914023170287	5.26972686081733	-4.79311314223805	-4.77823411739741	0.00419484853585808	0.000269168227883976
0.59	0.0247915694975269	-1.49535388865469	570.615507027704	-30.2808216836679	5.2520378164774	-4.81403243926881	-4.79894663141598	0.00415383684621615	0.000844482976047417
0.6	0.0853982695104705	-1.17216783698061	571.427950483221	-30.7107806282725	5.23891620051261	-4.83702987853406	-4.82168985965536	0.00411659486159108	0.00150377456080841
0.61	0.149306581209869	-0.824005859769273	572.468736664717	-31.1939758993173	5.23004366103627	-4.86154265335344	-4.8458805203278	0.00408309233436689	0.00223306996992084
0.62	0.21473371992014	-0.460039259320236	573.696593616902	-31.7191635140094	5.22496423443136	-4.8868970501275	-4.87084403984212	0.00405319956102263	0.00301700874856454
0.63	0.279706838066438	-0.0894644182468074	575.063156478707	-32.2742081472666	5.22310086292841	-4.91233640993451	-4.8958436528792	0.00402668753897671	0.00383940042670149
0.64	0.342152046630513	0.278836520594223	576.515187673713	-32.8465367187025	5.22377696521684	-4.93705437106621	-4.92011294214406	0.00400323073432334	0.00468378876959815
0.65	0.399991721085181	0.636607423898306	577.997033082093	-33.4235964639295	5.226242215512	-4.96023184702402	-4.942890167713	0.00398241271333153	0.00553399851943608
0.66	0.451245476081477	0.976489362052892	579.453190589867	-33.9932968407821	5.2297014633669	-4.98107595777269	-4.96345271174984	0.00396373496512084	0.00637464171586785
0.67	0.494129817522447	1.29224040939645	580.830859710436	-34.5444155936786	5.23334555330858	-4.99885898528997	-4.9811500290954	0.00394662921706956	0.00719156316513036
0.68	0.5271513606239	1.57889590623327	582.082340405617	-35.066951284795	5.23638268946112	-5.01295537645956	-4.99543362664519	0.00393047339266348	0.0079722080598291
0.69	0.549188656116323	1.83286405361851	583.167156035423	-35.5524074987806	5.23806894181241	-5.02287487048183	-5.00588277239938	0.00391461108932872	0.00870589897724516
0.7	0.559558096679623	2.05195492949711	584.053789336465	-35.9939975847446	5.23773651039412	-5.02828998222351	-5.0122248400105	0.0038983740957117	0.00938401429823051
0.71	0.558060069013546	2.23534428478934	584.720940821698	-36.3867630162296	5.23481845070238	-5.02905632032172	-5.01434941453599	0.00388110707850674	0.0100000652441535
0.72	0.545002444893173	2.38347664488957	585.158244940799	-36.7276029938495	5.22886871436388	-5.02522454800876	-5.01231551540838	0.00386219321150528	0.0105496739473297
0.73	0.521199623547538	2.49791515024715	585.366409302657	-37.0152175328893	5.21957656670161	-5.01704319038045	-5.00635153517578	0.00384107925381526	0.0110304599579842
0.74	0.487946591066848	2.58114807092719	585.356774512748	-37.2499707109898	5.20677469841242	-5.00495193597161	-4.99684775257094	0.00381729845625523	0.0114418470615055
0.75	0.446968783309723	2.63636389151744	585.150324807808	-37.4336847513438	5.19044064094689	-4.98956555243212	-4.98434156075187	0.00379048971000614	0.0117848059753328
0.76	0.400349853299176	2.66720817593332	584.776210703586	-37.5693789627691	5.17069141165029	-4.97164901354354	-4.96949585674609	0.00376041155072287	0.012061551205694
0.77	0.350440676379675	2.67753601067689	584.269872399742	-37.6609700673388	5.1477716412594	-4.95208489454547	-4.9530713598547	0.00372694997175834	0.012275211926342
0.78	0.299754002822402	2.67117365360018	583.670874993212	-37.7129519873241	5.12203575800986	-4.93183451135268	-4.93589395053736	0.00369011943974589	0.0124294971266329
0.79	0.250850021504387	2.65170209103143	583.020582233449	-37.7300736628439	5.09392510397256	-4.9118946340776	-4.9188184252704	0.00365005699027639	0.01252837447805
0.8	0.206218674486912	2.62227358266128	582.359803615113	-37.7170329189774	5.06394112497456	-4.89325187546687	-4.90269032046004	0.00360700975412921	0.0125757804784513
0.81	0.168164820522895	2.58547004779527	581.726549533872	-37.6782028474971	5.03261599103854	-4.87683702253326	-4.88830764217786	0.00356131667653679	0.012575376613041
0.82	0.138702263280889	2.5432094533565	581.154021038571	-37.6174047231947	5.0004821567822	-4.863481631183	-4.87638442411852	0.0035133855106881	0.0125303627354914
0.83	0.119462234558204	2.4967033675942	580.668944933772	-37.5377382976547	4.96804245021788	-4.8538791308593	-4.86751800693023	0.00346366638068692	0.0124433548714951
0.84	0.111621171546677	2.44646572644692	580.290342649265	-37.4414766035031	4.93574227673602	-4.84855248760605	-4.86216178131733	0.00341262332773752	0.0123163304432582
0.85	0.115851588006334	2.39236981071296	580.028793851417	-37.3300283855514	4.90394543956621	-4.84783015539734	-4.86060486998846	0.00336070530035717	0.0121506397625698
0.86	0.132298568400941	2.33374763406127	579.886225005561	-37.2039671903561	4.87291490996545	-4.85183162082786	-4.86295985575574	0.00330831805341025	0.0119470787728257
0.87	0.160582984194662	2.26952355889604	579.856220993922	-37.0631222291768	4.84279963576014	-4.86046333676978	-4.86915922030592	0.00325579840369901	0.0117060146303121
0.88	0.199831027470763	2.1983721254085	579.924826502209	-36.9067226021299	4.81362816629438	-4.87342527470671	-4.87896067203707	0.00320339225859154	0.0114275529519315
0.89	0.248728171015399	2.11888889887866	580.071775188849	-36.7335835264309	4.78530951024506	-4.89022773682398	-4.89196104616518	0.00315123777733887	0.0111117335248398
0.9	0.305594289543256	2.02976266982764	580.272060414428	-36.5423210035005	4.75764124874824	-4.91021749434988	-4.9076179893552	0.00309935491615573	0.010758740034343
0.91	0.368475502051849	1.92993759479442	580.497742979202	-36.3315799966116	4.73032452116114	-4.93261179528347	-4.92527822376068	0.00304764241573297	0.0103691089414442
0.92	0.435247396600884	1.81875481130946	580.719879918452	-36.1002607296838	4.70298510745544	-4.95653834713778	-4.94421084495667	0.00299588298707575	0.00994392301641634
0.93	0.503723734260525	1.69606462549662	580.910454483288	-35.847728162614	4.67519947283543	-4.98107905789244	-4.96364386140436	0.00294375702779614	0.00948497616273276
0.94	0.57176453379237	1.56230244330722	581.044191027006	-35.5739910009975	4.64652433866217	-5.00531513236104	-4.9828020396739	0.00289086466784128	0.00899489796948556
0.95	0.637377622130133	1.41852405465541	581.100149167515	-35.2798386621876	4.6165281185109	-5.02837108339302	-5.00094408359394	0.00283675533575712	0.00847722880544571
0.96	0.698808280403385	1.26639852024579	581.063008398455	-34.9669273082557	4.58482242462644	-5.04945532894527	-5.01739724566233	0.00278096340724453	0.0079364390858221
0.97	0.754612478088827	1.10815957982084	580.923975994589	-34.6378092004488	4.55109181851639	-5.06789529765791	-5.03158763997532	0.00272304791085171	0.0073778894567364
0.98	0.803710303789574	0.946519025791811	580.681276045501	-34.2959030388818	4.51512005429351	-5.08316533793245	-5.04306478811394	0.00266263378629701	0.00680773189411128
0.99	0.845417488172563	0.7845477097028	580.3402040412	-33.9454064255969	4.47681124248012	-5.09490619119012	-5.05151926925952	0.00259945187670901	0.0062327549412531
1	0.879454280483614	0.625531638165439	579.912757874326	-33.5911549313939	4.43620463650126	-5.10293531551548	-5.05679274536256	0.00253337473014578	0.00566017935601158
1.01	0.905932289680088	0.472811872179554	579.416880753511	-33.2384352734591	4.3934820988848	-5.10724789443556	-5.05888006920063	0.00246444541230403	0.00509741315987254
1.02	0.9253211441973	0.329617612922534	578.875372876507	-32.892762662281	4.3489677186223	-5.10800889986054	-5.05792363160179	0.00239289689435805	0.00455177735277688
1.03	0.938397882222972	0.198901926244974	578.314545616769	-32.5596343253881	4.30311950033891	-5.10553706337225	-5.05420053552519	0.00231916015881093	0.00403021527785934
1.04	0.946182796509662	0.0831890586603219	577.762703618428	-32.2442724730004	4.25651350237043	-5.10028201634904	-5.04810357031441	0.00224385992305916	0.00353899971539711
1.05	0.949865985765312	-0.0155587004491125	577.248546152631	-31.9513704890598	4.20982123629865	-5.09279616437772	-5.04011727287592	0.00216779775801217	0.0030834522086827
1.06	0.950729094340129	-0.096048051760095	576.799579344429	-31.6848559046467	4.16378152793922	-5.08370305129904	-5.03079058258034	0.00209192330644479	0.00266768885790903
1.07	0.950066663119788	-0.157730728597306	576.440625789385	-31.4476827739542	4.11916835534991	-5.07366403874382	-5.02070770979949	0.00201729520322464	0.0022944058706821
1.08	0.949111198590378	-0.200845484353908	576.192508320066	-31.2416644963113	4.07675640410994	-5.0633450830431	-5.01045883997423	0.00194503408649373	0.00196471656584028
1.09	0.948965542279305	-0.226424801200507	576.070971179319	-31.0673560122076	4.03728620103176	-5.0533852460089	-5.00061219160774	0.00187627069218434	0.00167804935419834
1.1	0.950545448519767	-0.236266844779652	576.085885695612	-30.9239917714016	4.00143069865869	-5.04436834880361	-4.99168875237928	0.00181209238724462	0.00143211355565868
1.11	0.954534518416258	-0.232874752340593	576.240769892519	-30.8094830676053	3.9697650856043	-5.03679889268851	-4.98414075471619	0.00175349158704984	0.00122293687251593
1.12	0.961352853547229	-0.219366653067202	576.532633441283	-30.7204754057947	3.94274140008191	-5.03108305238091	-4.9783346472539	0.00170131931592564	0.00104497506249347
1.13	0.971140038089404	-0.199360841673991	576.952142034363	-30.6524636643338	3.92066923996394	-5.02751522192581	-4.97453899971449	0.00165624673219073	0.000891290999045287
1.14	0.98375237442948	-0.176841249479192	577.484079523083	-30.5999600774084	3.90370351132802	-5.02627028149297	-4.97291747228341	0.00161873680179385	0.000753797038295069
1.15	0.99877371218761	-0.156008794325008	578.108072740053	-30.5567076228129	3.89183976095617	-5.0274014740035	-4.97352670873772	0.00158902753619348	0.000623551599898298
1.16	1.01553873610207	-0.141124372664517	578.799533324318	-30.5159293655547	3.88491722067758	-5.03084354518414	-4.97631879137534	0.00156712738668722	0.000491098270649193
1.17	1.03316721287937	-0.136349225212302	579.530763378096	-30.4706027645688	3.88262927697778	-5.03642061597206	-4.98114773400115	0.00155282258194912	0.00034683369034761
1.18	1.05060742860718	-0.145588206594145	580.272167499294	-30.413746956132	3.88454069086939	-5.04385812313322	-4.98777938830989	0.0015456954694423	0.000181389083020234
