Time [s]	GRFml [N]	GRFap [N]	GRFv [N]	Mml [N.m]	Map [N.m]	Mv [N.m]	Mfree [N.m]	COPml [m]	COPap [m]
0.01	4.17031859527003	6.48536512654037	530.084180789247	-36.149692084836	-1.29400648607773	2.13649243424157	2.43673850402561	0.00333828308948452	-0.00368166366176514
0.02	4.86624033916565	6.14660051386352	529.965034270028	-36.1621052211455	-1.34554223144439	1.98990164781176	2.33758766142303	0.00324108303214677	-0.00364168179390377
0.03	5.55006012214379	5.81437438887195	529.846938056634	-36.1739011126484	-1.39622594412493	1.84551239718526	2.23980323161389	0.00314553762747118	-0.00360307170336993
0.04	6.2098628084225	5.49458510804105	529.730728967018	-36.1842089075382	-1.44516069476576	1.70575611516956	2.1449974750339	0.00305334567339284	-0.00356762468416902
0.05	6.83452450949593	5.1926564251188	529.617067422017	-36.1921508240304	-1.4914967051395	1.57292966174649	2.05469940763359	0.00296611477122801	-0.00353712077191533
0.06	7.41412175657517	4.91332545194873	529.506426340806	-36.1968797074398	-1.53446104530268	1.44911688436272	1.97030487074118	0.00288530500364479	-0.00351325527473015
0.07	7.94028237640238	4.66046713269248	529.399090965741	-36.1976147707654	-1.57338399121494	1.33611996952845	1.89303275239595	0.00281217902363472	-0.00349757015298041
0.08	8.40646160714851	4.43696423394649	529.295169878883	-36.1936739223209	-1.60772086343447	1.23540353580981	1.82388906670979	0.00274776081749328	-0.00349139335601598
0.09	8.80813146882565	4.24462889357835	529.194616932063	-36.1845014527051	-1.63706839473895	1.14805370339061	1.76364015831884	0.00269280496818389	-0.00349578846186241
0.1	9.14287645720828	4.08417850373318	529.09726317078	-36.1696902448348	-1.66117495900787	1.07475355040443	1.71279581338563	0.00264777769458775	-0.00351151614032935
0.11	9.4103939162865	3.95526536568831	529.002857131652	-36.1489980463677	-1.67994431891284	1.01577548507141	1.67160255641199	0.00261285030958822	-0.00353900814939932
0.12	9.6124026173509	3.8565563758844	528.911111200019	-36.1223576740676	-1.69343289475075	0.970990183101329	1.64004692298264	0.00258790506787814	-0.00357835384466254
0.13	9.75246781590345	3.78585619027189	528.821751107189	-36.089881285096	-1.7018408980084	0.93989091782806	1.61786804963245	0.00257255270932813	-0.0036292985808245
0.14	9.83575510233726	3.7402650386741	528.73456520317	-36.0518590419503	-1.70549798836931	0.921631395410578	1.60457853600734	0.00256616039147437	-0.00369125294260045
0.15	9.8687285039795	3.7163607468261	528.649449925623	-36.0087526167221	-1.70484438186737	0.915074638048707	1.59949222829724	0.00256788818576618	-0.00376331146938484
0.16	9.8588104018192	3.71039364377239	528.566447942729	-35.961184035826	-1.70040854487494	0.918850060651648	1.60175735706639	0.00257673191867661	-0.00384427942489705
0.17	9.81402183620718	3.71848290505718	528.485775792793	-35.9099203738926	-1.69278274273124	0.931415673225147	1.61039334110138	0.00259156989197278	-0.00393270618440576
0.18	9.74262170389971	3.73680347415351	528.407838463376	-35.8558547843875	-1.68259776757611	0.951122311551987	1.62432953970458	0.00261121092619822	-0.00402692393099337
0.19	9.65276226916706	3.76175393577326	528.333229206255	-35.799984324934	-1.67049814709167	0.976276939756032	1.64244429177373	0.00263444123636123	-0.004125090524658
0.2	9.55217645233296	3.79009746689531	528.262713906678	-35.7433850158257	-1.65711903888313	1.00520235751775	1.66360270982741	0.00266006785754202	-0.00422523558872485
0.21	9.44790968879553	3.81907011899768	528.197200434998	-35.6871845753514	-1.64306585278188	1.03629105231659	1.68669188697027	0.00268695667092152	-0.00432530900636713
0.22	9.34610596676768	3.84645302715168	528.137694516219	-35.6325333140766	-1.62889742742922	1.06805142892207	1.71065240932915	0.00271406351160793	-0.00442323110473312
0.23	9.25185416379294	3.87060753423817	528.085244668686	-35.5805737441261	-1.61511333266028	1.0991451884377	1.73450533006846	0.00274045733837441	-0.00451694380699622
0.24	9.16909722378721	3.89047450580057	528.040879605715	-35.5324095637787	-1.60214559176504	1.12841518210355	1.75737403849492	0.0027653349795283	-0.00460446195037975
0.25	9.10060325168968	3.90554115539713	528.005542096157	-35.4890748009392	-1.59035483485816	1.15490359799926	1.77850073471066	0.00278802750560926	-0.00468392381279754
0.26	9.04799443579419	3.91578039015311	527.980023594456	-35.4515040248617	-1.5800306235689	1.17786082325798	1.79725748369382	0.00280799878655821	-0.0047536396875803
0.27	9.0118269941515	3.92156894109005	527.964903952868	-35.4205046442432	-1.57139544440868	1.19674573739897	1.81315206084483	0.00282483723904487	-0.00481213713039676
0.28	8.99171320179831	3.92359131602202	527.960500218119	-35.3967323809577	-1.56461166805026	1.21121851720386	1.82582900369135	0.00283824213328402	-0.0048582013161992
0.29	8.98647507127898	3.92273689151917	527.966827915927	-35.3806710232527	-1.55979062626674	1.22112726014979	1.83506644311811	0.00284800608749895	-0.00489090882864672
0.3	8.99431846963095	3.91999726361751	527.983577386464	-35.3726175050838	-1.55700287589992	1.22648985838516	1.8407693959039	0.00285399551801968	-0.0049096531970029
0.31	9.01301635867582	3.91637035156037	528.010106718035	-35.3726732203854	-1.55628870434527	1.22747258152356	1.84296025503185	0.00285613082687121	-0.00491416062328009
0.32	9.04009040046638	3.91277676473629	528.045451715453	-35.3807422610487	-1.55766798352497	1.22436676281026	1.84176721516415	0.00285436799762002	-0.0049044946190723
0.33	9.07298129893721	3.90999268693839	528.088352222015	-35.3965369722953	-1.56114859436861	1.21756484307934	1.83741132178828	0.00284868304355698	-0.00488104869463786
0.34	9.10919984544573	3.90860210158556	528.137293078357	-35.4195908645318	-1.56673281213724	1.20753682789926	1.83019274196867	0.00283906042752064	-0.00484452679315057
0.35	9.14645257112308	3.9089696783901	528.190557128962	-35.4492785296086	-1.57442125127255	1.19480797567408	1.82047673434519	0.00282548617464108	-0.00479591180590523
0.36	9.1827380405395	3.91123416604004	528.246287044255	-35.4848418101844	-1.58421420059268	1.17993827987774	1.80867966087849	0.00280794595856163	-0.00473642319244115
0.37	9.21641200290589	3.91532077905116	528.302552357915	-35.5254210949777	-1.59611041758424	1.16350405856427	1.79525524911211	0.00278642799227168	-0.0046674654078918
0.38	9.24622170820909	3.92096990947917	528.357418044449	-35.5700902912127	-1.6101036759326	1.14608173862456	1.78068119714479	0.0027609301312838	-0.00459056945071605
0.39	9.27131157012512	3.9277785979646	528.409011171831	-35.6178937862678	-1.62617755611668	1.12823373756145	1.76544612734788	0.00273147023205811	-0.004507330332916
0.4	9.29120391124872	3.93525060555099	528.455582621049	-35.6678835748882	-1.64429912021743	1.11049621397483	1.75003684820992	0.00269809852997707	-0.00441934359611311
0.41	9.30575968306228	3.94285065759919	528.495561507656	-35.7191547093373	-1.66441220805402	1.09336838627865	1.7349258803383	0.00266091062927291	-0.00432814411776078
0.42	9.31512476861777	3.95005848109931	528.527600691736	-35.7708773308464	-1.68643112583624	1.07730310840507	1.7205592407295	0.00262005964377556	-0.00423515035582413
0.43	9.31966773830921	3.95641860259723	528.550612535807	-35.8223237550546	-1.71023546909542	1.06269843665118	1.70734455180031	0.00257576609417648	-0.00414161686871774
0.44	9.31991475818223	3.96158247293922	528.563794781847	-35.872889396046	-1.73566673208314	1.04989001345986	1.69563963700792	0.00252832434703462	-0.00404859743912886
0.45	9.31648679426467	3.96534027935703	528.566646998469	-35.9221066997893	-1.76252721407165	1.03914421764395	1.68574186910657	0.00247810465652375	-0.00395692046071031
0.46	9.3100433873487	3.96764072718037	528.558978448709	-35.9696516896153	-1.79058155087639	1.03065216930237	1.6778786350854	0.00242555021832856	-0.00386717746399746
0.47	9.30123617986529	3.96859804989919	528.540908426588	-36.0153431723708	-1.81956099207213	1.02452481303573	1.67219935909884	0.0023711690376399	-0.00377972482021081
0.48	9.29067415956154	3.96848646515802	528.512860113427	-36.059135082394	-1.84917032693625	1.02078941699506	1.66876956875212	0.00231552081909657	-0.00369469783149391
0.49	9.27890134581901	3.96772316901524	528.475548845719	-36.1011028220404	-1.8790971514765	1.01938790176297	1.66756749157345	0.00225919947532024	-0.00361203565576983
0.5	9.26638648084662	3.96684169518685	528.429965417186	-36.1414247671454	-1.90902298030939	1.02017743959783	1.66848362188126	0.00220281219460085	-0.00353151488024959
0.51	9.25352328486764	3.96645801765412	528.377354721498	-36.1803603246159	-1.93863555390987	1.02293373349392	1.67132360230357	0.00214695628400924	-0.00345278909567595
0.52	9.24063905911777	3.96723211783606	528.319189743352	-36.2182260456067	-1.96764158428204	1.02735729480952	1.67581462208935	0.00209219519414772	-0.00337543156530533
0.53	9.22800891802097	3.96982786261738	528.257140681339	-36.2553713075246	-1.9957791274878	1.03308289191873	1.68161535352178	0.00203903522465991	-0.00329897804324106
0.54	9.21587272257407	3.97487395470457	528.19303887913	-36.2921549852161	-2.02282877318597	1.03969215037312	1.68832923957308	0.00198790440078992	-0.00322296697301558
0.55	9.2044518658041	3.98292844476855	528.128835276195	-36.328924347129	-2.04862289916726	1.04672906252836	1.69552072511039	0.00193913490231627	-0.0031469746690472
0.56	9.19396339967165	3.99444887027695	528.0665532698	-36.365997153208	-2.07305234903241	1.05371793058528	1.70273380753284	0.00189295022459876	-0.00307064361539508
0.57	9.1846295424873	4.00976955173476	528.008236191357	-36.4036476198997	-2.09607004653399	1.06018304291851	1.70951208891933	0.00184945797011468	-0.00299370266094098
0.58	9.17668130336011	4.0290869803935	527.955890012149	-36.4420965792721	-2.11769125064085	1.06566919119541	1.71541935849963	0.00180864882521215	-0.00291597859298537
0.59	9.17035573312546	4.05245361982329	527.911422364705	-36.4815058207541	-2.13799036865164	1.0697619951854	1.72005963744876	0.00177040189220308	-0.00283739927455823
0.6	9.16588708499661	4.07977986136223	527.876579450047	-36.5219762918054	-2.15709446655959	1.0721069296644	1.72309558990409	0.00173449614553122	-0.0027579891785256
0.61	9.16349287233093	4.1108433586678	527.852882850663	-36.5635495720219	-2.17517383139919	1.07242595429582	1.72426425180654	0.00170062738839899	-0.00267785869379648
0.62	9.16335638474897	4.14530454970255	527.841568640952	-36.6062118437331	-2.19243013467916	1.0705307369198	1.72338915348742	0.00166842972891674	-0.00259718897520857
0.63	9.1656076212988	4.18272687657242	527.843531444994	-36.6498994752168	-2.20908290562352	1.06633162998068	1.72038810688249	0.00163750029705567	-0.00251621433103595
0.64	9.1703047921186	4.22260004603329	527.859276208408	-36.6945053173505	-2.22535513643402	1.05984179818804	1.71527618128386	0.00160742570667135	-0.00243520417698054
0.65	9.17741851915904	4.2643646378196	527.888880409975	-36.7398848899827	-2.24145890094312	1.05117618573945	1.70816368443454	0.00157780864686662	-0.00235444643483987
0.66	9.18682064213967	4.30743645666817	527.931969233002	-36.7858617915119	-2.25758186846321	1.04054533136301	1.69924927632277	0.00154829297377767	-0.00227423393502334
0.67	9.19827913540867	4.35122922117244	527.98770584972	-36.83223188738	-2.27387553618823	1.0282443640011	1.68880864713778	0.00151858576981988	-0.00219485492617975
0.68	9.21146010603005	4.3951744656059	528.054798457306	-36.8787660972002	-2.29044589023797	1.01463781558405	1.67717946483165	0.0014884750369276	-0.00211658824583348
0.69	9.22593722411478	4.43873787154225	528.131525062736	-36.9252118783981	-2.30734704535191	1.00014114637273	1.66474352059438	0.00145784198003634	-0.00203970311513788
0.7	9.24120828883062	4.48143161328309	528.215776273709	-36.9712937669128	-2.32457821764895	0.985200073184998	1.65190715588327	0.0014266671967741	-0.00196446294501879
0.71	9.25671801340515	4.52282266289564	528.305115548445	-37.0167135540326	-2.34208416754553	0.970268907607619	1.63908113200057	0.00139503049338869	-0.00189113203590155
0.72	9.27188557124141	4.56253732707957	528.396855525809	-37.0611508279757	-2.35975902607683	0.955789142951662	1.62666109881207	0.00136310446616374	-0.00181998366900817
0.73	9.28613502654503	4.60026255356289	528.488148239018	-37.1042646709428	-2.37745320302317	0.942169475260729	1.61500973599311	0.00133114239159559	-0.00175130786342102
0.74	9.2989265093906	4.63574473027347	528.576086251106	-37.1456972670311	-2.394982884095	0.929768311919475	1.60444148729791	0.00129946132834108	-0.00168541703461871
0.75	9.30978590684697	4.66878679524449	528.657811076693	-37.1850800431606	-2.41214146973042	0.918879623984285	1.59521060000565	0.00126842162407976	-0.00162264794439104
0.76	9.31833093439617	4.69924447704112	528.730624707357	-37.2220427433895	-2.42871219968469	0.90972275243359	1.58750293583433	0.00123840422153987	-0.00156335866767056
0.77	9.32429171659139	4.7270224011607	528.792099667594	-37.2562255451648	-2.44448115183964	0.902436504179167	1.58143175623567	0.00120978725804208	-0.00150791978968641
0.78	9.32752441986719	4.75207064194682	528.84018282037	-37.2872939901598	-2.45924980288023	0.897077592125606	1.57703742446026	0.00118292344828245	-0.00145669964241944
0.79	9.32801700846729	4.77438209290544	528.873288135714	-37.31495615359	-2.47284639105224	0.893623205499648	1.574290728195	0.00115811963513544	-0.00141004403694589
0.8	9.32588679190681	4.79399079582597	528.890373847294	-37.3389811478868	-2.48513542183155	0.891977260663682	1.57309932625102	0.00113561969974767	-0.00136825158646163
0.81	9.32137004885079	4.81097113724745	528.890999858861	-37.3592177823215	-2.49602479760015	0.89197969380641	1.57331667308914	0.00111559175771207	-0.00133154628230031
0.82	9.31480459616293	4.82543761497	528.875361925872	-37.3756120089118	-2.50547022157278	0.893418025955244	1.57475268351135	0.00109812025428433	-0.00130004942682539
0.83	9.3066066750268	4.83754471941106	528.844300019135	-37.3882216996139	-2.5134767119582	0.896040363306096	1.57718536904945	0.00108320323216803	-0.00127375329852447
0.84	9.29724390818244	4.84748638107307	528.799279356251	-37.3972273346686	-2.52009725171544	0.899568992277849	1.58037270477946	0.00107075470434275	-0.00125249899680188
0.85	9.28720631458798	4.85549441571699	528.742343827468	-37.4029373411877	-2.52542877950517	0.903713784283785	1.58406406322572	0.00106061174438442	-0.00123596077502254
0.86	9.27697743515232	4.86183545481279	528.676042893224	-37.4057870980104	-2.5296058867513	0.908184730852728	1.58801066975384	0.00105254562768196	-0.00122363882655543
0.87	9.26700752533519	4.86680597447344	528.603334422285	-37.4063310004295	-2.53279271404648	0.912703072846712	1.59197467795409	0.0010462761351383	-0.00121486196344256
0.88	9.25769052146718	4.87072521825366	528.52746728934	-37.4052274300986	-2.53517362973621	0.91701065328661	1.59573661941228	0.00104148797819487	-0.00120880095967753
0.89	9.24934611422546	4.87392602897784	528.451848767608	-37.4032169674594	-2.53694331951807	0.920877296018924	1.59910113558695	0.0010378482273282	-0.00120449257185708
0.9	9.24220780104037	4.87674383930115	528.379902742875	-37.4010946778435	-2.53829691657453	0.924106176962722	1.60190103733496	0.00103502362753818	-0.00120087345831862
0.91	9.23641728145504	4.87950429554239	528.314925456086	-37.399677758009	-2.53942075866134	0.926537297605615	1.60399984946898	0.00103269676083514	-0.00119682245663248
0.92	9.23202504969696	4.88251018087644	528.259945785328	-37.3997702092337	-2.54048427640117	0.928049281311963	1.60529307626642	0.00103058015970449	-0.00119120901007898
0.93	9.22899656909552	4.88602844195167	528.217596964529	-37.4021264736069	-2.54163340332219	0.928559785096378	1.60570846532747	0.0010284276750273	-0.00118294501187868
0.94	9.22722302035715	4.89027819246793	528.190006097334	-37.4074161077009	-2.54298576278073	0.928024850152481	1.60520555151874	0.00102604264125252	-0.00117103700583594
0.95	9.22653532906338	4.89542056005274	528.17870688764	-37.4161915590794	-2.54462774127281	0.926437505116078	1.6037747333385	0.00102328264202485	-0.0011546355729898
0.96	9.22672001638094	4.90155115818141	528.184579734115	-37.4288609550309	-2.54661341396258	0.923825892093327	1.60143607733442	0.00102006094028933	-0.00113307885707473
0.97	9.22753538946409	4.90869580941795	528.207821814609	-37.4456675208624	-2.5489651584709	0.920251115327889	1.59823797098874	0.00101634487687696	-0.00110592752883662
0.98	9.22872669193627	4.91680993276614	528.247948127479	-37.4666768397303	-2.55167568770349	0.915804926631467	1.59425566107225	0.00101215174066791	-0.00107298903324649
0.99	9.23003905694654	4.92578175418056	528.303822780047	-37.4917726792239	-2.55471116005497	0.910607272062922	1.58958963372203	0.00100754275471151	-0.00103432966045901
1	9.23122742256373	4.93543922625917	528.37371823646	-37.5206615797086	-2.55801499082391	0.904803642445405	1.58436372480313	0.00100261589431496	-0.000990273774448505
1.01	9.23206295049156	4.94556027319788	528.455398861856	-37.5528858662582	-2.56151199347024	0.898562106592863	1.5787228033645	0.000997498249925769	-0.000941390358927735
1.02	9.23233589731863	4.95588573226762	528.546224007542	-37.5878442491363	-2.56511252083378	0.892069868810343	1.57282985367484	0.000992338572130077	-0.000888467833646378
1.03	9.23185528319647	4.96613416343157	528.643265125183	-37.6248187518772	-2.56871634825372	0.885529186582421	1.56686229579054	0.000987300498541889	-0.000832478795690997
1.04	9.23044604739128	4.9760175608069	528.743430997584	-37.6630063783838	-2.57221613321537	0.879152512125601	1.56100743070078	0.000982556779999489	-0.000774536900516667
1.05	9.22794463977419	4.98525693520733	528.843595120779	-37.7015537191849	-2.57550038810991	0.87315678074193	1.55545697006115	0.000978284618729668	-0.000715848481024073
1.06	9.22419414651388	4.9935967517832	528.94071953271	-37.7395926101167	-2.57845600145539	0.867756854257432	1.5504007053568	0.000974662029114598	-0.000657661691586833
1.07	9.21904007273947	5.0008173000306	529.031969905443	-37.7762749923547	-2.58097042651347	0.863158230831215	1.5460194774357	0.000971864957303581	-0.000601215956129428
1.08	9.21232780348497	5.0067442377048	529.114817438388	-37.8108052702501	-2.58293371449556	0.859549242411996	1.54247771351823	0.000970064770849376	-0.000547694309507699
1.09	9.20390254893577	5.011254771812	529.187123944921	-37.8424687049993	-2.58424059533327	0.857093066191697	1.5399158933497	0.000969425669635316	-0.000498180876964349
1.1	9.19361227517676	5.01428020024387	529.247207454577	-37.8706546949092	-2.58479279899483	0.855919964552253	1.53844337816863	0.000970101582536583	-0.000453625274207434
1.11	9.18131376104845	5.01580481486434	529.293886606946	-37.8948741511369	-2.58450176556558	0.856120228284332	1.5381320764916	0.000972232199516967	-0.000414815173076732
1.12	9.16688154463303	5.01586143785797	529.326503052281	-37.9147705547099	-2.5832918180455	0.857738321510873	1.53901142296383	0.000975937936244452	-0.00038235770880396
1.13	9.15021916951049	5.01452410577558	529.344921968524	-37.930124650859	-2.58110377704966	0.860768708109126	1.54106510763472	0.00098131381999692	-0.000356669846599295
1.14	9.13127184768501	5.01189861082193	529.349511634882	-37.9408530773888	-2.57789889308664	0.865153776586304	1.54422991356858	0.000988422497983142	-0.000337977314903468
1.15	9.11003945160307	5.00811174200256	529.341103752937	-37.947001516062	-2.5736628730161	0.870784175504309	1.54839690489039	0.000997286775513036	-0.000326321280181341
1.16	9.08658864982075	5.00330013098244	529.320936864702	-37.948733185783	-2.5684096957295	0.87750173088536	1.55341506268937	0.00100788226506728	-0.000321571604928628
1.17	9.06106301528023	4.9975995963296	529.290585769624	-37.9463136552325	-2.56218485947656	0.885104950403939	1.5590973028942	0.00102013084481937	-0.000323445308395787
1.18	9.03369005542492	4.99113579876655	529.25188027458	-37.9400930377218	-2.55506768792454	0.893356939300922	1.56522864051448	0.00103389566918291	-0.000331528740581954
1.19	9.00478432269606	4.98401687819665	529.206816907258	-37.9304866451153	-2.54717234819251	0.901995374428293	1.5715761018447	0.00104897843536127	-0.000345301977658363
