Time [s]	GRFml [N]	GRFap [N]	GRFv [N]	Mml [N.m]	Map [N.m]	Mv [N.m]	Mfree [N.m]	COPml [m]	COPap [m]
0.01	-4.26844008660889	1.85310597775954	610.423630760522	20.309664210406	13.1015710398391	0.582251598017519	-0.763999684345057	-6.10557319545846e-05	0.0221260675723724
0.02	-4.33212709177647	1.73744003157354	611.22318539936	20.4023843880939	13.0897529444352	0.666493365970484	-0.848287137456896	4.67384460884901e-05	0.022076532103504
0.03	-4.35799695843365	1.61875959320349	612.165354477915	20.496071998584	13.0485345689997	0.743553801765492	-0.923978181048689	0.000147987022014351	0.0219753907272109
0.04	-4.3150465175977	1.49635284261863	613.384968541437	20.5921013720476	12.9541966098442	0.807998081366411	-0.984513923860361	0.000237255416305593	0.0217806670454223
0.05	-4.18346366130306	1.37217428458635	614.919146923233	20.6902709516585	12.7906217176585	0.856808483684838	-1.02621421956889	0.000312021916696104	0.0214655790517864
0.06	-3.95753404179967	1.25045599603461	616.681744704682	20.7881405782438	12.5514425729076	0.889655055246672	-1.04864518736994	0.000373032574697563	0.0210226694312117
0.07	-3.6461607065147	1.13635735375693	618.468983416213	20.8808392244383	12.2408960508345	0.908449521972758	-1.0541615859678	0.000423679731897164	0.0204648904080154
0.08	-3.27096353932687	1.03426981656092	619.994962371789	20.9614736604684	11.8731782802618	0.916383634438735	-1.04683733791678	0.000468690340733158	0.0198234001240029
0.09	-2.86232447045448	0.946516790342032	620.949205888636	21.0221903473331	11.4702916421529	0.916811707105708	-1.03117369532425	0.000512647535640065	0.0191423440429254
0.1	-2.45405935439907	0.873002487352744	621.063651247102	21.0557913187281	11.0586438795674	0.912358287208706	-1.01100343955786	0.000558885567580325	0.0184714511160549
0.11	-2.07760013120533	0.811966273707849	620.174431039629	21.0576065408006	10.6649396135741	0.904519117016766	-0.988895618570704	0.000609087782097673	0.01785775077838
0.12	-1.7566576734624	0.761546011403641	618.264949419058	21.0271575840976	10.3121055925909	0.893829016825632	-0.966164102084988	0.000663579567756756	0.0173379674124772
0.13	-1.50330806047579	0.721504700115711	615.480904625761	20.9690978258437	10.0160330407655	0.88046724095628	-0.943371427102776	0.00072199736001155	0.0169330656579185
0.14	-1.31629683981746	0.694350310296567	612.114094942987	20.893034100146	9.78376996467017	0.865025567630574	-0.921065671617593	0.000783868768322149	0.016645987821522
0.15	-1.18207027936165	0.68523136181958	608.558522370037	20.8121106736118	9.6134818097459	0.849117548436131	-0.900433535723519	0.000848720798489522	0.0164629370633412
0.16	-1.07860212185158	0.700387744342764	605.247850697983	20.7405909508782	9.49610136160843	0.835566865878413	-0.883604007152878	0.000915604754427757	0.0163577891412969
0.17	-0.981498248474483	0.744463271467267	602.586487223173	20.6909890873364	9.41821355488183	0.828055918661434	-0.873469344983542	0.000982262780705678	0.016298555012115
0.18	-0.871205792598697	0.817474796486133	600.8869968712	20.6714703211484	9.36546462847499	0.830297455712795	-0.873058047350991	0.00104440312537302	0.0162544238527768
0.19	-0.73959784813819	0.912506225774993	600.324524524383	20.6841905563902	9.32570952421983	0.844956988840645	-0.884645455273238	0.00109557807881144	0.0162018732320074
0.2	-0.593994243714873	1.01512868236538	600.915166569638	20.72499272392	9.2912287658474	0.872650984363435	-0.908877162507893	0.00112794669253646	0.0161286336860864
0.21	-0.457040208013916	1.10511804159409	602.520690318514	20.7845031900236	9.25961823298487	0.911343823568125	-0.944184303216472	0.00113384327521548	0.0160348523289068
0.22	-0.361868765874041	1.16035480449506	604.877437948021	20.8503010020519	9.23330565491237	0.956363593590644	-0.986690602105078	0.00110772439244411	0.0159314722238678
0.23	-0.343417931003281	1.16206237900372	607.643305598886	20.9095834379585	9.21798210705976	1.00108361263096	-1.03067592328475	0.00104788761713048	0.0158364671077673
0.24	-0.428187761282389	1.10001740896626	610.453896331201	20.9516882954678	9.2204687254424	1.03812726029129	-1.06951163190911	0.000957418385619246	0.0157699966533019
0.25	-0.625524460238899	0.976240027114185	612.977763912644	20.9699498013645	9.24661274001462	1.06080704246535	-1.0968612746371	0.000844086526305743	0.0157496797623629
0.26	-0.923288062561987	0.805999822456301	614.961368687915	20.9625946370131	9.29971403923082	1.06444779188232	-1.1078753640689	0.000719254035560835	0.0157870052362881
0.27	-1.289469665688	0.615659264477251	616.256885467964	20.9326373596134	9.37976479117629	1.04728184674022	-1.10011262562573	0.000596125733035802	0.0158854805225647
0.28	-1.67939990803094	0.437712418214481	616.829810662166	20.886936229357	9.48351834503799	1.01072351823352	-1.07398624225191	0.000487783602856617	0.0160405993771673
0.29	-2.04634835621151	0.304119837858898	616.747501105202	20.8346868859602	9.60517896240791	0.958992347155874	-1.03264466359608	0.000405392033865581	0.0162412529776676
0.3	-2.35225177396781	0.23948994422404	616.153304233988	20.7856685062689	9.73738908915729	0.898213131392253	-0.981326840513355	0.000356816577725461	0.0164719487297985
0.31	-2.57541005753431	0.255706273245675	615.232995514303	20.7485425407506	9.87220743531324	0.835234043245088	-0.926350967320378	0.000345756702768707	0.0167151877062703
0.32	-2.71316722521694	0.349252361038083	614.180506923967	20.7294632741204	10.001887444627	0.77644557426988	-0.873973721837208	0.000371413468133852	0.0169535386204033
0.33	-2.77935561438647	0.501843045686585	613.168654658059	20.731201844868	10.119414516879	0.726846879777675	-0.829371851507709	0.000428696567727815	0.017171216861778
0.34	-2.79794143303549	0.684200014892351	612.328406480402	20.7529069641626	10.2188719799248	0.689509562620331	-0.795945779662847	0.000508975891703733	0.0173552033345081
0.35	-2.79528370107687	0.862100870753259	611.737941041688	20.7905223049297	10.2957398138466	0.665467061968178	-0.77504369541079	0.000601347826232335	0.0174960379761286
0.36	-2.79344140782397	1.00335051307592	611.420953171753	20.8377616884427	10.347188621112	0.653951434910177	-0.766089225525708	0.000694295229722641	0.0175883894490472
0.37	-2.80616316770386	1.08417078333888	611.352626044364	20.8874346928516	10.3723500517593	0.652839947839811	-0.767004531831899	0.000777499158243766	0.017631390620871
0.38	-2.83799498572568	1.09369077892334	611.471341319667	20.9328498787357	10.3724709080801	0.659172065844373	-0.77477960433394	0.000843469207810421	0.0176286196169735
0.39	-2.88585868066203	1.03567632258124	611.694209973564	20.9690229380515	10.3508283553067	0.669640135579366	-0.786051569977244	0.000888654276489431	0.0175875658402628
0.4	-2.94186656808153	0.927240669775383	611.934520482811	20.9934815064788	10.3123130103338	0.681015348374785	-0.797607097225858	0.000913796295366809	0.017518479692636
0.41	-2.99615824876367	0.794892638974458	612.119020924943	21.0065617879002	10.2626670150306	0.690513635238248	-0.806776718674441	0.000923466535231232	0.0174326510487218
0.42	-3.03901303915649	0.668783255839532	612.202645175559	21.0111984441187	10.207469467143	0.696115440455385	-0.811725377241492	0.000924914915742092	0.0173403465022837
0.43	-3.06209255799563	0.576325945328469	612.178146409995	21.0122902982053	10.1510559843106	0.696830434485474	-0.811647475351232	0.000926505051395465	0.0172487911439032
0.44	-3.05909856578122	0.536452449446404	612.07845063916	21.0157717820163	10.0956077570021	0.692862925059689	-0.80685552546989	0.000936068114870681	0.0171606420813369
0.45	-3.02623132085203	0.555632874984732	611.970578331803	21.0275423366253	10.0406265461137	0.685612998930855	-0.798730823736987	0.00095948965280912	0.0170733311447508
0.46	-2.9626360600322	0.6264671898457	611.941611918505	21.0524158470438	9.98292763588167	0.677461961538021	-0.78950424497546	0.000999770370672781	0.0169794634339535
0.47	-2.87071111169583	0.729192397538988	612.079036052359	21.0932533950262	9.91715984799063	0.671340134948196	-0.781864677317788	0.00105670119947099	0.016868204775063
0.48	-2.75594453438536	0.835895946115094	612.449313515584	21.150426413806	9.83674177230976	0.670142887318646	-0.778443343858751	0.00112718007096413	0.0167273584508793
0.49	-2.62599513264418	0.916650347489746	613.079290613077	21.2217108980096	9.73502304270116	0.676118512727774	-0.781272484009794	0.00120607961921426	0.0165456918584416
0.5	-2.48903251433557	0.946289953920798	613.944681308611	21.3026336739075	9.60645455718191	0.690373908868632	-0.791342650702893	0.00128746230879329	0.0163150566891685
0.51	-2.35174106069266	0.910276539621935	614.968499608578	21.3871947926171	9.44757388128745	0.712620363625517	-0.808369989292985	0.00136585660952793	0.0160319328372906
0.52	-2.21764842430105	0.8081812084343	616.030218723258	21.4688072456473	9.25766083358611	0.741220363630324	-0.830835235278764	0.00143728834815149	0.0156981693003652
0.53	-2.08639698059479	0.653809349618809	616.984126658629	21.5412577031785	9.03897631051944	0.773518893902307	-0.856286267253753	0.00149982896795831	0.0153208506207251
0.54	-1.95423586654358	0.471838648559857	617.683343702952	21.5995128570363	8.79656041819982	0.806373891335579	-0.881828982112152	0.00155356914974591	0.0149113632105776
0.55	-1.81554046704576	0.291802645806177	618.004705894364	21.6402614744121	8.53763738669267	0.836758460548118	-0.90468736820626	0.00160010501978558	0.0144838683305085
0.56	-1.66480696303731	0.141022362595526	617.869484784958	21.6621595820986	8.27075180831237	0.862299526173922	-0.922704032916344	0.00164176517282777	0.0140535002636472
0.57	-1.49849321445029	0.0383903837608844	617.255801379584	21.6658028687055	8.00482438732054	0.881641540864765	-0.934676945004925	0.00168085141414753	0.0136346719316484
0.58	-1.31628532304419	-0.00937124820545205	616.200471388031	21.6534730121106	7.74833463708425	0.894571095289149	-0.94047692969173	0.00171909943566895	0.0132398444638571
0.59	-1.12170096470506	-0.00812669383780083	614.790508855318	21.6287041272365	7.50878894782836	0.901896535524281	-0.940947635392639	0.00175742636914977	0.0128789762987773
0.6	-0.922181349185249	0.0264565081771742	613.147002960113	21.595715975971	7.29251964353569	0.905132146405672	-0.937638441599521	0.00179589372731415	0.0125596337135174
0.61	-0.728843160141266	0.0738975413673501	611.405848341079	21.5587797471625	7.10472413871224	0.906076247170442	-0.932448782335256	0.00183374592750529	0.012287497538597
0.62	-0.555892863245576	0.114614240462071	609.700260061487	21.5216172770445	6.94955402108624	0.906388067329205	-0.92726581318632	0.00186941509246386	0.0120668478768828
0.63	-0.419514117491148	0.134839564807031	608.148933449865	21.4869625832353	6.83005280726477	0.907257926888744	-0.923661468334352	0.0019004864650316	0.011900631699208
0.64	-0.336008240119245	0.129590575056501	606.851437768404	21.4564066573724	6.74783008186822	0.909234840342326	-0.92269044584892	0.00192373074330598	0.0117899243005369
0.65	-0.319175928053041	0.103137546335406	605.889734814623	21.4305865441231	6.70251163087135	0.912235569255857	-0.924807651224636	0.00193536080787027	0.0117329042459294
0.66	-0.377296245441335	0.0670722445622743	605.332539152766	21.4096767138878	6.6911502116853	0.915719451057136	-0.929906320098044	0.00193162250960388	0.0117237377790884
0.67	-0.510397610306253	0.0366283001117959	605.238355285994	21.3940273174804	6.70785151145247	0.918980028855111	-0.937463551587706	0.00190969322053858	0.0117518871825499
0.68	-0.708638184192185	0.0262653735426338	605.653746373989	21.3847134061236	6.74383177248874	0.921479592833312	-0.94676265740802	0.00186869143494683	0.0118022627131908
0.69	-0.95243413429833	0.0456417330863125	606.60545552531	21.3837477317826	6.78799537105363	0.923137999302478	-0.957140270660041	0.00181046872162038	0.0118563698193744
0.7	-1.2145437626005	0.0969565704265395	608.087698415784	21.3937827083526	6.82796025833055	0.924487653932334	-0.968188023801229	0.00173982616891488	0.0118942774066332
0.71	-1.46378331031453	0.174275852690622	610.048340552059	21.4172742479362	6.85133461080696	0.926629621939882	-0.979837384629547	0.00166390568274832	0.0118969827126827
0.72	-1.6695967169876	0.264943839542315	612.378917068553	21.4552672188182	6.84700464602923	0.930974707969593	-0.992282825222809	0.00159074289126948	0.0118486652130976
0.73	-1.80647437486437	0.352650384938894	614.913072537437	21.5061361791628	6.80623528589429	0.938820219458374	-1.00575171137738	0.00152727305918887	0.011738418113739
0.74	-1.85728798914444	0.421314466320425	617.436068214144	21.5647141858372	6.72347761999375	0.950877428344862	-1.02019248950669	0.00147735020529538	0.0115612567446963
0.75	-1.81495655787897	0.458775167515106	619.705147311009	21.6222148372299	6.59686781609142	0.96689993781711	-1.03499945349812	0.00144045367781953	0.011318423596227
0.76	-1.68236186021696	0.459400317805775	621.477721047143	21.6671797296701	6.42844872389633	0.985549250365937	-1.04889850448984	0.00141163251965759	0.0110171456860722
0.77	-1.47090500391446	0.425082360602187	622.542457900203	21.6873982802608	6.22413480578692	1.00456874521102	-1.06007449566519	0.00138287847573115	0.0106700096428128
0.78	-1.19835631568139	0.364560271185832	622.747936060325	21.6724325444457	5.99339345710392	1.02124037208917	-1.06653844951744	0.00134562989878129	0.0102940283887509
0.79	-0.886606933265883	0.291422933577157	622.024467848234	21.6161428413668	5.74857275014503	1.03300379166637	-1.06664132856475	0.00129366921637208	0.00990935577253088
0.8	-0.559636944777419	0.221385994580543	620.396435436989	21.51853950605	5.50380875947792	1.03806077038404	-1.05957608712913	0.00122546370118193	0.00953754918756189
0.81	-0.241657096554195	0.169450194854409	617.984226468998	21.3864167188701	5.27351624017729	1.03579058889158	-1.04569973783151	0.00114511287795638	0.00919934260634292
0.82	0.0448211182343838	0.147400588688111	614.996070576031	21.2325224198021	5.07059395103836	1.02686483741801	-1.02656023050535	0.00106148271363482	0.00891207272101407
0.83	0.281149373306041	0.161908872853456	611.710637734066	21.073394199418	4.90461890853845	1.01304881064664	-1.00461145226327	0.000985687452584427	0.00868713549170741
0.84	0.454775464491461	0.213366315279253	608.451469071596	20.9263320389046	4.78040348936321	0.99677372067129	-0.982705516583961	0.000927623635420871	0.00852803494571786
0.85	0.561002056849346	0.295548584808309	605.554650235526	20.8061880739275	4.6972911814152	0.980622175440816	-0.963521836119456	0.000892582277127962	0.00842961616779464
0.86	0.603542638774312	0.396253073631866	603.331951435826	20.7226807642441	4.64944427034078	0.966869596832086	-0.949099473111181	0.000878962534321737	0.00837889162336841
0.87	0.593317360773858	0.499048173231664	602.032934002419	20.6787928345413	4.62714698049844	0.957173899810845	-0.940583823255295	0.000877795769502865	0.00835749462562946
0.88	0.545452716478418	0.586129421615445	601.810857096853	20.670542938222	4.61887250096185	0.952434275033579	-0.938209413501457	0.000874274293779953	0.00834532953004313
0.89	0.475135830225957	0.641962315422132	602.697975296217	20.6881069906717	4.61363137761215	0.952782483143951	-0.941458388631783	0.000850926550319819	0.00832459189961238
0.9	0.393537584150707	0.656994931406935	604.595408535428	20.7179815252642	4.6030176546518	0.9576492611628	-0.949291918977916	0.000791646341543939	0.00828315683879699
0.91	0.305186869106388	0.630430323035198	607.280924878123	20.7456854353589	4.5824456833502	0.965864507456255	-0.960360004788267	0.000685575548797335	0.00821646766130396
0.92	0.207816208477545	0.571058591934572	610.434931506322	20.7584211649715	4.55131141203983	0.975783804448983	-0.973140992009918	0.000529896664963503	0.00812747960965576
0.93	0.0948827180939904	0.495566164048934	613.681424384402	20.7471693546077	4.51214191195468	0.985459736325201	-0.986018068759702	0.000330882857057402	0.00802479339295392
0.94	-0.0400233918463649	0.424492675835255	616.637569956914	20.7078539439654	4.46910238884178	0.992876274491051	-0.997338238482418	0.000102991930403862	0.0079196513955867
0.95	-0.198451752661742	0.376842210045026	618.96387090662	20.6414460121732	4.4264009676026	0.996237110642322	-1.0055039648329	-0.000133743280638532	0.00782277179879881
0.96	-0.373847179122175	0.364936383966159	620.406971565262	20.5531166088832	4.38710562093939	0.994259947719066	-1.00912084078256	-0.000357401306582017	0.00774195253470322
0.97	-0.551132793263436	0.391146405841227	620.828956350461	20.4507418528937	4.35267800781876	0.986401985043772	-1.00718320467737	-0.000548112180507432	0.00768101099313623
0.98	-0.709465207050417	0.4475842954735	620.219828822376	20.3431620170674	4.32322331017585	0.972945513677874	-0.999246131733617	-0.000691441792896152	0.00764008933978461
0.99	-0.827342175616846	0.51884719309626	618.692847524869	20.2385819751644	4.2981811918136	0.954909685006372	-0.985523666403967	-0.00078060881765174	0.00761687069304662
1	-0.888385283029666	0.586861035506353	616.464811591307	20.1433892642434	4.27705360831676	0.933810890378171	-0.966873492723224	-0.000817234874565309	0.0076080128011029
1.01	-0.885915932644693	0.636168066979075	613.824924030521	20.0615050035218	4.25982630418042	0.911345386985003	-0.94466751934993	-0.000810662348494473	0.00761019209968933
1.02	-0.824956880617363	0.657919845998224	611.096631289422	19.9942340107962	4.24694903038107	0.889091239364526	-0.920587626730782	-0.000776139663365094	0.00762048852889535
1.03	-0.721274902167364	0.651396146159052	608.597169746575	19.9404951279105	4.2389833838681	0.868312216771657	-0.896407942901113	-0.000732311902460481	0.00763624228963267
1.04	-0.598091206856279	0.622833874566358	606.5996794651	19.8973072128243	4.23618332639504	0.849900788250953	-0.873819990105114	-0.000698458501871779	0.0076547713352435
1.05	-0.481703842680723	0.582325826327906	605.302633192632	19.8604527650399	4.23826885403245	0.834440997643697	-0.85432832711686	-0.000691835711247757	0.00767333248357605
1.06	-0.397286117063631	0.540153961975684	604.810691194938	19.8252843674336	4.2445011967954	0.822329006836863	-0.839206551459677	-0.000725383650188816	0.00768946417639593
1.07	-0.365639342846302	0.503941456867901	605.129628434242	19.7876310384647	4.25395872257682	0.813876728012953	-0.829475368785856	-0.000806003835667646	0.00770151723289014
1.08	-0.401008068269124	0.477479056649483	606.175648747636	19.7446943655424	4.26576570508987	0.809344994320562	-0.825859391332352	-0.00093360816930077	0.00770895880768629
1.09	-0.509587658261369	0.461267338882189	607.796587923306	19.6957390683772	4.27902738039762	0.808894955655722	-0.828699444943802	-0.00110113411336255	0.00771206276399705
1.1	-0.688309932051739	0.454085297596501	609.799980320343	19.642346943481	4.29238230853444	0.812489231357858	-0.837832530025205	-0.00129564275324667	0.00771088327148423
1.11	-0.923875038762514	0.454556524571516	611.98160436564	19.5880692744915	4.30332154248536	0.819798646635194	-0.852485207449479	-0.00150043008897571	0.0077038155458693
1.12	-1.19255628211757	0.461854583587457	614.148554502303	19.5374819664504	4.30762107175628	0.830166644479657	-0.871241477051574	-0.00169782190053391	0.00768637120203791
1.13	-1.46166866143445	0.475251759602965	616.133149225302	19.4948615647894	4.29928085512334	0.842655315408416	-0.892134078478458	-0.00187208950263107	0.00765085657233733
1.14	-1.69345510789266	0.492883244934185	617.797405165364	19.4628658772807	4.27122048264764	0.856159127681577	-0.912871342498153	-0.00201183579361708	0.00758738029779632
1.15	-1.85142902690787	0.510554295937298	619.031172562959	19.4416378025097	4.2166978359139	0.869544077013544	-0.931164596549193	-0.00211132799463176	0.00748612311223723
1.16	-1.90813856638108	0.521457179567211	619.749020481065	19.4286261123769	4.13111013951073	0.881765620195069	-0.945083659441924	-0.00217057093633721	0.00734028076352644
1.17	-1.8523403812051	0.517281272615573	619.890715120753	19.4191739206017	4.01363714205344	0.891940189866838	-0.953356191354989	-0.00219430602736626	0.00714876146900373
1.18	-1.69318788611902	0.490573974164353	619.427669508628	19.4076601767876	3.86817982198514	0.899379291330105	-0.955544613597938	-0.00219042802890679	0.00691772288718934
