Time [s]	GRFml [N]	GRFap [N]	GRFv [N]	Mml [N.m]	Map [N.m]	Mv [N.m]	Mfree [N.m]	COPml [m]	COPap [m]
0.01	15.5916779549031	-16.6734064717316	616.230128220392	-58.5561799265981	3.78782680568086	1.16617984485034	2.75090657755947	-0.00341064364625847	0.00755155482572892
0.02	15.4954533215456	-15.9535678943081	616.627750779025	-58.3862765655619	3.78644391502633	1.05980988631752	2.62570949259964	-0.00341425324353037	0.00721401249431299
0.03	15.3988639514795	-15.2449780606711	617.015727376855	-58.2198673685104	3.78713014648551	0.955479364705801	2.50277889432517	-0.00341647692344118	0.00688316349663101
0.04	15.3026781721788	-14.5598672129622	617.387165569729	-58.0601265265461	3.79125737143747	0.855076968686452	2.38427703205871	-0.00341489485643808	0.00656523123912316
0.05	15.2076588398756	-13.9096925881807	617.735806845395	-57.9099997276173	3.80009405844151	0.760342361883628	2.27219455965872	-0.00340716810927702	0.00626599810546663
0.06	15.1145643988076	-13.3047299579219	618.056293184088	-57.7720865189857	3.81472784554825	0.672797986836743	2.16827629866341	-0.0033911846138001	0.00599057000957513
0.07	15.0241500501674	-12.7537275758608	618.344394824165	-57.6485399624012	3.83600078488274	0.593692822357836	2.07396106414263	-0.00336518845960588	0.00574317333450029
0.08	14.9371677905172	-12.2636380408339	618.597186688328	-57.5409886215963	3.86446151650906	0.523960950878757	1.99033818225843	-0.00332788375846623	0.00552699486195853
0.09	14.8543641570634	-11.8394382859446	618.81316329649	-57.4504845100315	3.90033717318364	0.464196772866731	1.91812215815575	-0.00327850658212948	0.00534407271885275
0.1	14.7764746883743	-11.484042275577	618.992285028026	-57.3774790339843	3.94352624497666	0.414647610186063	1.85764579820144	-0.00321686104277332	0.00519524334070047
0.11	14.7042143664664	-11.1983054667902	619.1359521565	-57.3218273086696	3.99361207899716	0.375223353085656	1.80887102852663	-0.0031433182641977	0.00508014618383434
0.12	14.638263638539	-10.9811150511299	619.246906978241	-57.2828196182605	4.04989527173133	0.345521801575845	1.77141573605104	-0.00305877960128705	0.00499728462460713
0.13	14.5792500078929	-10.8295557428665	619.329068375766	-57.2592373389151	4.11144202247543	0.324867493821691	1.74459422162866	-0.00296460784543449	0.00494413837522421
0.14	14.5277256121916	-10.7391376335206	619.387307063407	-57.24942943341	4.17714462080626	0.312361148468374	1.72746831393583	-0.00286253216546105	0.00491732001357813
0.15	14.4841416467512	-10.7040705056203	619.427173316352	-57.2514047192771	4.24578967473006	0.306936403688648	1.7189058514095	-0.00275453406213459	0.00491276602830457
0.16	14.4488209107429	-10.7175680107625	619.454591954738	-57.2629345454356	4.31612945684599	0.307420324678478	1.71764309384544	-0.00264272257508818	0.00492595123821542
0.17	14.4219301228883	-10.772165202796	619.475541533449	-57.2816602943672	4.38695183631349	0.312594168210816	1.72234766527526	-0.00252920732725213	0.00495211462644808
0.18	14.4034539385706	-10.8600339417878	619.495735905037	-57.3052002421241	4.45714463689758	0.321251118149536	1.73167884072018	-0.00241597772223586	0.00498648455109328
0.19	14.393172773135	-10.9732824645815	619.520326458855	-57.3312507200722	4.52575086313302	0.33224810850194	1.74434235174236	-0.00230479577097294	0.00502449192144465
0.2	14.3906465725817	-11.10422774141	619.553642339671	-57.3576771775342	4.59201200582995	0.344549391529678	1.75913737439661	-0.00219710870781599	0.00506196118205575
0.21	14.3952065564039	-11.2456318858668	619.598983833424	-57.382591580567	4.6553975095362	0.357260143942026	1.77499394772052	-0.00209398589300628	0.00509527070812885
0.22	14.4059566809751	-11.3908966488256	619.658480974437	-57.4044135319403	4.7156193948445	0.369649089319559	1.79099971592216	-0.00199608264134427	0.00512147634268569
0.23	14.4217861395943	-11.5342127217431	619.733025451649	-57.4219134949561	4.77263192038629	0.381159806426432	1.80641555437229	-0.00190363172530208	0.00513839414339731
0.24	14.4413936427682	-11.6706630521696	619.822279312867	-57.4342374885504	4.82661699499223	0.391411051835577	1.82068028918932	-0.00181646152226188	0.00514464080015908
0.25	14.4633235371291	-11.7962815254618	619.924759079273	-57.4409135412548	4.8779567727897	0.400187018035172	1.8334053157624	-0.00173403823040372	0.00513963249024617
0.26	14.4860130620056	-11.9080701242573	620.037989012566	-57.4418410058683	4.92719545737835	0.407418948552372	1.84436043131765	-0.00165552834898526	0.00512354503291076
0.27	14.5078492565389	-12.0039790125926	620.158712757085	-57.4372645153965	4.97499279093625	0.41315992062411	1.85345259627986	-0.00157987674814184	0.00509723999175379
0.28	14.5272332708929	-12.0828549092609	620.28314872591	-57.4277348857561	5.02207200478722	0.417554871826556	1.86069961297954	-0.00150589514408722	0.00506216278121449
0.29	14.5426491585521	-12.1443636455318	620.407271690061	-57.4140596344898	5.06916516161675	0.420808084890099	1.86620085123706	-0.0014323556200906	0.0050202198210845
0.3	14.5527336872862	-12.188892993748	620.527101281058	-57.3972459894903	5.11695883343526	0.423150355824044	1.87010715970393	-0.00135808394419511	0.00497364233424209
0.31	14.556343352679	-12.2174417631982	620.638977670597	-57.3784393178182	5.16604294416734	0.424807960966583	1.87259198776103	-0.00128204777506794	0.00492484450526183
0.32	14.5526146490004	-12.2315008483883	620.739805601663	-57.3588598289007	5.21686537387554	0.425975319838521	1.87382551919836	-0.00120343536266902	0.00487628343853438
0.33	14.5410137733639	-12.2329314402103	620.827250175133	-57.3397402200484	5.26969458658789	0.426792937939401	1.87395330426978	-0.00112172099385961	0.00483032771773345
0.34	14.5213723204425	-12.2238450243629	620.899871214516	-57.3222666592795	5.32459211972583	0.427331825595339	1.87308049290938	-0.00103671416946315	0.00478914043052081
0.35	14.4939061586889	-12.2064891378653	620.957187421887	-57.3075251654973	5.38139627549182	0.427585147283756	1.87126234329396	-0.00094859030489128	0.00475458134953484
0.36	14.4592155387588	-12.1831421696108	620.999666608614	-57.2964550725819	5.43971780020199	0.427467384420705	1.8685012324724	-0.00085790160603884	0.00472813162576291
0.37	14.4182655262187	-12.1560198029471	621.028643685178	-57.2898108726966	5.49894774577007	0.426820818744825	1.86474995586113	-0.000765567674325967	0.00471084292978934
0.38	14.372347012788	-12.1271950287264	621.046173439946	-57.2881333421288	5.55827710071686	0.425428688926525	1.85992069560535	-0.000672846326503263	0.00470331154744627
0.39	14.3230197690856	-12.0985330217915	621.054830031385	-57.2917304730528	5.61672718180254	0.423033964815235	1.85389868739749	-0.000581286056371855	0.00470567657453803
0.4	14.2720401741414	-12.0716415831033	621.057469185044	-57.3006683753043	5.67318922017672	0.419362344564272	1.84655934073679	-0.000492662486601767	0.00471764013133663
0.41	14.2212773068098	-12.0478373099481	621.056971996358	-57.3147719786018	5.72647108817342	0.41414782889081	1.83778738295053	-0.000408902016830331	0.00473850649449978
0.42	14.1726219295934	-12.0281271702974	621.055990739423	-57.3336350600785	5.77534872494436	0.407159078166902	1.82749651041457	-0.00033199661554593	0.00476723627384733
0.43	14.127893465151	-12.0132047234037	621.056717016965	-57.3566388456739	5.81861955901646	0.398224720134017	1.81564804236186	-0.000263914267295762	0.00480251128120365
0.44	14.0887503068087	-12.0034598434736	621.060690922511	-57.3829781880085	5.85515511632288	0.387255850332551	1.80226717789664	-0.000206509912911625	0.00484280556713607
0.45	14.0566086872668	-11.9990004617287	621.068666715103	-57.4116941099785	5.88395005788653	0.374264148453319	1.78745564398662	-0.000161441757236936	0.00488645823655309
0.46	14.0325748526728	-11.999684539709	621.080546049895	-57.4417113261602	5.90416511601887	0.359374309708864	1.77139977545583	-0.000130097533604477	0.00493174407067896
0.47	14.0173944797495	-12.0051602211437	621.095384400367	-57.4718792185572	5.91516178304225	0.342829843077951	1.75437336864339	-0.000113534701863146	0.00497693863362046
0.48	14.0114221870908	-12.0149118835685	621.111470377477	-57.5010146557119	5.91652713042834	0.32499169536095	1.73673497851609	-0.000112437644918945	0.00502037536032932
0.49	14.0146127072455	-12.0283096325542	621.126471684514	-57.5279450113913	5.90808776474931	0.306329595835944	1.71891966498425	-0.000127093779442337	0.00506049302989413
0.5	14.0265339000978	-12.0446596658168	621.13763594821	-57.5515497665924	5.88991261560682	0.287406454147027	1.70142551975742	-0.000157389201255092	0.005095872939386
0.51	14.0464004051874	-12.0632529017035	621.142030114195	-57.570799169855	5.86230494859696	0.26885655773714	1.68479560426109	-0.000202823157026768	0.00512526592867478
0.52	14.0731254548692	-12.0834093392814	621.13679889337	-57.5847885857668	5.82578464988703	0.251358680841894	1.66959618845472	-0.000262539390759712	0.00514761009835868
0.53	14.105387295	-12.1045158166584	621.119421188058	-57.5927673758157	5.78106238718926	0.235605514725896	1.65639238906157	-0.00033537136839204	0.00516204056373826
0.54	14.1417058597781	-12.1260551750514	621.087943662281	-57.5941614204785	5.72900767135171	0.222271043186397	1.6457224555886	-0.000419897628006134	0.00516789287406998
0.55	14.1805248720441	-12.1476253221135	621.041172636372	-57.5885886932858	5.67061309178842	0.211977608460628	1.63807203798174	-0.000514503096226004	0.0051647017990973
0.56	14.2202944107556	-12.1689473076308	620.978809104609	-57.575867619471	5.60695706097119	0.205264436192188	1.63384978774726	-0.000617442175232182	0.00515219706677167
0.57	14.2595491952722	-12.1898622491927	620.901516566459	-57.556018274077	5.5391672785677	0.202559315052926	1.63336559433966	-0.000726899722480547	0.00513029736630792
0.58	14.2969783463737	-12.2103177291413	620.810917076077	-57.5292567766	5.46838683198839	0.204154962933682	1.63681264265921	-0.000841046664970462	0.00509910355833311
0.59	14.3314831392782	-12.2303450673992	620.709516920988	-57.4959835020319	5.39574442003195	0.210191367594756	1.64425430039594	-0.000958087833107654	0.00505889161118896
0.6	14.3622201914133	-12.2500295894871	620.600569083333	-57.456765935282	5.32232966518105	0.220645079215899	1.65561661318205	-0.00107630057046909	0.00501010535935377
0.61	14.3886285465041	-12.269476585922	620.487884590081	-57.4123171361875	5.24917392079287	0.235326072189582	1.6706869111707	-0.00119406367398548	0.00495334879996724
0.62	14.4104401458356	-12.2887760361613	620.375608581123	-57.363470850846	5.17723643720141	0.253882402638319	1.68911872526025	-0.0013098771477746	0.00488937734142743
0.63	14.4276741438415	-12.3079693006582	620.267979105497	-57.3111543042008	5.10739527760085	0.275812486674933	1.71044288932576	-0.00142237403009214	0.00481908721936693
0.64	14.4406163684218	-12.3270208439035	620.169087146604	-57.2563596481326	5.04044201402309	0.300484432984605	1.73408438270434	-0.00153032611367148	0.0047435022159622
0.65	14.4497859042704	-12.3457976416129	620.082655202945	-57.2001149342191	4.97707901648156	0.327161502078902	1.75938416197701	-0.00163264568638891	0.00466375686528596
0.66	14.4558912674197	-12.3640582763812	620.011849105743	-57.1434553503784	4.91791808943317	0.355032452385611	1.78562496011689	-0.00172838545909978	0.0045810754980232
0.67	14.4597789380841	-12.3814528937919	619.959133976589	-57.0873953268365	4.86347930717005	0.383245286713072	1.81205981080911	-0.00181673863379728	0.00449674676180763
0.68	14.4623771406197	-12.3975342511136	619.926180756785	-57.0329019987783	4.81418913528105	0.410942744841964	1.83794190069221	-0.00189704063455848	0.00441209362761467
0.69	14.4646377306943	-12.4117791317098	619.913825065416	-56.9808704258334	4.77037726652985	0.437297808254611	1.8625542737544	-0.00196877343205954	0.00432843932756996
0.7	14.4674789046555	-12.4236185113641	619.922075749107	-56.9321009206555	4.73227200366599	0.461547495781035	1.88523791718048	-0.00203157270955972	0.00424707012632036
0.71	14.4717312202598	-12.4324741319348	619.950166796328	-56.8872788306428	4.69999444051965	0.483023333550225	1.90541684842982	-0.00208523742105112	0.00416919626197096
0.72	14.478089143343	-12.4377986308113	619.996643620948	-56.8469571404476	4.6735520775729	0.501177073167999	1.92261899534348	-0.00212974065734361	0.00409591275664592
0.73	14.4870700358245	-12.439116135437	620.059473255222	-56.8115423034075	4.65283281513825	0.515600497567219	1.93649190493269	-0.00216524023215784	0.0040281620471312
0.74	14.4989821906247	-12.436060276082	620.136167763298	-56.7812837478756	4.63760046160203	0.526038479095254	1.94681261714498	-0.00219208708245901	0.0039667004875321
0.75	14.5139032021488	-12.4284068824762	620.223911079493	-56.7562675187164	4.62749295376335	0.532394820103373	1.95349137788129	-0.00221082948030094	0.00391207070694184
0.76	14.531669631602	-12.4160991681385	620.319681255558	-56.7364144863421	4.62202440349397	0.534730791049614	1.95656921835641	-0.00222221118944062	0.00386458156189413
0.77	14.5518785735568	-12.3992639046935	620.420362446089	-56.721483472561	4.6205918670592	0.533256662164864	1.95620977170444	-0.00222716205708373	0.00382429702127647
0.78	14.5739013415309	-12.3782178665512	620.522843508585	-56.7110794992704	4.62248740155981	0.528316879519098	1.9526860091651	-0.00222678007501502	0.00379103479415961
0.79	14.5969090566784	-12.3534645981135	620.624102488838	-56.7046671671021	4.62691555949005	0.520369844026793	1.94636283623372	-0.00222230462201841	0.0037643749072311
0.8	14.6199094431351	-12.3256822401676	620.721278199798	-56.7015889300888	4.6330160175686	0.509963494876061	1.93767667688415	-0.00221508134473054	0.0037436778159473
0.81	14.6417936144985	-12.2957036829177	620.811731366698	-56.7010877703341	4.63989058365913	0.497708063841655	1.92711327997171	-0.00220651987444573	0.00372811105214098
0.82	14.6613910983997	-12.2644906461447	620.893098297147	-56.7023335193172	4.64663341892551	0.484247446204002	1.91518500132536	-0.00219804624149501	0.00371668292561941
0.83	14.6775308213704	-12.2331034054278	620.963339753394	-56.7044518468301	4.65236298969825	0.470230625879911	1.90240874999199	-0.00219105237340248	0.00370828145168885
0.84	14.6891053042829	-12.2026677989902	621.020786775205	-56.7065547691651	4.65625405484339	0.456284501414989	1.8892856466178	-0.00218684539904111	0.0037017164973617
0.85	14.6951349444282	-12.1743409005437	621.064183832525	-56.7077714338212	4.65756791874582	0.442989296028112	1.87628324112019	-0.00218659959813497	0.00369576313355614
0.86	14.6948290284507	-12.149276388071	621.092728138628	-56.7072779291817	4.6556792439417	0.430857514139663	1.86382089533882	-0.00219131372449722	0.00368920433618501
0.87	14.687640069606	-12.1285902475265	621.10610250495	-56.704324945194	4.65009791487126	0.420317147457615	1.85225867668535	-0.00220177610452711	0.00368087146484185
0.88	14.6733082205652	-12.1133270970977	621.104498025038	-56.6982622661347	4.64048475731937	0.411699556245972	1.84188985383913	-0.00221853940136211	0.00366968131896606
0.89	14.6518928907669	-12.1044271673078	621.08862233928	-56.6885592915543	4.62666031920215	0.405232176349332	1.83293685633966	-0.0022419062870815	0.00365466897468376
0.9	14.6237892876408	-12.1026938735442	621.059689375528	-56.6748210325441	4.60860637273116	0.401035948616197	1.82555037370365	-0.00227192653855893	0.00363501598620115
0.91	14.589728376283	-12.1087619956048	621.019387310151	-56.6567992903684	4.58646026719232	0.399127150003904	1.81981113818972	-0.00230840532991469	0.00361007384438834
0.92	14.5507596657126	-12.123066731224	620.969822978007	-56.6343989662249	4.56050270696341	0.399423135938923	1.81573386393824	-0.00235092179785113	0.00357938278481257
0.93	14.5082172194186	-12.1458142870018	620.913442919698	-56.6076796511187	4.53113991558239	0.40175138751557	1.81327280280062	-0.00239885636059417	0.00354268610800516
0.94	14.4636702810765	-12.1769551556004	620.852933463525	-56.5768527869656	4.49888144464221	0.405861195737792	1.81232841662919	-0.00245142482040559	0.00349994011665201
0.95	14.4188608275006	-12.2161617285764	620.791104432541	-56.5422747664846	4.46431507579272	0.411437304246913	1.81275474514712	-0.00250771700245889	0.00345131960917339
0.96	14.3756311390448	-12.2628123256445	620.730762972202	-56.5044363526605	4.42808033530082	0.418114863633734	1.81436715244012	-0.00256673759119644	0.00339721863709462
0.97	14.3358450536621	-12.3159839992824	620.674585367384	-56.4639487609226	4.39084209450176	0.425495113137025	1.816950246752	-0.00262744691378531	0.00333824598889106
0.98	14.3013069036824	-12.3744565246032	620.62499537261	-56.4215266793203	4.35326557757412	0.433161286057623	1.8202658711017	-0.00268879966767599	0.00327521466660338
0.99	14.273682205206	-12.4367297550018	620.584057411233	-56.3779684300863	4.31599386090117	0.440694319992114	1.82406114191468	-0.00274977996101497	0.00320912453278387
1	14.2544239836313	-12.5010559894336	620.553391997296	-56.3341334280731	4.27962865310148	0.447688029647737	1.82807655879035	-0.00280943148693044	0.00314113737319337
1.01	14.2447082023592	-12.5654881664891	620.534118984315	-56.2909170933495	4.24471482274377	0.453763458844836	1.83205421511791	-0.00286688213709173	0.00307254387583289
1.02	14.2453811607789	-12.6279436186201	620.526831921576	-56.2492234460451	4.21172882359902	0.458582163483395	1.83574610659215	-0.00292136282855556	0.00300472247599523
1.03	14.2569210004822	-12.6862818655521	620.531604141947	-56.2099357606305	4.1810708842864	0.461858187427861	1.83892246853644	-0.00297222072827031	0.00293909063956928
1.04	14.279414669105	-12.7383936053248	620.548024496465	-56.1738858810929	4.1530606041913	0.463368481808086	1.84137998405519	-0.00301892737876499	0.00287704990547431
1.05	14.3125509013146	-12.7822967988775	620.575258178683	-56.1418230813305	4.12793544677513	0.462961492704905	1.84294960775276	-0.00306108243597755	0.00281992681231999
1.06	14.3556290399563	-12.8162346701432	620.612126108698	-56.1143836671725	4.10585155204034	0.460563613320028	1.8435036601341	-0.00309841381913409	0.00276891260717071
1.07	14.4075828775806	-12.8387696815061	620.657195079717	-56.0920628180135	4.08688629976483	0.456183176970704	1.84296178152088	-0.00313077504983163	0.00272500528119855
1.08	14.4670181735168	-12.8488671970137	620.708870435831	-56.0751904109567	4.07104213327897	0.449911669061674	1.8412953045899	-0.00315814044149826	0.00268895790649004
1.09	14.5322621016384	-12.8459626834433	620.765483480313	-56.063912711147	4.05825128201542	0.441921870298557	1.83852962050212	-0.00318059861856285	0.00266123738219518
1.1	14.6014226013865	-12.8300069514203	620.825367043168	-56.0581818056806	4.04838117700632	0.432462717226251	1.83474417871885	-0.0031983446296273	0.00264199748135227
1.11	14.6724554208189	-12.8014850879072	620.88691450802	-56.057754472487	4.04124051205049	0.421850782549716	1.83006987286744	-0.00321167070496029	0.0026310694972705
1.12	14.7432365307702	-12.7614063127795	620.948619883381	-56.0622017927818	4.0365860403109	0.410458434157678	1.82468371674871	-0.00322095552806476	0.00262797283053205
1.13	14.811637528514	-12.7112638975997	621.009098928511	-56.0709302384218	4.03413029092937	0.398698920388364	1.81880089349764	-0.00322665177132927	0.0026319465811291
1.14	14.8756016170505	-12.6529663706257	621.067093624291	-56.0832142176785	4.03355042777013	0.387008836919969	1.81266445156687	-0.0032292716069195	0.00264200169593654
1.15	14.9332177302167	-12.5887433319473	621.121464150617	-56.098239190104	4.03449844471721	0.375828640878461	1.80653310669237	-0.00322936995702753	0.00265699157958962
1.16	14.9827903726366	-12.5210311414679	621.17117378289	-56.1151535281032	4.03661279913251	0.365582071103658	1.8006677726947	-0.00322752539301173	0.00267569743767154
1.17	15.0229027660363	-12.4523453528097	621.215272617072	-56.1331263890905	4.03953143522123	0.356655490284451	1.79531757107779	-0.00322431882072577	0.00269692312621994
1.18	15.0524709571881	-12.3851479038773	621.252885733958	-56.1514080553966	4.04290595746388	0.349378266660947	1.79070614815	-0.00322031037895833	0.00271959307100157
1.19	15.0707866704678	-12.3217176324184	621.283210373292	-56.1693885871899	4.04641650200653	0.344005345417647	1.78701915085921	-0.00321601529980859	0.00274284602031777
