Time [s]	GRFml [N]	GRFap [N]	GRFv [N]	Mml [N.m]	Map [N.m]	Mv [N.m]	Mfree [N.m]	COPml [m]	COPap [m]
0.01	23.548959890236	-7.08076014889798	631.288317944138	-59.2165149226174	13.2772599496839	0.160594157255253	2.51848153117386	0.000175360035436299	-0.00443815729756286
0.02	23.5011063758458	-7.29419450532938	631.476630921098	-59.3537684277181	13.4946227389535	0.206732486386698	2.57155531733883	0.000517153356396446	-0.00424948995537153
0.03	23.4527536817644	-7.50074235727945	631.66037539645	-59.4911291326668	13.7097929050573	0.251738856481473	2.62342173117129	0.000855126984990948	-0.00405979052520609
0.04	23.403664574193	-7.69490757711164	631.835896180171	-59.6280398248187	13.9197194977988	0.294729125708127	2.67299854067112	0.00118463347529541	-0.00386944768595598
0.05	23.3535779497754	-7.87162518129656	631.999955922238	-59.7640075096045	14.1214947623872	0.334895615364236	2.71927960086808	0.00150126678710463	-0.00367881893241891
0.06	23.3022366423425	-8.02650014932649	632.149884575662	-59.8985853346837	14.312435791932	0.37154194108921	2.76137965802507	0.00180098047844139	-0.00348827805836296
0.07	23.2494139893689	-8.15600861134902	632.283691571884	-60.0313552836548	14.4901567526257	0.404112247868018	2.79857341918126	0.00208019041846194	-0.00329825555177905
0.08	23.1949373891717	-8.25765015799242	632.400133879137	-60.1619136376044	14.6526293017337	0.432213246640532	2.83032654839111	0.00233585907868866	-0.00310926797002756
0.09	23.1387074686094	-8.33004364839057	632.498736679598	-60.2898605854937	14.7982293546725	0.455627891210785	2.85631675376011	0.00256555930861955	-0.00292193386918894
0.1	23.0807119120808	-8.37296281896963	632.579767057407	-60.4147947091039	14.9257689755919	0.474320036665883	2.87644376232209	0.00276751643387827	-0.00273697542873128
0.11	23.0210334361146	-8.38731191161014	632.644164516431	-60.5363124434696	15.0345128337884	0.488429951078212	2.89082769267914	0.00294062847087081	-0.00255520638286867
0.12	22.9598518003406	-8.37504517063641	632.693435075571	-60.6540120692839	15.1241793458969	0.498261077506496	2.89979607217561	0.00308446515987431	-0.00237750812489
0.13	22.8974401052938	-8.3390371817502	632.729517919694	-60.7675013627115	15.1949272689611	0.504258931848694	2.90386044991454	0.00319924731174004	-0.00220479680983725
0.14	22.8341559285794	-8.28291348154286	632.754634990974	-60.8764077288556	15.2473290831029	0.506983446156229	2.90368417782347	0.00328580859237763	-0.00203798490044854
0.15	22.7704280879775	-8.21085255685143	632.771134442627	-60.9803894838858	15.2823329725864	0.507076403797084	2.90004342735714	0.00334554230880661	-0.00187794087058761
0.16	22.7067399921425	-8.12737124490015	632.781338573595	-61.0791469234341	15.3012155583548	0.505225845586251	2.89378384997042	0.00338033601125979	-0.0017254507168368
0.17	22.6436106485774	-8.03710566067856	632.787405812884	-61.1724319089715	15.3055277423531	0.502129444619928	2.88577545995434	0.00339249680931239	-0.00158118457199148
0.18	22.5815744480155	-7.94459918783897	632.791214671606	-61.2600549007909	15.297036093889	0.498458848959407	2.876868317315	0.00338467025149289	-0.00144567111926604
0.19	22.5211608383658	-7.85410788032941	632.794275508654	-61.341888642543	15.2776621506214	0.494826879250222	2.86785142734448	0.0033597554770648	-0.0013192817385508
0.2	22.462874944252	-7.76943196465303	632.797673657472	-61.4178680315951	15.249421839323	0.491759252890863	2.85941697380716	0.00332081915206513	-0.00120222544633292
0.21	22.4071800842474	-7.69378014927202	632.802045128616	-61.4879860638933	15.2143669679922	0.489672203030139	2.85213159296619	0.00327101047700461	-0.00109455478948249
0.22	22.35448299187	-7.62967128093724	632.80758390891	-61.5522860936782	15.1745304281963	0.488856989428168	2.84641590905752	0.00321347931792113	-0.00099618198704042
0.23	22.3051223638642	-7.57887567164011	632.814077964514	-61.6108509710657	15.1318764025686	0.48947188218007	2.84253302290724	0.0031512992730313	-0.000906903843561999
0.24	22.2593611474457	-7.54239627308278	632.820969523423	-61.6637898908836	15.0882565236101	0.491541763414009	2.84058610803255	0.0030873972446387	-0.000826433332729845
0.25	22.2173827463814	-7.52048789710413	632.827434120848	-61.7112239853658	15.0453725994285	0.494965061728951	2.84052475399785	0.00302449083800539	-0.000754435308618809
0.26	22.1792910857405	-7.5127109480013	632.832472253895	-61.7532718079791	15.0047462279452	0.499527333820011	2.84215923227675	0.00296503465401726	-0.000690563567283031
0.27	22.1451142407482	-7.5180147023568	632.835007288572	-61.7900358788609	14.9676953756663	0.504920459727086	2.84518146778893	0.00291117628200387	-0.000634496460331951
0.28	22.1148111215471	-7.53484407997338	632.833983441944	-61.8215913940569	14.9353178062021	0.51076614128177	2.84919119658456	0.00286472253779822	-0.000585968445631802
0.29	22.0882805280052	-7.56126311406769	632.828458156215	-61.8479780478342	14.9084811069445	0.516642201955837	2.8537255880479	0.00282711623734205	-0.000544795323744518
0.3	22.0653717606099	-7.5950879527194	632.817683912108	-61.8691956929904	14.8878189737445	0.522110089387068	2.85829051384317	0.00279942355571312	-0.000510891415006681
0.31	22.0458959055296	-7.63402219633942	632.801175419812	-61.885204286699	14.8737333627712	0.526741982360878	2.86239165520982	0.00278233180154969	-0.000484277535130348
0.32	22.0296369103327	-7.67578767622533	632.778759108814	-61.895928261129	14.8664020929306	0.530145998750314	2.86556374918172	0.0027761572401436	-0.000465079276481442
0.33	22.0163616327843	-7.71824437648896	632.750602858615	-61.9012651428032	14.8657914672529	0.531988180654775	2.86739647182807	0.00278086242326559	-0.000453515748036357
0.34	22.0058281744691	-7.75949405731722	632.717224930739	-61.9010979462559	14.8716734643655	0.532010183168301	2.86755572726809	0.00279608232432262	-0.000449879524980906
0.35	21.9977919946396	-7.7979632065101	632.679482053049	-61.8953106077523	14.8836470209766	0.530041895018969	2.86579943610268	0.00282115842542895	-0.000454509073430184
0.36	21.9920095244446	-7.83246217764157	632.638537554869	-61.8838055215638	14.9011628765008	0.526008551105108	2.86198727482807	0.00285517974989225	-0.000467755322328164
0.37	21.9882392511805	-7.86221871131716	632.595811345876	-61.8665221072102	14.9235513796628	0.519932235964588	2.85608418656537	0.00289702967344797	-0.00048994434039687
0.38	21.9862404980598	-7.88688542143473	632.552914362778	-61.8434552777204	14.9500525672522	0.511928001411056	2.84815784130615	0.00294543717924023	-0.000521338238870253
0.39	21.9857703678571	-7.90652219929281	632.511570859108	-61.8146726963195	14.9798477250588	0.502195111333088	2.83837055087678	0.00299903105056484	-0.000562096466997231
0.4	21.9865795293359	-7.92155578238886	632.473532559772	-61.7803297958298	15.0120915420448	0.491004166193513	2.8269664229635	0.00305639533434195	-0.000612239608916834
0.41	21.9884076852315	-7.93271989083003	632.44048920765	-61.7406816799253	15.0459438850392	0.478681038116735	2.81425475666488	0.00311612427585	-0.000671617642277522
0.42	21.9909796535079	-7.94098029541152	632.413980351628	-61.6960912127985	15.0806001672662	0.465588658899603	2.80059083039313	0.00317687484389712	-0.00073988439605388
0.43	21.9940030067932	-7.94744989727223	632.395313318691	-61.6470328163134	15.1153192731394	0.452107747267147	2.78635530737878	0.00323741495823256	-0.000816479661419706
0.44	21.9971681404978	-7.95329932895361	632.385492137592	-61.5940917138555	15.1494480441063	0.438617542227217	2.77193348489979	0.00329666561704706	-0.000900620077587233
0.45	22.0001514767496	-7.95966870271877	632.385161712739	-61.5379585722341	15.1824414314493	0.425477534097994	2.75769554517658	0.00335373531408405	-0.000991299545208213
0.46	22.0026222652003	-7.96758592183943	632.394570781135	-61.4794196849495	15.2138775817245	0.413011063838491	2.74397883680219	0.00340794543413869	-0.00108729952387024
0.47	22.004253127246	-7.97789644005209	632.413556146566	-61.4193430041212	15.2434673328669	0.401491506214883	2.73107303672431	0.00345884571260971	-0.00118720915871957
0.48	22.0047341291423	-7.99120852908481	632.441549427178	-61.3586604612514	15.2710578521644	0.39113157492656	2.71920882745179	0.00350621931746004	-0.00128945476709171
0.49	22.0037897898807	-8.00785703967994	632.477606155094	-61.2983471199496	15.2966304248863	0.382076099448028	2.7085504869337	0.00355007762854552	-0.00139233781365412
0.5	22.0011980634663	-8.02788738227023	632.520455629907	-61.2393977812253	15.3202926848453	0.374398434310873	2.69919254448579	0.0035906453112122	-0.00149408012750848
0.51	21.9968100154943	-8.05106008945697	632.568568562154	-61.1828017203066	15.3422658449097	0.368100480756671	2.69116041977371	0.00362833676752891	-0.00159287478257007
0.52	21.9905686719986	-8.07687494454705	632.620238357768	-61.1295162797564	15.3628677167894	0.363116135493027	2.68441474641599	0.00366372546129124	-0.00168694078776616
0.53	21.9825253811618	-8.10461236392054	632.67367098685	-61.0804400822103	15.3824924886027	0.359317837444253	2.67885889833798	0.00369750792083192	-0.00177457952826747
0.54	21.9728520152596	-8.13338859826216	632.727077824425	-61.0363866600549	15.4015883437758	0.356525765084141	2.67434909394694	0.00373046440598988	-0.00185423077212284
0.55	21.9618474616656	-8.16222045041211	632.778765691422	-60.9980593282095	15.4206340495392	0.354519146801924	2.67070635572451	0.00376341827401915	-0.00192452601404591
0.56	21.9499371079833	-8.19009465965329	632.827218571782	-60.9660281458202	15.4401156177582	0.353049085937698	2.66772955290532	0.0037971959981054	-0.00198433697234554
0.57	21.9376644065896	-8.21603691376657	632.871166113039	-60.9407098162446	15.4605040512388	0.351852270422258	2.66520875140065	0.00383258959723627	-0.00203281718608826
0.58	21.9256740868588	-8.23917563347828	632.90963497916	-60.9223513535757	15.4822350464009	0.350664932964229	2.66293813424615	0.00387032295201423	-0.00206943487525002
0.59	21.9146871388097	-8.25879621189529	632.94198033778	-60.9110182893092	15.5056913435042	0.349236449052467	2.66072783174439	0.00391102313772928	-0.00209399552244055
0.6	21.9054682827734	-8.27438223864377	632.967896134494	-60.9065880972956	15.531188215732	0.347342003542134	2.65841410586291	0.0039551975356774	-0.00210665300397231
0.61	21.8987872247038	-8.28564132430895	632.987404232414	-60.9087493745283	15.558962385788	0.344793818631421	2.65586746025625	0.00400321711690356	-0.00210790853090258
0.62	21.8953755336423	-8.29251437604116	633.000823874554	-60.9170071295015	15.589164468951	0.341450512740383	2.6529983871468	0.00405530595549993	-0.00209859714398805
0.63	21.8958814262803	-8.29516845909619	633.008724167332	-60.9306943034257	15.6218548772634	0.337224247319498	2.64976060699526	0.00411153674113	-0.00207986202310942
0.64	21.9008250679524	-8.29397460813599	633.011863308254	-60.948989391798	15.6570029888816	0.332085413327837	2.64615179863527	0.00417183183483452	-0.00205311740059425
0.65	21.9105571714269	-8.28947302900378	633.011119031591	-60.9709397579375	15.6944892930087	0.326064707810542	2.6422119492555	0.00423596925284736	-0.00202000138462612
0.66	21.9252236753894	-8.28232897353331	633.007415186391	-60.9954899522067	15.7341101629649	0.319252550909717	2.63801956909934	0.00430359286730179	-0.00198232047712815
0.67	21.9447391049432	-8.27328311528667	633.001649477146	-61.0215140882982	15.775584882561	0.311795892399277	2.63368610990728	0.00437422607155812	-0.00194198798326607
0.68	21.9687708594867	-8.2631004678515	632.994627195683	-61.0478510986974	15.81856454587	0.303892552317651	2.62934899507081	0.00444728815846605	-0.00190095883165135
0.69	21.9967361531023	-8.25252176331639	632.987005277984	-61.0733415113935	15.8626424582264	0.295783330370385	2.62516371070113	0.00452211268719525	-0.00186116353348334
0.7	22.0278126742106	-8.24222076953738	632.979250271446	-61.0968642726985	15.9073656774975	0.287742201169331	2.62129541936138	0.00459796715358006	-0.00182444408844178
0.71	22.0609632697564	-8.23277031990143	632.971612847009	-61.1173720967643	15.9522473417868	0.280064984408005	2.61791054271293	0.00467407331790802	-0.00179249458488231
0.72	22.0949741379023	-8.2246189291207	632.964120394671	-61.1339238569931	15.9967794281079	0.273056937767548	2.6151687181267	0.00474962757462979	-0.00176680903908601
0.73	22.1285051813844	-8.21807885876771	632.956588062779	-61.145712649281	16.0404455752851	0.267019762625813	2.61321547143169	0.00482382076783961	-0.00174863867843614
0.74	22.1601503836591	-8.21332546962053	632.94864740556	-61.152088348226	16.0827335863249	0.26223853571842	2.61217586900264	0.00489585686751114	-0.00173896041023675
0.75	22.1885053737956	-8.21040674619398	632.939790654566	-61.1525737364483	16.1231472071175	0.258969081785083	2.61214932420333	0.00496496993237758	-0.00173845765334753
0.76	22.2122387919454	-8.20926108463898	632.92942759098	-61.1468736006592	16.1612167682434	0.257426282211859	2.61320564351764	0.00503043880756676	-0.00174751407310594
0.77	22.2301636960702	-8.20974086451069	632.916951126652	-61.134876538663	16.1965082844355	0.257773773634107	2.61538231441929	0.00509159905148932	-0.00176622008638665
0.78	22.2413050928845	-8.21163902133575	632.901807055604	-61.116649588536	16.228630640546	0.260115430943895	2.61868296744733	0.00514785166854976	-0.00179439133255471
0.79	22.244959749166	-8.21471581775996	632.883563059113	-61.0924261523962	16.2572405597763	0.264488955133995	2.62307689490382	0.00519866834956456	-0.00183159767879566
0.8	22.2407447464096	-8.21872326589031	632.861971968666	-61.0625880197861	16.2820451515454	0.270861802842591	2.62849948167465	0.00524359309176711	-0.00187720078529754
0.81	22.2286317693998	-8.22342514528998	632.837024529527	-61.0276425784555	16.3028019699173	0.279129606568032	2.63485340072509	0.00528224027898298	-0.00193039783360169
0.82	22.2089648395497	-8.22861123030907	632.808987462636	-60.9881965151632	16.319316671128	0.289117147131731	2.64201044468714	0.00531428953643213	-0.00199026874979771
0.83	22.1824600750605	-8.23410511099091	632.778423473669	-60.944927442637	16.331438528092	0.300581856909233	2.64981390071701	0.0053394779136586	-0.00205582415300321
0.84	22.1501870294322	-8.23976577921748	632.746190964117	-60.8985549336714	16.339054225228	0.313219756062493	2.65808142136657	0.00535759016908584	-0.00212605133657123
0.85	22.1135321678434	-8.24548387206351	632.713422498962	-60.8498123987636	16.3420805014652	0.326673655422135	2.66660839123606	0.00536844810529894	-0.00219995583912155
0.86	22.0741460248901	-8.25117404280147	632.681482500118	-60.7994211156418	16.3404563165068	0.340543398377598	2.67517182911253	0.00537190001232174	-0.00227659656574904
0.87	22.0338764864907	-8.25676530885825	632.651906072008	-60.7480675194531	16.33413527165	0.354397858776638	2.68353489046318	0.00536781129943723	-0.00235511294540479
0.88	21.9946913990791	-8.26219137013221	632.626322225695	-60.6963846078874	16.323079012565	0.367788360639504	2.69145203960207	0.00535605732520153	-0.00243474321773893
0.89	21.9585942862481	-8.26738279111132	632.606365950838	-60.6449380258234	16.3072522739691	0.38026313685703	2.69867494103901	0.00533651927059063	-0.00251483358500947
0.9	21.9275373155311	-8.27226261306542	632.593584497768	-60.594217090109	16.2866200979251	0.391382397109218	2.70495907471182	0.00530908365193409	-0.00259483859364411
0.91	21.9033357895187	-8.27674644896721	632.589343798184	-60.5446307172746	16.2611475773955	0.400733530380296	2.71007101222689	0.00527364575751098	-0.00267431367984888
0.92	21.8875883347292	-8.2807474736056	632.594741117961	-60.4965079437441	16.2308022587163	0.407945926579972	2.71379620603819	0.00523011694029437	-0.0027529012847986
0.93	21.8816066417512	-8.28418602699516	632.610529773543	-60.4501024947148	16.1955590986732	0.412704868500019	2.71594704847806	0.00517843533929958	-0.0028303122874104
0.94	21.8863580967085	-8.28700287780329	632.637061060946	-60.4056006755875	16.1554076338547	0.414763924749877	2.71637086264489	0.00511857926443566	-0.00290630469811344
0.95	21.9024239722678	-8.28917461890551	632.67424748359	-60.3631317355122	16.1103608023108	0.413955272613491	2.71495740364524	0.0050505821940691	-0.00298066159964658
0.96	21.9299750577035	-8.29072925224394	632.721549993591	-60.3227797886888	16.0604646792822	0.41019740350374	2.71164538821392	0.00497454812588467	-0.00305317021748402
0.97	21.9687657465284	-8.2917598107645	632.777990379034	-60.2845963737762	16.0058082659786	0.403499718840831	2.70642754405055	0.00489066590910234	-0.00312360377088691
0.98	22.018146711658	-8.29243388597565	632.84218825416	-60.2486127798146	15.9465324149114	0.393963615104971	2.69935368589109	0.00479922118115143	-0.00319170742260702
0.99	22.0770954247085	-8.29299718212182	632.912420466619	-60.2148513603394	15.8828369936853	0.381779785218098	2.69053138851583	0.00470060463760245	-0.00325718924369646
1	22.1442629568957	-8.29376968092702	632.986699250523	-60.1833351858811	15.8149854820647	0.367221627493442	2.68012393826249	0.0045953155749473	-0.00331971667526222
1.01	22.2180347684705	-8.29513363302112	633.06286423846	-60.1540955378063	15.7433063590731	0.350634847310967	2.66834539975351	0.00448395994776754	-0.00337891853652149
1.02	22.2966025807155	-8.29751333632545	633.138682590672	-60.127176912349	15.6681908564926	0.332423550450173	2.65545282386166	0.00436724255349342	-0.00343439223012916
1.03	22.3780439524351	-8.30134745031787	633.211951066614	-60.1026393721452	15.5900869159734	0.313033346940644	2.64173583216875	0.00424595337183105	-0.00348571545795127
1.04	22.4604058687005	-8.30705535658498	633.280593880752	-60.0805582442743	15.5094894687563	0.292932193903529	2.62750402453915	0.00412094851049515	-0.00353246150257505
1.05	22.5417885041053	-8.31499974103219	633.342750641904	-60.061021311	15.4269274373515	0.272589887317442	2.61307285032759	0.0039931266111002	-0.00357421696310542
1.06	22.6204253502662	-8.32544808043045	633.396849530336	-60.0441237663306	15.3429481147782	0.252457248490278	2.59874874077368	0.00386340191719349	-0.003610600761008
1.07	22.6947560955571	-8.33853601782651	633.44166204446	-60.0299613144878	15.2580997883474	0.23294612606177	2.5848144032854	0.0037326754727974	-0.00364128324772169
1.08	22.7634890054102	-8.35423567706998	633.476337050354	-60.0186218636947	15.172913624277	0.214411337489639	2.57151521493111	0.0036018060833034	-0.00366600433831017
1.09	22.8256500587339	-8.37233178508795	633.500413377145	-60.0101763204612	15.0878859045658	0.197135599661551	2.55904761582552	0.00347158271825944	-0.0036845897470167
1.1	22.8806167284788	-8.39240805043606	633.513811698056	-60.0046690171984	15.003461702474	0.181318347568937	2.54755029333819	0.00334269996390413	-0.00369696459038779
1.11	22.9281350244028	-8.41384561611563	633.516807803288	-60.0021083118827	14.9200209979955	0.167069120777838	2.53709877228173	0.00321573794791805	-0.00370316382977293
1.12	22.968319210488	-8.43583460853361	633.509990503661	-60.0024578853453	14.8378680764279	0.154405924023656	2.52770379788976	0.00309114787401825	-0.00370333922688827
1.13	23.0016344308071	-8.45739890093882	633.49420822291	-60.0056292322914	14.7572248336094	0.1432586601177	2.51931363588918	0.00296924394102357	-0.00369776266645871
1.14	23.0288632858672	-8.47743326565305	633.470508791149	-60.0114757987188	14.6782283470845	0.133477413369017	2.51182013885112	0.00285020200634156	-0.00368682584632948
1.15	23.0510581560368	-8.49475117560888	633.44007702514	-60.0197891628209	14.600932782925	0.124845054054339	2.50506816283077	0.00273406491698664	-0.00367103644131457
1.16	23.0694817309839	-8.50814070113177	633.404174389132	-60.0302975900034	14.5253154143169	0.117093362316662	2.49886768454507	0.00262075400264075	-0.00365101091198275
1.17	23.0855387399581	-8.51642529464514	633.364084420644	-60.0426672160855	14.4512862515113	0.109921653426233	2.49300778546885	0.00251008583421064	-0.0036274641587573
1.18	23.1007022598918	-8.51852581442635	633.321066751111	-60.056506026625	14.3787005431679	0.103016741074868	2.48727154924565	0.00240179302421523	-0.00360119622485724
1.19	23.1164381879917	-8.51351994359348	633.276321541268	-60.0713707050494	14.3073732236319	0.0960730108883157	2.4814508711722	0.00229554760413771	-0.00357307624146713
