Time [s]	GRFml [N]	GRFap [N]	GRFv [N]	Mml [N.m]	Map [N.m]	Mv [N.m]	Mfree [N.m]	COPml [m]	COPap [m]
0.01	10.0079964580427	11.8853498552263	712.372577377512	-58.4815653586348	-5.61707167161758	-1.84372268805364	-0.927865811906348	0.0103577565869903	0.0151747748628422
0.02	10.1640885813891	13.2263712124398	713.357691552595	-59.310314903334	-5.8306196431169	-1.97478416838203	-1.02183135044835	0.0100788710230739	0.0161636418968025
0.03	10.3094726171693	14.567741165872	714.629569671153	-60.1669539787221	-6.04557595030245	-2.10450432422072	-1.11417669683533	0.00980033315247295	0.0171649209160938
0.04	10.4380147439816	15.8925506277427	716.2962912192	-61.050956688956	-6.26172946642281	-2.23069451850638	-1.20358242055908	0.00952418968548525	0.0181652714911973
0.05	10.5441588934397	17.1826862990823	718.448589218735	-61.9592295953489	-6.47881145405048	-2.3511188301576	-1.28872493256027	0.00925255845385893	0.0191494578966313
0.06	10.6232504795341	18.4190377192684	721.151866200276	-62.8854927517493	-6.69642664901491	-2.46355084408827	-1.36829592832314	0.008987534615257	0.0201004738902047
0.07	10.671820189476	19.5818335414704	724.439592514443	-63.8198691525322	-6.9140054458686	-2.56583848566266	-1.44102409420039	0.00873106698959237	0.0209998195134743
0.08	10.6878103373984	20.6511134710021	728.308584967458	-64.7487321025419	-7.13078289942622	-2.65597522412371	-1.50569965940084	0.00848482049873749	0.0218279321439893
0.09	10.6707295866097	21.6073268428298	732.716534410675	-65.6548388935086	-7.34580712746158	-2.73217479820824	-1.56120231621904	0.00825004368876293	0.0225647571715152
0.1	10.6217260538105	22.4320336742673	737.581998980867	-66.5177561869153	-7.55797651426883	-2.7929456265639	-1.60653285439348	0.00802745930380303	0.0231904286807118
0.11	10.5435736580788	23.1086707676319	742.786916075474	-67.3145596074497	-7.76610218671082	-2.8371603833283	-1.64084844094157	0.00781719123061015	0.0236860192428988
0.12	10.4405717592085	23.6233352929394	748.181521623032	-68.0207689841522	-7.96898980952727	-2.86411592894727	-1.66350076579506	0.00761873421287696	0.0240343113109202
0.13	10.3183633075208	23.9655321280395	753.591409988474	-68.6114629014816	-8.16553299749653	-2.87357892646415	-1.67407531425783	0.00743096544217556	0.0242205408446585
0.14	10.1836815609477	24.1288295643628	758.826331179079	-69.0625028716165	-8.35480966582743	-2.86581303928134	-1.67242897558291	0.00725219127196958	0.0242330660700089
0.15	10.0440395983352	24.1113709068657	763.690211765288	-69.3517892750964	-8.53617246183205	-2.84158455423944	-1.65872227670405	0.00708021905712954	0.0240639197583325
0.16	9.90738010156823	23.9161967472753	767.991808261691	-69.4604686144964	-8.70932499995777	-2.80214452825973	-1.63344197229409	0.00691244381283989	0.0237092111570289
0.17	9.78170499275113	23.551343684606	771.555360790883	-69.3740145746247	-8.87437686284902	-2.74918701853996	-1.59740970600697	0.00674594153925763	0.0231693529267722
0.18	9.67470537878006	23.029699151578	774.230612651669	-69.0831135087637	-9.03187209494135	-2.68478451162528	-1.55177307080506	0.00657756469456041	0.0224490985762942
0.19	9.59341184660914	22.3686077286529	775.901597632466	-68.584297577793	-9.18278803542972	-2.61130319669298	-1.49797662084673	0.00640403929121791	0.0215573864960977
0.2	9.54388352959382	21.5892407230786	776.493669005073	-67.8802848979172	-9.32850363372133	-2.53130211809736	-1.43771210768532	0.00622206644086254	0.0205069973727299
0.21	9.53095167011514	20.7157566655872	775.978347468286	-66.9800045511182	-9.47073868227656	-2.44742138877134	-1.37284923787092	0.0060284331644615	0.019314042062275
0.22	9.55802984383837	19.774294598292	774.37569343884	-65.8983039163639	-9.6114675215004	-2.36226546576953	-1.30535033946192	0.00582013750844719	0.0179973063947666
0.23	9.62699884154277	18.7918535983905	771.754054141987	-64.6553551973528	-9.7528125750097	-2.27828792291907	-1.2371742286617	0.00559453132691193	0.0165774873162499
0.24	9.73816970766197	17.7951201130865	768.227189128076	-63.2757960177839	-9.8969244487714	-2.19768417221827	-1.17017604755051	0.00534948059234874	0.0150763607327963
0.25	9.89032389929642	16.809308835899	763.948929929481	-61.7876544231864	-10.0458561989202	-2.1222981839756	-1.10601070480699	0.00508353808253373	0.0135159249912728
0.26	10.0808252319618	15.8570827811992	759.105671536497	-60.2211206615928	-10.2014397046389	-2.05354846354561	-1.04604766259875	0.00479611730584603	0.011917564876835
0.27	10.30579446658	14.9576139518257	753.907116893997	-58.6072360533358	-10.3651718774816	-1.99237741428085	-0.991304123296419	0.0044876504254395	0.0103012792942201
0.28	10.5603342725377	14.1258378614092	748.575793603988	-56.9765727221823	-10.5381177360314	-1.93922682849775	-0.942402216999791	0.00415970791670126	0.00868501160267471
0.29	10.8387900295285	13.3719437320188	743.335928994796	-55.3579768579534	-10.7208362444164	-1.89404069361425	-0.89955370431441	0.00381505520208839	0.00708411524093859
0.3	11.1350306052616	12.7011282013401	738.402302147828	-53.7774427139889	-10.9133333479422	-1.85629488129099	-0.862573204467619	0.00345762303604198	0.0055109792737459
0.31	11.442732906816	12.1136247458653	733.969687921637	-52.2571751742275	-11.1150449470422	-1.82505170761506	-0.830918324310996	0.00309237503200914	0.00397482932557902
0.32	11.7556546318086	11.6050047404648	730.203469182697	-50.8148861421502	-11.3248507466428	-1.79903591127417	-0.803752627723841	0.00272506754771669	0.0024817095352411
0.33	12.0678811677838	11.1667301285735	727.231922090737	-49.4633550693501	-11.5411181151778	-1.77672738195616	-0.78002546883279	0.00236191287441601	0.00103464111037675
0.34	12.374034880992	10.786923024698	725.140579976684	-48.2102676319691	-11.7617733907471	-1.75646505372703	-0.75856156804155	0.00200917350758551	-0.000366056812882987
0.35	12.6694379340615	10.4513050674469	723.968960201105	-47.0583299070875	-11.9843965723405	-1.73655580800865	-0.738152957397508	0.00167272939262289	-0.00172230758617342
0.36	12.9502230793081	10.1442496991662	723.709802636834	-46.0056394142544	-12.2063341051548	-1.71538203504902	-0.71764651217542	0.00135766766357422	-0.00303771055323974
0.37	13.2133903735517	9.84988430224148	724.310826026752	-45.0462800124965	-12.4248235648095	-1.69150168473658	-0.696021507964984	0.00106794308734551	-0.00431690607949493
0.38	13.4568112266934	9.55317660526679	725.678867606257	-44.1710956960285	-12.6371234995948	-1.66373517761811	-0.672453184511292	0.000806147072885541	-0.00556491496759573
0.39	13.6791844110462	9.2409411029155	727.68613999841	-43.3685894565993	-12.8406415171151	-1.63123440468813	-0.646359839293413	0.000573406087824479	-0.00678649680927507
0.4	13.8799514217585	8.90270631267466	730.178224764694	-42.6258880166495	-13.0330538978113	-1.59353016220621	-0.617432280859415	0.000369410762436507	-0.00798557044346706
0.41	14.0591807227387	8.5313922115363	732.983330337329	-41.9297116008371	-13.2124105621212	-1.55055567450872	-0.585645448669406	0.000192559319678258	-0.00916473521229117
0.42	14.2174318124554	8.1237586566132	735.922278190638	-41.2672899896959	-13.3772200747194	-1.50264527394874	-0.551252692342282	4.01866715277407e-05	-0.0103249244445434
0.43	14.3556106270358	7.68059933099519	738.818648216275	-40.6271716518648	-13.5265104893396	-1.45050874937271	-0.514763722224796	-9.11549021021078e-05	-0.0114652131617149
0.44	14.4748275491047	7.20667097583157	741.508513756042	-39.9998813428368	-13.6598631607457	-1.39518326055299	-0.476907731458852	-0.000205396543870206	-0.0125827911934136
0.45	14.5762682543607	6.71036349007044	743.849228194166	-39.3783925817284	-13.7774181068462	-1.3379659688397	-0.438583737317143	-0.000306662443713794	-0.0136731015700874
0.46	14.6610859055437	6.20313197959716	745.726786221599	-38.7583941383209	-13.8798510175123	-1.28033158656664	-0.400800811799346	-0.000399007668092099	-0.0147301330520557
0.47	14.7303209465501	5.69872610912454	747.06137003789	-38.1383432653181	-13.9683234977419	-1.22383984492796	-0.364611512779207	-0.000486195420803231	-0.015746845666367
0.48	14.7848521472391	5.21226430968988	747.810798644933	-37.5193120505233	-14.0444095222546	-1.17003838310495	-0.33104238710116	-0.000571518196771231	-0.0167156997266627
0.49	14.8253798134871	4.75920979453583	747.971720727144	-36.9046461170571	-14.1100022920288	-1.12036674849135	-0.30102578485779	-0.000657662671297	-0.0176292524257948
0.5	14.8524394231088	4.35431137028361	747.578521404779	-36.2994662129548	-14.1672066556049	-1.07606706488715	-0.275337307650472	-0.000746615802569704	-0.018480781988724
0.51	14.8664415778355	4.01057433012402	746.700043070794	-35.7100523625596	-14.2182229376089	-1.0381064859172	-0.254542959761258	-0.00083960915396868	-0.0192648976851008
0.52	14.8677322445847	3.7383251349371	745.434343340439	-35.143156705446	-14.2652283694348	-1.00711583427138	-0.238959473833441	-0.000937099232814976	-0.0199780947248597
0.53	14.8566659205335	3.54442821310668	743.90182209684	-34.6052945996231	-14.3102623274812	-0.983347877322456	-0.228630382160223	-0.00103878294812161	-0.0206192160744693
0.54	14.8336836668837	3.43170435453269	742.23713878291	-34.1020638750262	-14.3551212585795	-0.9666575612848	-0.223319280646283	-0.00114364837056274	-0.0211897883155497
0.55	14.7993879297522	3.39858836156337	740.58040569466	-33.6375393396199	-14.4012685362938	-0.956505282583485	-0.222520493467056	-0.00125006119741171	-0.0216942055292156
0.56	14.7546066635736	3.4390495475189	739.068179690017	-33.2137839931166	-14.4497635899333	-0.951982984611891	-0.225486117105292	-0.00135588625518662	-0.0221397434938096
0.57	14.7004404071703	3.54278317265516	737.824781617257	-32.8305102847139	-14.5012135396469	-0.951861600070554	-0.231267328548373	-0.0014586408969979	-0.0225363958740239
0.58	14.6382875154961	3.69566488972352	736.954449709826	-32.4849146904869	-14.5557493257236	-0.954657181095836	-0.238766993031167	-0.0015556735456845	-0.0228965341814309
0.59	14.5698445807085	3.88044467520612	736.534781655084	-32.171697515961	-14.6130270136033	-0.958712033622871	-0.2468000750275	-0.0016443565722024	-0.0232344036911701
0.6	14.4970810375358	4.07764245755826	736.611843045014	-31.8832678483212	-14.6722536637406	-0.962286352783755	-0.254158163273182	-0.00172227914593237	-0.023565477732753
0.61	14.4221888981651	4.26659554864827	737.197221867158	-31.6101217138212	-14.7322359480863	-0.963655285486779	-0.259674528289253	-0.00178742367220609	-0.0239057022699107
0.62	14.3475103744229	4.4265987387996	738.267195150186	-31.3413704456302	-14.7914486338051	-0.961206054225538	-0.262286450234546	-0.00183830971937061	-0.0242706707944214
0.63	14.275447714737	4.53807206153993	739.764051240669	-31.0653866854885	-14.8481191881087	-0.95352977722933	-0.261091971593351	-0.00187409219303294	-0.0246747755970255
0.64	14.2083608299192	4.58368910674034	741.599486350338	-30.7705278864262	-14.9003241184227	-0.939502912993401	-0.255398639533548	-0.00189460555679837	-0.0251303848225678
0.65	14.1484591501333	4.54940048123529	743.659873988798	-30.4458920875994	-14.9460922657464	-0.918353824768338	-0.244762147898217	-0.00190035219017008	-0.0256470949229761
0.66	14.0976946141499	4.42529248536084	745.813097431001	-30.082058383729	-14.9835101161917	-0.889710770418713	-0.229013072766561	-0.00189243929858299	-0.0262311050229305
0.67	14.0576627309719	4.2062299805348	747.916544569378	-29.6717650369512	-15.0108242723012	-0.853628629608451	-0.208270179213137	-0.00187247400610198	-0.0268847534604382
0.68	14.0295182812749	3.89224426188469	749.825796500503	-29.2104815370705	-15.0265365065339	-0.810592827387017	-0.18293914990137	-0.00184242959996819	-0.0276062478052514
0.69	14.0139114660895	3.4886408522541	751.40349986838	-28.6968369025362	-15.029487271278	-0.761500137567743	-0.153696128007689	-0.00180449710552329	-0.0283896086587079
0.7	14.010949201534	3.00581770610849	752.527900727665	-28.1328747733418	-15.0189241261172	-0.707617284001336	-0.12145621268835	-0.00176093567684477	-0.0292248352845657
0.71	14.0201848538181	2.45880048076348	753.100535282115	-27.5241158933323	-14.9945522269204	-0.650519436633978	-0.087327966941821	-0.00171393323371615	-0.0300982884220878
0.72	14.0406380744058	1.86651739431447	753.052619413049	-26.8794198269184	-14.9565647686552	-0.592011760038087	-0.0525560066350311	-0.00166548600632316	-0.0309932732569568
0.73	14.0708446105336	1.25085086070125	752.349751929343	-26.2106495509149	-14.9056520557516	-0.534038060475119	-0.0184547061620976	-0.00161730274228756	-0.0318907941570838
0.74	14.1089341228391	0.635515756926847	750.994641935325	-25.5321542239085	-14.8429886675435	-0.478581249446797	0.0136631597434273	-0.00157073669013883	-0.0327704430040588
0.75	14.1527322412138	0.0448241330038597	749.027683328519	-24.8600962907955	-14.7701989750125	-0.427560765513272	0.0425585374174231	-0.0015267463024775	-0.0336113752464761
0.76	14.199881440088	-0.497597129646427	746.525322903629	-24.2116585043008	-14.689302036849	-0.382732254019783	0.0671345753785134	-0.00148588393188221	-0.0343933225390477
0.77	14.2479739241177	-0.970066141389073	743.596295889873	-23.6041738964187	-14.6026376489197	-0.345594692566352	0.0864973530500527	-0.0014483105376494	-0.0350975882670515
0.78	14.2946886879263	-1.35401447611358	740.375926746451	-23.054226781283	-14.5127760335458	-0.317309778684205	0.100005386011504	-0.00141383344209547	-0.0357079725233306
0.79	14.3379243387879	-1.63499995818587	737.018806575719	-22.5767752229707	-14.4224143240142	-0.298637788047953	0.107305331857935	-0.00138196333324558	-0.0362115762107711
0.8	14.3759192166053	-1.80350745044263	733.69025500881	-22.1843449141303	-14.3342636122736	-0.289893300355469	0.108352343057532	-0.00135198591374098	-0.0365994397613551
0.81	14.4073508490967	-1.85549243394192	730.55704821035	-21.8863410988991	-14.2509308655321	-0.29092321805496	0.103414528619812	-0.00132304282702222	-0.0368669802369486
0.82	14.4314078431645	-1.79263576181019	727.777941320604	-21.6885192073613	-14.1748004563811	-0.301108418713108	0.0930618790534756	-0.00129421582337469	-0.0370142009239643
0.83	14.44782889683	-1.62229331740663	725.494530301541	-21.5926465659449	-14.107920361643	-0.319389236673069	0.0781407025945826	-0.00126460771123299	-0.0370456594532711
0.84	14.4569056389088	-1.35714058961021	723.822983572842	-21.5963773542834	-14.0518982341013	-0.344313816234119	0.059735091105165	-0.00123341366572224	-0.036970193363355
0.85	14.4594483455836	-1.01452852741653	722.847128596044	-21.693351443869	-14.0078125043212	-0.374107267938474	0.0391172114314391	-0.00119997710809305	-0.0368004151909896
0.86	14.4567160909346	-0.615582584254931	722.613305043816	-21.8735155015805	-13.9761433953808	-0.406758539393037	0.0176883749150424	-0.0011638257031163	-0.0365520018813241
0.87	14.4503153858916	-0.184090786795541	723.127298383927	-22.1236524374385	-13.9567282071726	-0.440121025318354	-0.00308703374390428	-0.00112468497068984	-0.0362428148155784
0.88	14.4420736602466	0.254761772132858	724.353551056964	-22.4280935924357	-13.9487444364042	-0.472022225305712	-0.0217525047921265	-0.00108246933120883	-0.0358918963688831
0.89	14.4338958632513	0.675746023825524	726.216719506054	-22.7695776414557	-13.9507232467596	-0.500377242648637	-0.0369326850997163	-0.00103725274195328	-0.0355183960539388
0.9	14.4276138383665	1.05495844283995	728.605511453409	-23.1302116074495	-13.960594513054	-0.523300627196547	-0.0474060824799462	-0.000989223054146064	-0.0351404835590768
0.91	14.4248388410767	1.37113439605375	731.378606672321	-23.4924831316001	-13.9757631763141	-0.539211015762599	-0.0521738966552834	-0.000938625539580962	-0.0347743071210998
0.92	14.426827538232	1.6068350938666	734.37234362342	-23.8402695854641	-13.9932150266053	-0.546923223885699	-0.0505213858395602	-0.000885701585217901	-0.0344330536438635
0.93	14.4343710340437	1.74944400968702	737.409750712069	-24.1597889697619	-14.0096483583507	-0.545722893284036	-0.0420680926180092	-0.000830628403767231	-0.0341261619159767
0.94	14.4477149549217	1.79191816912175	740.310420629037	-24.4404398911685	-14.0216263143107	-0.535419491962569	-0.0268034745660059	-0.000773464964324108	-0.0338587324742855
0.95	14.4665164968941	1.73325222803936	742.900674007289	-24.6754831536096	-14.0257432532553	-0.516374380843826	-0.00510506168436901	-0.000714108464385743	-0.0336311675027444
0.96	14.4898417526588	1.57862814088077	745.023437636708	-24.8625253967881	-14.018797248228	-0.489501773639945	0.0222628218451269	-0.00065226475942004	-0.0334390621475175
0.97	14.5162037876741	1.33923971570807	746.547274138378	-25.00377536718	-13.9979599465916	-0.456241685878904	0.0541705589001534	-0.000587435359955004	-0.0332733553523252
0.98	14.5436390458881	1.03179860840713	747.374043876271	-25.1060552921047	-13.960934585352	-0.41850534348215	0.0891644431535336	-0.000518922909750294	-0.033120734426922
0.99	14.569816958191	0.677745412293169	747.444753711549	-25.1805628196169	-13.9060930199848	-0.378594939195301	0.125525775148617	-0.000445856389985393	-0.0329642737603701
1	14.5921753054753	0.302205523188893	746.743247004641	-25.2423923895972	-13.832583229226	-0.339101015603139	0.161344915241977	-0.000367236514809428	-0.0327842751075429
1.01	14.6080721230269	-0.0672564892213523	745.297509563782	-25.3098379850729	-13.7403999072282	-0.302782039548617	0.194606512024137	-0.000282000739234439	-0.0325592654320191
1.02	14.6149438442878	-0.402019002222374	743.178500342442	-25.4035112546647	-13.630412418762	-0.272431835958173	0.223281622475744	-0.000189105863989982	-0.0322670990589558
1.03	14.6104590326242	-0.673849132206816	740.496556079069	-25.5453193212553	-13.5043465083544	-0.250741394336428	0.245422285027187	-8.76243353813283e-05	-0.0318861044798804
1.04	14.592657442422	-0.856335501428516	737.39555780032	-25.7573546080974	-13.364718622599	-0.240162082882164	0.259254244519926	2.31519425790659e-05	-0.0313962130521924
1.05	14.5600652322848	-0.926231628502212	734.045176234458	-26.0607542511427	-13.2147243989212	-0.242777452869261	0.26326386078339	0.000143608926534724	-0.0307800074028733
1.06	14.5117788227216	-0.864638200486088	730.631625218918	-26.4745888032258	-13.0580856425877	-0.260190559741702	0.256275642904339	0.000273719760828111	-0.0300236317502006
1.07	14.4475120131911	-0.65796115125345	727.347440523915	-27.0148388186815	-12.8988627891668	-0.293433062103349	0.237517233901804	0.00041297841993608	-0.0291175145383212
1.08	14.3676033929103	-0.298594750916784	724.380860796488	-27.6935135633186	-12.7412422574194	-0.34290130744611	0.206668964015844	0.000560369915952746	-0.0280568653853417
1.09	14.2729836341771	0.214705860514572	721.905413775835	-28.5179587338826	-12.5893100666065	-0.408323223667966	0.163895303037088	0.000714387174689222	-0.0268419226822569
1.1	14.1651047895322	0.876780935774879	720.0703025792	-29.4903900763185	-12.4468244662805	-0.488758183524754	0.109855759237011	0.000873100164148318	-0.0254779441990572
1.11	14.0458360831873	1.67635098562958	718.992143717658	-30.6076777015155	-12.3170009764501	-0.582630192024268	0.0456931431254413	0.00103427624313607	-0.0239749494137181
1.12	13.9173327717287	2.59661158476989	718.748532606171	-31.8613923764386	-12.202323070617	-0.687792876595124	-0.0270021943801566	0.00119554295146157	-0.0223472375020243
1.13	13.7818863510549	3.6161020486863	719.373807682433	-33.2381108750981	-12.104390711331	-0.801622956265251	-0.106252406107093	0.00135457713364497	-0.0206127176393784
1.14	13.6417656303993	4.70979661573755	720.857256642074	-34.7199634150695	-12.0238170821438	-0.921137247260707	-0.189775143565357	0.00150929912404068	-0.0187920974645465
1.15	13.4990589252395	5.85035452479805	723.143865049619	-36.2853930925694	-11.9601812271069	-1.04312693607308	-0.275086261771629	0.00165804911650471	-0.0169079807870133
1.16	13.3555278019995	7.00945695721437	726.137557144967	-37.9100858298587	-11.9120410469065	-1.1643019058255	-0.359617029521674	0.00179972531940182	-0.0149839270130655
1.17	13.212482417871	8.15915475777138	729.706730145635	-39.5680203396067	-11.8770074037323	-1.2814374002428	-0.44083896023629	0.00193386947669065	-0.0130435228847231
