Time [s]	GRFml [N]	GRFap [N]	GRFv [N]	Mml [N.m]	Map [N.m]	Mv [N.m]	Mfree [N.m]	COPml [m]	COPap [m]
0.01	-3.63774383359833	0.997488311253251	790.143706463941	8.35270162177359	-8.11841623932778	1.28210388713082	-1.31032610188381	8.17508578180304e-05	0.00392621370484031
0.02	-3.62050549658142	0.888657550154349	790.330588271297	8.53666806912419	-8.25104371196858	1.28521087021261	-1.31510783248229	0.000313575759845586	0.00376411918077735
0.03	-3.57245751910277	0.787733660407778	790.456484577491	8.70466422473398	-8.39409466134615	1.28780166859346	-1.31885747392607	0.000525879605381085	0.00358809009193872
0.04	-3.46991628813795	0.70322745223858	790.466123371132	8.84257328426256	-8.55563916571158	1.28960463969805	-1.32087161744565	0.000701429964426015	0.00338720718034746
0.05	-3.30263481007762	0.641924430610199	790.30907024662	8.94071131791571	-8.73864226174257	1.2908418550638	-1.3211384072674	0.000828595888690331	0.00315699770566075
0.06	-3.07633494659718	0.607187636666566	789.944910945661	8.99547969638677	-8.94005757917547	1.2922624756311	-1.32042693584473	0.000903386584621191	0.00290064967367176
0.07	-2.81125966788358	0.597436462308217	789.351044820695	9.00998828455741	-9.151318053207	1.29496567974042	-1.32011228147455	0.000930134640976465	0.00262852805686059
0.08	-2.53716287810991	0.605596772678696	788.530749590412	8.99334029027743	-9.35997490178777	1.30006339235935	-1.3217813237259	0.000920461804102102	0.0023562666151985
0.09	-2.28611706553292	0.620111929147058	787.5185220031	8.95859794151749	-9.55201815602826	1.30828470321169	-1.32673122370606	0.000890594925021304	0.00210196663652346
0.1	-2.08511196972372	0.627525635965926	786.380259475986	8.9198258963188	-9.71433550858493	1.3196400673886	-1.33550372035689	0.000857575741252115	0.00188313598207052
0.11	-1.95044103359441	0.615971384647832	785.20727472156	8.8888970206053	-9.83681618334681	1.33324369252739	-1.34758773424788	0.000835256933423012	0.00171396278863306
0.12	-1.88529954356088	0.578462661443199	784.104848280966	8.87284454906489	-9.91374667186997	1.34734770430087	-1.36137653082372	0.000831080085094804	0.00160337387239179
0.13	-1.88101770048964	0.514892853103433	783.177460457199	8.87242075271019	-9.9443269838008	1.35958749604215	-1.37439901284258	0.000844451363412824	0.00155412857304088
0.14	-1.92124011178848	0.432121891066937	782.513627103598	8.88221044286662	-9.93231420581846	1.36738883580806	-1.38377620368659	0.000867118401079114	0.00156299320634129
0.15	-1.98750259114091	0.342233555973558	782.173265849066	8.89224109656353	-9.88494499997366	1.36845363832038	-1.38680049433225	0.000885428687299017	0.00162186281137444
0.16	-2.0643328227369	0.259678435620884	782.179845457798	8.89065104459186	-9.81138919242863	1.36122676326492	-1.3815080638069	0.000883870364690176	0.00171955987154548
0.17	-2.14231899945842	0.198310080545162	782.518485644542	8.8667318126278	-9.72104362666288	1.34525042746886	-1.36711832098377	0.000848997470619284	0.00184394723512948
0.18	-2.21842989754822	0.169181238581506	783.139999110791	8.81361052645294	-9.62199068891174	1.32133341906681	-1.34424578446818	0.000772796441622425	0.00198394849702849
0.19	-2.29391902922662	0.179496701552668	783.96987022147	8.72997702563089	-9.51991480037438	1.29149587715782	-1.31484135439066	0.000654746811805884	0.00213108551202512
0.2	-2.37101142249902	0.23256171558878	784.920482873209	8.62052505024199	-9.4176843182652	1.25869201290293	-1.2818790320524	0.000502182461945333	0.00228023457190074
0.21	-2.44993250799431	0.328185004620295	785.904542023055	8.49508115103421	-9.31566525156686	1.22635562875263	-1.24885664311757	0.000328957930624929	0.00242947267833993
0.22	-2.52757394361786	0.462959523533525	786.847509827493	8.36666566402275	-9.21265765753496	1.19784819858114	-1.21921299780281	0.000152772911556132	0.00257910708889436
0.23	-2.59832754856634	0.630145701224929	787.696970249373	8.24892660091763	-9.1071807158225	1.17590959266302	-1.19577342503614	-8.24489794792882e-06	0.00273019685788395
0.24	-2.65667232800066	0.8193465285312	788.427217569106	8.15349669159223	-8.99873500203942	1.16221390568986	-1.18032276592264	-0.00013896960826898	0.00288301181256306
0.25	-2.70034392094088	1.01653158708961	789.038151829274	8.08784165893819	-8.88868306594818	1.1571173713297	-1.17337682391444	-0.000229985247672593	0.00303587723663118
0.26	-2.73263378692608	1.20501800481241	789.548770488871	8.05408469693971	-8.78051651690226	1.159653896631	-1.1741874102842	-0.000278965692289135	0.003184713322129
0.27	-2.76265187150988	1.36768100482008	789.98693830214	8.04909918708588	-8.67947817959596	1.16778909595665	-1.18097712860156	-0.00029038732777309	0.0033233444864289
0.28	-2.80312772461948	1.49007152806296	790.378222515692	8.06587140070008	-8.591709316257	1.17889059230045	-1.19136013826973	-0.000273619144640302	0.00344440977692201
0.29	-2.86625296664988	1.56353904308169	790.736885278315	8.09580028627804	-8.52322207513902	1.19031948252896	-1.20286729142669	-0.000239861291635335	0.00354053817201133
0.3	-2.9588574323598	1.58719726147061	791.061383463846	8.13131519706558	-8.4790147277706	1.20000839580339	-1.21346486951456	-0.000198752214710329	0.00360541380936957
0.31	-3.07858468383757	1.56781258116165	791.335165368323	8.16805901686393	-8.462556717255	1.20688042276472	-1.22194587651998	-0.000155608694333398	0.0036344459835369
0.32	-3.21254384721677	1.5174002362431	791.531817436329	8.20597515147872	-8.47571695859332	1.21099133253483	-1.22809152213918	-0.000110121770855454	0.00362493061220204
0.33	-3.33919520591808	1.44921552301852	791.622432573772	8.24895185369861	-8.51905440173404	1.21334547998088	-1.23255195957088	-5.69157551753019e-05	0.00357577433295292
0.34	-3.43318410696664	1.37354069948222	791.582865922668	8.30313077242606	-8.59228799804955	1.21542969706762	-1.23647182266027	1.21989587255067e-05	0.00348698497932487
0.35	-3.47180351347223	1.29485738238288	791.399220515769	8.3744303104156	-8.69474110249503	1.21860206472313	-1.24096727286366	0.000105000326397486	0.00335917384443529
0.36	-3.44110084427521	1.21153380845839	791.070955242785	8.46610917924707	-8.82560892254453	1.22353083918697	-1.24661898332413	0.000225710756838637	0.00319326163947342
0.37	-3.33961879550485	1.11819679946743	790.611835548912	8.57719301341884	-8.98399668842188	1.22987647674798	-1.25315415513777	0.000372975490984251	0.00299046117423624
0.38	-3.17844122392799	1.00987325243678	790.049210146113	8.70229642416067	-9.16877649667813	1.23633911513233	-1.25943921079278	0.000539633648174664	0.00275247892755032
0.39	-2.97741931715814	0.886219463512132	789.421854943465	8.8328923774027	-9.3783703801678	1.24107325628453	-1.2638046747394	0.000714347991572883	0.00248179218980266
0.4	-2.75878013977062	0.754036730218082	788.776248454535	8.95958338146681	-9.61056384298285	1.24234121518972	-1.26460771209358	0.000884534249359414	0.00218185488986011
0.41	-2.54028532416819	0.626870103078232	788.161053482146	9.07459582067209	-9.86239694490388	1.23918541068956	-1.26084840402867	0.00103960806008285	0.00185715943196513
0.42	-2.33032751579754	0.521584281810956	787.619991282881	9.17366691265324	-10.1301075168085	1.23188332263502	-1.25262818185461	0.00117349308716364	0.00151318710152032
0.43	-2.12670318216088	0.452984743206841	787.18409046229	9.25673140142359	-10.4090625893793	1.22201706835432	-1.24128562580462	0.00128562066444748	0.00115634867870601
0.44	-1.91948984320466	0.42835181082978	786.865093538607	9.3272431851746	-10.6936420785656	1.21211906808593	-1.22915053395855	0.0013801805481769	0.000793999632377307
0.45	-1.69695549997168	0.443879523051522	786.652161496599	9.39042491315225	-10.9771263926293	1.20499961027309	-1.21898392118483	0.00146395752575446	0.000434510096769591
0.46	-1.45229612082531	0.484420503842225	786.513626020002	9.45106909252485	-11.2517381109004	1.20296915045797	-1.21327399727462	0.00154351528733576	8.72354319620405e-05
0.47	-1.18865909457808	0.5268546773247	786.404370745704	9.51161907511242	-11.5090285697597	1.20720017154304	-1.21360070749039	0.00162264241352406	-0.000237843479038324
0.48	-0.920494338116727	0.546208535532537	786.277749260348	9.57112340335186	-11.7407321940519	1.21742120148179	-1.22025174291631	0.00170083275973743	-0.000530988561569135
0.49	-0.67056797086386	0.522752923868747	786.099277530299	9.62534541552374	-11.9400355015916	1.23202107898435	-1.23218556837761	0.0017732050008713	-0.000784068477903133
0.5	-0.463512287536134	0.447979706887894	785.858273149037	9.66793259806643	-12.1029863592123	1.24850849078689	-1.24732659082942	0.00183180405396088	-0.000992142636847992
0.51	-0.318030120891286	0.327679317333274	785.573645374557	9.6922281382838	-12.2296032569827	1.2641680907228	-1.26308435190873	0.0018678162821274	-0.00115477602332603
0.52	-0.240395438277692	0.181184610532718	785.291346610976	9.69313641576088	-12.3242268485852	1.27671367968712	-1.27694237074058	0.00187399021409318	-0.00127654651511272
0.53	-0.221521486177535	0.0369388182282579	785.073315789207	9.66847871917843	-12.3948241529162	1.28476797013336	-1.28697130226701	0.00184654607976742	-0.00136637572169057
0.54	-0.238731275900862	-0.074436365681205	784.980402699232	9.61947585964214	-12.451268380669	1.28807705454803	-1.29217100223919	0.00178606819925331	-0.00143566304289161
0.55	-0.261843940833193	-0.127730259288576	785.053876981743	9.55029600955206	-12.5029678509902	1.28745917967404	-1.29260892879031	0.00169722447574872	-0.00149561136014748
0.56	-0.26178968364229	-0.109396909263283	785.300920297156	9.46690490963871	-12.5564765526841	1.28455611196663	-1.28937122738879	0.00158752700733289	-0.00155445033634244
0.57	-0.219144815076134	-0.0208625396587991	785.688612486545	9.37565264861177	-12.6137854449621	1.28148184781886	-1.28436471806548	0.00146561616888596	-0.00161536635195703
0.58	-0.129995270964965	0.121926357552258	786.148571712644	9.2820651571255	-12.6718326516989	1.28045054549753	-1.28000740188412	0.00133963422118144	-0.00167578707805421
0.59	-0.00736654858460676	0.292535713058767	786.591339425369	9.19017529643807	-12.7234250561483	1.28343294586731	-1.27883808364049	0.00121613499213491	-0.0017282840687648
0.6	0.122190347350917	0.460557622961818	786.926809979687	9.10248306162863	-12.7593389647261	1.29186177849852	-1.28307807198443	0.00109970698918871	-0.00176286524496116
0.61	0.225836136982468	0.598896599577977	787.085357661761	9.02037384318778	-12.7709980774002	1.30639667055315	-1.29419515105185	0.000993178432060926	-0.00176998749487633
0.62	0.273409732131158	0.689978035881316	787.034236320185	8.94465289622303	-12.7529348411751	1.32676798115854	-1.3125441491348	0.000898052450130415	-0.00174337640543576
0.63	0.245609875377918	0.729377934536174	786.785211875227	8.87584492491259	-12.7042962405107	1.35173428552286	-1.33717286266362	0.000814783898560933	-0.0016817867019685
0.64	0.139187977559191	0.726099328828902	786.391725822571	8.81406521718375	-12.6289490966523	1.37919315044621	-1.36587102065877	0.000742671991537103	-0.00158917158142213
0.65	-0.0321497697435903	0.699607718936567	785.936505579552	8.75852352233982	-12.5341840300793	1.40646774379416	-1.39549719576885	0.000679427710018166	-0.00147324909517937
0.66	-0.241228661826103	0.674534580893062	785.512805819844	8.70695523687288	-12.4284661518215	1.43075228142156	-1.42255155020358	0.00062073983517541	-0.00134298386695814
0.67	-0.454216043535637	0.674458170637828	785.203900699161	8.65537161463842	-12.3189806847533	1.44964847221882	-1.44388992821989	0.000560268267103092	-0.00120585517202237
0.68	-0.638875634284687	0.716272952777619	785.065751029657	8.59842630602049	-12.2097665643608	1.46168109598277	-1.45742049223335	0.000490370557165609	-0.00106582847391617
0.69	-0.772102267229141	0.806387045308558	785.116867225682	8.53044327087034	-12.1010032236957	1.4666618224203	-1.46260762400148	0.000403560492937105	-0.00092266844470984
0.7	-0.844863635590114	0.939465424050335	785.337475067207	8.44685048177297	-11.9895977156493	1.46578803352947	-1.46063879282623	0.000294342725701946	-0.000772731381360636
0.71	-0.863432778585961	1.09983137284623	785.677646127561	8.34554881769149	-11.870765434404	1.46141856527458	-1.4541847971649	0.000160829211691693	-0.000610843200664346
0.72	-0.84680420828936	1.26509473563931	786.071753427749	8.22771246772892	-11.739976259459	1.45654946094676	-1.44678536636408	5.53527549984612e-06	-0.000432507440282837
0.73	-0.821177980541375	1.4111788882093	786.455132789	8.09768322971938	-11.5945650371935	1.45409814567406	-1.44199397862607	-0.000165012367065676	-0.000235629067839416
0.74	-0.813110214326741	1.51769678183283	786.778608849554	7.9619210447651	-11.434498222002	1.45616719712163	-1.44248805713489	-0.000341836394747497	-2.11952826045803e-05
0.75	-0.843181745494707	1.57257902799487	787.017594406857	7.82729205656522	-11.2621596509561	1.46347641787202	-1.44936938896996	-0.000515827639190114	0.000207190339260144
0.76	-0.921772113844642	1.57498323336531	787.174353285527	7.69919867904368	-11.0814120483602	1.47511484442883	-1.46183561267497	-0.000680155346499123	0.000444560000199767
0.77	-1.04783496960874	1.53581672773584	787.274013161225	7.58011206924219	-10.8964472222132	1.48868193958742	-1.47730803870059	-0.000832063582416831	0.000685975690923046
0.78	-1.21066875669816	1.47566791000995	787.356340026765	7.46894755648698	-10.7109584751853	1.5007850944903	-1.49198256408402	-0.000973526141042846	0.00092742648479871
0.79	-1.39383688720024	1.42050025113526	787.465781346425	7.36147546355658	-10.5279556964669	1.50777060029539	-1.50166474189709	-0.00111055921212933	0.00116587423398407
0.8	-1.57985982793001	1.3959989929227	787.641937833142	7.25166278076652	-10.3501982326864	1.50651311487227	-1.50268661373555	-0.00125136548141225	0.0013985255365162
0.81	-1.75421983104491	1.42182954466979	787.911844935699	7.13357969372944	-10.1809002299796	1.49508520097019	-1.4926952741215	-0.00140380279067687	0.00162179760861808
0.82	-1.90758906873209	1.50714881221925	788.284698336617	7.00334766855169	-10.0242135219571	1.47316835994952	-1.47114679849626	-0.00157285460680012	0.0018306175345606
0.83	-2.03588147131047	1.64845751853915	788.749216303103	6.86059286396055	-9.88508454771426	1.4421335616059	-1.43941637150196	-0.00175878273177832	0.00201856640807618
0.84	-2.1385123420185	1.83033824511149	789.27369226644	6.70900420143298	-9.76837595244574	1.40479266548672	-1.40052335597152	-0.00195646192333554	0.00217900234235235
0.85	-2.21587102742878	2.02892126332063	789.808763159139	6.55584411293048	-9.67750868332749	1.36488580886455	-1.35854819733671	-0.00215607581592892	0.00230683338400078
0.86	-2.26725597223522	2.21724010062991	790.29279726128	6.41055167307767	-9.61314923663253	1.32641396073438	-1.31787273217007	-0.00234498134956718	0.00240027077064514
0.87	-2.29028991797557	2.37116404544976	790.659505330856	6.28282519831756	-9.57251282070961	1.29294689555879	-1.2824003458405	-0.00251023489709234	0.00246183218661794
0.88	-2.28219264874092	2.47445725133363	790.846973466616	6.1806982382761	-9.54964999570721	1.26703513590003	-1.25490695570024	-0.00264111445205817	0.00249811749592899
0.89	-2.24246680984388	2.52175553109144	790.806970009147	6.10909268283406	-9.53671703350813	1.24983173474172	-1.23664118839289	-0.00273101535936482	0.00251834014099384
0.9	-2.17586516454764	2.51881021415312	790.513233386632	6.06916309591581	-9.52585522598558	1.24098887149955	-1.22723842324887	-0.00277831899570391	0.00253207019906015
0.91	-2.09423973552097	2.48007363557584	789.967532832855	6.05850070802596	-9.51107622283661	1.23884020698498	-1.22494775825089	-0.00278615164553631	0.00254693502086245
0.92	-2.01615738694262	2.42439495400341	789.202526238634	6.07202669953147	-9.48955403473289	1.24082175246124	-1.2271059018806	-0.00276125606328093	0.00256702206851522
0.93	-1.96392067059981	2.37006496250926	788.280716532769	6.10324444988953	-9.46194499715177	1.24403420802534	-1.2307418763866	-0.00271239778042132	0.00259245322439289
0.94	-1.95858600701403	2.33056083911175	787.289118455847	6.14547784879795	-9.43169762109717	1.24582146312126	-1.23317401257663	-0.00264877483704662	0.00262017347272031
0.95	-2.01436862267694	2.31206576170162	786.329695719002	6.19279500459509	-9.40364390626752	1.2442421516434	-1.23247261979165	-0.002578801439023	0.00264558683266342
0.96	-2.1341642827695	2.31326261858801	785.506333234207	6.24046667402752	-9.38237082544612	1.23834414849058	-1.22770480408631	-0.00250944575137713	0.00266442142072171
0.97	-2.30766653972304	2.32721047740823	784.910038617112	6.28498091407383	-9.37089834652839	1.22820606243201	-1.21893913114408	-0.00244609289097419	0.00267418459338642
0.98	-2.51279230226976	2.34452773213769	784.604945992367	6.32377424954602	-9.37004596599108	1.21476848908962	-1.20704829287723	-0.0023927441500089	0.00267476419998103
0.99	-2.72010841613538	2.35680543027569	784.618084122034	6.3549046551198	-9.37861369577741	1.19952380059965	-1.19339008499502	-0.00235229663233416	0.00266805992014191
1	-2.89902880931544	2.35923086354147	784.935395498917	6.37686726013283	-9.39422537379187	1.18415532441733	-1.17946133159659	-0.00232668522655477	0.00265687103420342
1.01	-3.02404199207207	2.3517609379795	785.505092742051	6.38865312910663	-9.41447253280677	1.17021289534925	-1.16660698921102	-0.00231678926450185	0.00264350945856218
1.02	-3.07929790432076	2.33869526243168	786.247484702712	6.39001460483805	-9.43792038416166	1.15888783387175	-1.15583661662331	-0.00232215992955498	0.00262867450387338
1.03	-3.06048484483042	2.3269764197768	787.068596502751	6.38178331999905	-9.46461274653655	1.15091589066279	-1.14776422375604	-0.00234074806737927	0.00261100559806299
1.04	-2.97382503431714	2.32384602085343	787.873981463305	6.36604076701177	-9.49590761807863	1.14660073039248	-1.14265444603933	-0.00236885033104228	0.00258747280170862
1.05	-2.83288437498331	2.33455461993325	788.579502297521	6.34598951851895	-9.53371782018461	1.14592040004049	-1.1405336111537	-0.00240142366834872	0.00255446822657218
1.06	-2.65444099267928	2.36069857594812	789.117415837844	6.3254953105912	-9.57943708518382	1.14866081985174	-1.14131180968155	-0.00243277272306897	0.00250922790722624
1.07	-2.4547420668821	2.39952898960841	789.438153538019	6.30840849026402	-9.63293433232123	1.15451848396906	-1.14486403732721	-0.00245746031931426	0.00245111598752035
1.08	-2.24712879213943	2.44433669888189	789.509801097883	6.29786157401675	-9.69197066405955	1.16313180394503	-1.15103634114888	-0.00247120177275439	0.00238236029259264
1.09	-2.04139462174345	2.48580995225227	789.317678997296	6.29573945295593	-9.75225218818899	1.17403427117001	-1.15957466514678	-0.00247151753439823	0.00230800726390895
1.1	-1.84459499248348	2.51408899883584	788.865441204315	6.30243994020467	-9.80812787401858	1.18656272619716	-1.17001136919096	-0.00245801755209696	0.00223509973599773
1.11	-1.66256203186767	2.52109312236928	788.177303429715	6.3169333675764	-9.85374016601266	1.19978398037928	-1.18157252624658	-0.00243231553544365	0.00217130218430234
1.12	-1.50123032926572	2.50258667373692	787.299422817673	6.33704635251942	-9.88429620324031	1.21250630803326	-1.19317249828112	-0.00239766053980084	0.00212334842528561
1.13	-1.36707440154887	2.45943616095672	786.298038227322	6.35986721506483	-9.89708746163891	1.22341208306408	-1.20353368642245	-0.00235839874075472	0.00209573408489899
1.14	-1.26640896163656	2.39765244583002	785.253081247682	6.38219142536524	-9.89195484321415	1.23129378700166	-1.21141700208193	-0.00231935539536543	0.00209001318213514
1.15	-1.20384015653451	2.3271233855157	784.248081865159	6.40096181698394	-9.87105558379517	1.23532199234975	-1.21589519107128	-0.00228519588855114	0.0021048987084229
1.16	-1.1805777506389	2.25934699807884	783.359222172831	6.41367749990122	-9.83799648338647	1.23524801076406	-1.21657325491362	-0.00225981808626041	0.00213714278161903
1.17	-1.19345560449649	2.20482272609624	782.647216364771	6.41873700371419	-9.79659979519499	1.23146095013863	-1.21367367522847	-0.00224584854676979	0.0021829320297696
1.18	-1.23528641611038	2.17089061116588	782.154762686231	6.41566087753975	-9.74970397447049	1.2248728817755	-1.20795438257912	-0.00224433586123873	0.00223934419088057
