Time [s]	GRFml [N]	GRFap [N]	GRFv [N]	Mml [N.m]	Map [N.m]	Mv [N.m]	Mfree [N.m]	COPml [m]	COPap [m]
0.01	-2.7727715456093	1.65735377467136	682.297012116041	-2.96820828832335	41.8162959100035	0.350234606830727	-0.439739129910245	-0.00201558472359076	0.00060477454366209
0.02	-2.86863201535163	1.47871450403321	682.367506025019	-2.9416145502688	41.7618027734706	0.337472919533502	-0.415652954626598	-0.00197587278646116	0.000515954702449417
0.03	-2.95100657443751	1.30858434225912	682.453691768097	-2.91078655409604	41.7049713629786	0.325886216486545	-0.393337488664876	-0.00192980903237083	0.000422439726323998
0.04	-3.00965029522533	1.15502841196233	682.564421542711	-2.8729526992285	41.6450017032233	0.316270176384844	-0.374138309055338	-0.00187322958646408	0.000322380589207694
0.05	-3.03839646815408	1.02516046885227	682.692950951342	-2.82796404516168	41.581939861503	0.308796884048364	-0.358690470075547	-0.00180591320859647	0.000216512862511176
0.06	-3.03573590760699	0.924173928973492	682.816464176453	-2.77845656456044	41.5163258595155	0.303021902994326	-0.346862881341683	-0.00173182764000768	0.000107673415230214
0.07	-3.00432426117572	0.854320983154814	682.901809976587	-2.72910863179945	41.4486190738381	0.298116679654253	-0.33793337230721	-0.00165801344273597	-5.50499246687597e-07
0.08	-2.94966507810472	0.814286246203928	682.915251146878	-2.68530310659408	41.3787322804064	0.29321624418542	-0.330909394440081	-0.00159256907196115	-0.000105360896575202
0.09	-2.87845703686204	0.799359104328592	682.832830705425	-2.65165196622412	41.3059464621088	0.287739882108893	-0.324872641922483	-0.001542426430168	-0.000205780033236846
0.1	-2.79713683158621	0.802551604691298	682.648061667264	-2.63081378424846	41.2292731988743	0.281572991020776	-0.319240510391557	-0.00151156672797237	-0.000302785420678908
0.11	-2.71098907889947	0.816434405142177	682.374801302526	-2.62288092008197	41.1480996783043	0.275068012914312	-0.313885481734594	-0.00150009662490469	-0.000398603057970126
0.12	-2.62392028045728	0.835128624614735	682.044819044936	-2.62541264098985	41.0628095746024	0.268895519959909	-0.309108467207549	-0.00150430189200301	-0.000495566570868244
0.13	-2.53873468454775	0.855750132123413	681.701103279846	-2.63401429454035	40.9750805752108	0.263823328159401	-0.305502392734945	-0.00151752853680676	-0.000595075174753212
0.14	-2.45760961878762	0.878737924617513	681.388933398333	-2.64325593981468	40.8877008489947	0.260508936484822	-0.303759167606978	-0.00153157801259196	-0.000697063316155599
0.15	-2.38248085941934	0.906879781696591	681.147005209865	-2.64769806373062	40.803950396881	0.259364627984984	-0.304470479976019	-0.00153826235210464	-0.000800119580907976
0.16	-2.31517463740557	0.943338851945005	681.000542363534	-2.6428293149427	40.7267696231193	0.260513839343504	-0.307961062778114	-0.00153082082597444	-0.000902101529949906
0.17	-2.25727928406381	0.989392559090973	680.957612107717	-2.62578658308787	40.6580187055109	0.263822219304596	-0.314181400570166	-0.00150499960857631	-0.00100090893175858
0.18	-2.20986099436369	1.04275206653051	681.009064143836	-2.59578684044463	40.5980939262509	0.268969401071621	-0.322677953739877	-0.00145968777719618	-0.00109505965257761
0.19	-2.17316488312657	1.09716090569552	681.131814062681	-2.55423601746072	40.5460335563206	0.275528323544179	-0.332649061545427	-0.00139706034103726	-0.00118384475703226
0.2	-2.14642361272412	1.14352548064086	681.2946686088	-2.50449999078156	40.5000699273321	0.283029839895936	-0.34307869092448	-0.0013222114775574	-0.00126705039435404
0.21	-2.12785979163541	1.17226876125711	681.465525642254	-2.45134892938487	40.4584290754618	0.291002006966165	-0.35291826666251	-0.00124230142539106	-0.00134443041591537
0.22	-2.11493613998581	1.17613382347613	681.618547432854	-2.40013673790907	40.420096191431	0.298981370003689	-0.361267024056797	-0.0011653152267953	-0.00141521708087666
0.23	-2.10486961670242	1.15247739759817	681.739816987177	-2.35584818103388	40.385278741104	0.306499226679792	-0.367495972545892	-0.00109863527612175	-0.001477932038778
0.24	-2.09536072491179	1.10426155545321	681.830119942362	-2.32220873713397	40.3554015881827	0.313052998667558	-0.371277998525655	-0.00104772033204426	-0.0015306236032272
0.25	-2.08539490276356	1.03941104727532	681.903942261875	-2.30106788015109	40.3326235767522	0.318082326416883	-0.372523997111589	-0.00101520461777216	-0.00157146982887935
0.26	-2.0758826024647	0.968775677222321	681.98456353833	-2.29221112015229	40.3190214891871	0.320976912055963	-0.371266996422337	-0.00100064601289518	-0.00159952746942493
0.27	-2.0698731887336	0.903400789828188	682.096147300337	-2.29363773168377	40.3156956137178	0.321140941878638	-0.367562101424124	-0.00100097393036602	-0.00161533737514014
0.28	-2.07214760070936	0.851994032045547	682.254723992484	-2.30220068804496	40.3220786801407	0.318122021416429	-0.361464239326638	-0.00101147631785481	-0.00162114245494638
0.29	-2.08816575292817	0.819331395832531	682.460584798114	-2.31439927396301	40.335669702473	0.311783530266737	-0.353107537286365	-0.00102700565348346	-0.00162061512900075
0.3	-2.12256659384034	0.805952110469585	682.694551380272	-2.32708755070467	40.3522867842075	0.302469434017806	-0.3428559979439	-0.00104304281018208	-0.0016181709730706
0.31	-2.17760963920642	0.809022482435961	682.919736590407	-2.33792281599115	40.3667803809517	0.291095013152072	-0.331450675201133	-0.00105635047074948	-0.00161809218135672
0.32	-2.25202744089825	0.823886974387131	683.088919946581	-2.34549640131596	40.3740213350768	0.279106456776989	-0.320065896932602	-0.00106512867299868	-0.0016237389763421
0.33	-2.34068578249961	0.845689366685094	683.155952629067	-2.34920899751685	40.3699162318615	0.268286847712735	-0.310213618672616	-0.00106877055890553	-0.00163706814097719
0.34	-2.43523394159826	0.87055135252898	683.088242146551	-2.3490234983605	40.3522196443451	0.260434490556829	-0.303490337890971	-0.00106742890748346	-0.00165853519093601
0.35	-2.52563483493939	0.896059231955835	682.876840205236	-2.34522978898984	40.3209908844433	0.256984589538019	-0.301222868433534	-0.00106161048213771	-0.00168729910155463
0.36	-2.60218964481467	0.921104392618478	682.541193033403	-2.33830407728554	40.2786438384219	0.258671127918336	-0.304113826605198	-0.00105193730315167	-0.00172155053528722
0.37	-2.65750906642305	0.945336186413247	682.127065229912	-2.32887698254484	40.229623842706	0.265323333376733	-0.311998586805485	-0.00103910584531497	-0.00175878869708784
0.38	-2.68789503799	0.968558003345271	681.698047424173	-2.31777258791672	40.1797942134588	0.275859918004413	-0.323798551857422	-0.00102398772925649	-0.00179596737035631
0.39	-2.69378420272775	0.990335449170821	681.32279363192	-2.30605865107598	40.1356295406329	0.288492104461905	-0.337699023494893	-0.00100777251589468	-0.00182955983172894
0.4	-2.67920334622622	1.00994283011294	681.06118256357	-2.29505164308027	40.1033125573065	0.301087493679177	-0.351511429189609	-0.000992051661219961	-0.00185568142181974
0.41	-2.65048965953796	1.02661823860413	680.95270093998	-2.28623860359972	40.087836997613	0.311598907124932	-0.363121429854684	-0.000978768836892296	-0.00187040571359726
0.42	-2.61472551384895	1.03998208670898	681.009574728715	-2.28110417248803	40.0922369904539	0.318442179204766	-0.370896789694589	-0.000970005343726155	-0.00187031304392898
0.43	-2.57836276950204	1.05042552089298	681.215850328961	-2.280882806235	40.1170804679872	0.320723975256117	-0.373943068036838	-0.000967623892920488	-0.00185316827403476
0.44	-2.54636975552728	1.05929483534945	681.532178147095	-2.28628807877809	40.1603533126818	0.318272118720133	-0.37214822767607	-0.000972849191951397	-0.00181851466697242
0.45	-2.52199461945491	1.06876979908018	681.904844764525	-2.29729247196527	40.2178014370654	0.31149009851313	-0.366031414450269	-0.000985901502162934	-0.00176795565317522
0.46	-2.50700431853707	1.08143265870932	682.276855614177	-2.31303077645805	40.2836917367031	0.301118823833238	-0.356479085378407	-0.00100580182487264	-0.00170499108940647
0.47	-2.50211968481786	1.09962193961371	682.598651712913	-2.33187499153148	40.3518306873041	0.288016979522408	-0.344486098213169	-0.00103043025411953	-0.0016344383717653
0.48	-2.50736592246942	1.12473450137944	682.836311488629	-2.35168759655224	40.4165896696175	0.273052271834018	-0.331004420785657	-0.00105685671514466	-0.00156162561350459
0.49	-2.5221761454301	1.15666249696396	682.975746759232	-2.37021897733368	40.4736720629459	0.257134254633702	-0.316941590546103	-0.00108189981222118	-0.00149162168557299
0.5	-2.54525877001251	1.19352451098435	683.022316577958	-2.38558489766729	40.5204342503148	0.241340073423302	-0.303269676336524	-0.00110282205043133	-0.00142873200854826
0.51	-2.57438876511229	1.23178259673347	682.996280176385	-2.39674147842014	40.5557186356196	0.227023764926819	-0.291140520134922	-0.00111803912116437	-0.00137635813207404
0.52	-2.60634624897812	1.2667500548102	682.92539077466	-2.40386143154442	40.5793189047734	0.215789944485835	-0.281888101711228	-0.00112769775978039	-0.00133715459268335
0.53	-2.63717984604555	1.29341108022866	682.83651205568	-2.40850429682579	40.5913147347912	0.209265103320197	-0.276846611908425	-0.00113395838885999	-0.00131329346847725
0.54	-2.66283620193924	1.30740786977054	682.748300751059	-2.41347687150496	40.5915411686932	0.208695911170447	-0.27700555629143	-0.00114082288047312	-0.00130661996593351
0.55	-2.68002606741239	1.306008219423	682.666715267582	-2.42231942730412	40.5793892159657	0.21450141819281	-0.282618501950429	-0.00115340599356406	-0.00131856004078296
0.56	-2.68706165386626	1.28884821951858	682.584439504063	-2.43844282243302	40.5539992942919	0.225957371613906	-0.292932259913865	-0.00117668202567422	-0.0013497831824586
0.57	-2.68435789312111	1.25825777539302	682.484375594165	-2.4640688323706	40.5147610278369	0.241166905356083	-0.306179631306307	-0.00121392753739558	-0.00139976191260249
0.58	-2.67436455683861	1.21903594478197	682.346334817678	-2.49924640266948	40.4619237055388	0.257377508100823	-0.319887242636144	-0.00126526100417468	-0.00146644248688882
0.59	-2.66086508127722	1.17765680398122	682.155166656123	-2.54126949346276	40.3970830544126	0.271577354631422	-0.331429198065576	-0.00132676155401179	-0.00154622145581351
0.6	-2.64778432022523	1.14103828843664	681.908061843884	-2.58476226117631	40.323346826442	0.281198407788761	-0.338660258373757	-0.0013905640352605	-0.00163432465036573
0.61	-2.63782101166806	1.11514908600002	681.618854459179	-2.62252302021021	40.2450777748471	0.284713243408368	-0.340430493512257	-0.00144607330603397	-0.00172555099494281
0.62	-2.63130283224523	1.10380152877674	681.317896000753	-2.64698139445722	40.1672400692394	0.281951636973081	-0.336827519575138	-0.00148209176587577	-0.00181522014441465
0.63	-2.6256244240316	1.10794059977396	681.047322220362	-2.65190999875406	40.0945013072528	0.274061208672628	-0.329089454213516	-0.00148933786986571	-0.00190008486422372
0.64	-2.61548186883611	1.12559697475841	680.852902542736	-2.63392704275855	40.0303325399433	0.263150957483638	-0.319238713523038	-0.00146267418128909	-0.00197895428687289
0.65	-2.5939044052117	1.15248001090265	680.77467394856	-2.59337271999961	39.9763715707501	0.251743650477906	-0.30956297035561	-0.00140242683165959	-0.00205282770672199
0.66	-2.55386805058118	1.18301923798186	680.838836669425	-2.53432320856914	39.932251912135	0.24219731674773	-0.30209382330279	-0.00131444110974044	-0.00212445449552878
0.67	-2.49011691924078	1.21157504935357	681.052829108102	-2.4637538359386	39.8959597065775	0.236237223235168	-0.298209024159588	-0.00120888182106149	-0.00219739301274979
0.68	-2.40075629884271	1.2335417080312	681.404348663754	-2.39009085042371	39.8646055838692	0.234686435850091	-0.298430132894127	-0.00109812445296265	-0.00227479960101967
0.69	-2.28822568295688	1.24613054730359	681.863827570703	-2.32153053176294	39.8353529711076	0.237420246159771	-0.302427721463881	-0.000994291543319425	-0.00235828402134081
0.7	-2.15939118914083	1.24870888186863	682.389009681783	-2.26452711119028	39.8061904646804	0.243516807301946	-0.309198051117368	-0.000907025207886103	-0.00244717264679639
0.71	-2.024683011152	1.24265634566972	682.930098763155	-2.2227708885226	39.776301371346	0.251542458638743	-0.317346294893049	-0.000841970647483037	-0.00253840973405578
0.72	-1.89641175337935	1.23078328581642	683.434429140265	-2.19683459541802	39.7459459197649	0.259896104708354	-0.325402316546886	-0.000800234752960649	-0.00262713032435707
0.73	-1.78659472217955	1.21644171554805	683.850424049914	-2.18450468947256	39.7159656167591	0.267139367570954	-0.332102656569309	-0.000778845948652629	-0.00270772392638946
0.74	-1.70476943237075	1.20254166645788	684.131305614845	-2.18167146306205	39.6871646749509	0.272254120446237	-0.336592292947195	-0.000772031048407729	-0.00277505489919677
0.75	-1.65631840994356	1.19073718474421	684.239232437588	-2.18355034988095	39.6598602830988	0.274792319974522	-0.338526243305616	-0.000772976327897079	-0.00282546975351372
0.76	-1.64173648594644	1.18103087259211	684.15014539802	-2.18595682338303	39.6338075119509	0.274909492704897	-0.338076886721581	-0.000775668260615259	-0.00285731401652251
0.77	-1.65703583040809	1.17194451898954	683.858789036087	-2.18636025778192	39.6085335737992	0.273296318890679	-0.335870496024247	-0.000776415747688386	-0.0028708629368025
0.78	-1.69515994456774	1.16123300416037	683.382567264887	-2.18449406704853	39.5839336550346	0.27103680494403	-0.332881144160973	-0.000774733039087372	-0.00286776932913252
0.79	-1.74797175177126	1.14693291334149	682.762549712362	-2.18239237489406	39.5608646244739	0.269424384185387	-0.330302637712139	-0.00077339806361254	-0.00285027321324671
0.8	-1.80821039732805	1.12840630351315	682.060342092178	-2.18384478228276	39.5414719678374	0.269761559925027	-0.329405868212613	-0.000777675723316662	-0.00282045359403976
0.81	-1.87085130768612	1.10702038966224	681.350604461026	-2.19339145494451	39.5290966549417	0.273160440764518	-0.331379094756822	-0.000793882744006824	-0.00277973049511565
0.82	-1.93354645083114	1.08621243245921	680.710350390551	-2.21509466950481	39.5277798296432	0.280356959809546	-0.337149446951073	-0.000827633330528155	-0.00272868817374483
0.83	-1.99617211069694	1.07089219660534	680.207245249626	-2.25139002260498	39.5415362167608	0.291553957895162	-0.347196958861702	-0.00088220078965795	-0.0026671566186261
0.84	-2.05982652204886	1.06635787942392	679.889509229401	-2.3023144619918	39.5736351697237	0.306316151862059	-0.361392379557438	-0.000957421951410353	-0.00259441968975954
0.85	-2.12577064383523	1.07705974488671	679.779590516786	-2.36531815562798	39.6260875239226	0.323547458072464	-0.378906459516138	-0.00104944222362635	-0.00250943943617304
0.86	-2.19473766001416	1.10557861128987	679.872713356997	-2.43570785916843	39.699416722239	0.341580379891208	-0.398240230841341	-0.00115136984281483	-0.00241107179345812
0.87	-2.26679594650833	1.15208639440873	680.140138985828	-2.5075847673216	39.7926610007214	0.358392142013618	-0.417406284148177	-0.00125464092417227	-0.00229833608607777
0.88	-2.34165892959543	1.21437133057543	680.535924268997	-2.57499263465532	39.9034784672942	0.3719325756415	-0.434252080644011	-0.00135068313493247	-0.00217082375056737
0.89	-2.41913269753346	1.28832103768269	681.005389520542	-2.6329403299308	40.0282433432156	0.380511839826178	-0.446869354909603	-0.00143239025049335	-0.00202926115248253
0.9	-2.49936696025018	1.36863567088839	681.493472601832	-2.67803201652531	40.1621126581432	0.383165504163208	-0.453996117418086	-0.00149501997949775	-0.00187610609852257
0.91	-2.58272532138966	1.44952725561866	681.951543823958	-2.70860202916299	40.29915009189	0.379904448948729	-0.455305889238406	-0.00153636644020472	-0.00171593363947758
0.92	-2.66933088882232	1.52523892993791	682.341891080667	-2.72443994288556	40.4326495771578	0.371775138433014	-0.451500055631535	-0.00155633416628087	-0.00155533741658404
0.93	-2.75854849734441	1.59034371213964	682.639747586566	-2.72632178214497	40.5557643546612	0.360699121542727	-0.444168619554118	-0.00155623165156071	-0.00140218167292538
0.94	-2.84873283849864	1.63989991951277	682.833252057015	-2.71558321232657	40.6624243346676	0.349116512727174	-0.435446807873114	-0.0015381317670663	-0.00126426178259248
0.95	-2.93746845381781	1.66960384675873	682.921999602785	-2.69388407968537	40.7483684342516	0.339509762572483	-0.427550516823856	-0.00150451954893904	-0.00114768204467802
0.96	-3.02229961020235	1.67606839522589	682.91484591992	-2.66317631634673	40.8120030285078	0.333916252308864	-0.4223060203894	-0.00145824592635146	-0.00105542860863017
0.97	-3.10169967484654	1.65727610470217	682.827439177774	-2.6257719740907	40.854784296847	0.333542441740318	-0.420789939143003	-0.00140263593609424	-0.000986618394321848
0.98	-3.1758748490779	1.61313860258126	682.679705150243	-2.58436586285254	40.8809311509712	0.338567567486926	-0.423164657466226	-0.00134153669634218	-0.00093672343238993
0.99	-3.24700927219978	1.5459887402893	682.493342530253	-2.54190517301232	40.8964737604323	0.34817756283766	-0.428740966707421	-0.00127914480185132	-0.000898764532473562
1	-3.31873776505599	1.46078230759083	682.289383917915	-2.50128517549725	40.9078566413064	0.360811947609214	-0.436238378705271	-0.00121957912040171	-0.000865154613008512
1.01	-3.39490753292282	1.3648203626757	682.086027949565	-2.46493872731607	40.9204617129531	0.374553202621718	-0.444161446569978	-0.00116629469411644	-0.000829671325192183
1.02	-3.47795281317848	1.26691815959957	681.897128487709	-2.4344400577486	40.9374401781046	0.387554587288624	-0.451182766314094	-0.00112151137413852	-0.000789021886293151
1.03	-3.56736120047908	1.17610989115101	681.73176877281	-2.41024509003839	40.9591384588072	0.398398535583979	-0.456428600650318	-0.00108583495130643	-0.000743621468288158
1.04	-3.65871194815314	1.10013895541105	681.595131845098	-2.39164913420104	40.9832184250229	0.406304717378182	-0.45959947339419	-0.00105819008652452	-0.000697461928694298
1.05	-3.74362789421432	1.04408837119735	681.490420757327	-2.37697973110411	41.0053764805859	0.411155413608513	-0.460913316663325	-0.00103609425370443	-0.000657196876086841
1.06	-3.81075595102357	1.00951623619872	681.421064166262	-2.36398101208756	41.0204231431222	0.413359680995822	-0.460913980856369	-0.00101621333834978	-0.000630733716317999
1.07	-3.84763947724362	0.994362071925811	681.392141936553	-2.3503017695424	41.0234285428647	0.413619611831782	-0.460224774802236	-0.00099507453088854	-0.000625677229514787
1.08	-3.84312457589117	0.993697137757933	681.410112143125	-2.33397793660198	41.0106698732039	0.41267999681368	-0.459334069851479	-0.000969778485351847	-0.0006479327702551
1.09	-3.78979512798142	1.00115238096588	681.480553503063	-2.31380103912505	40.980209581366	0.411133908372381	-0.458477520533558	-0.000938550627719081	-0.000700691221977079
1.1	-3.68589241650673	1.0106432674649	681.604541679186	-2.28948738679086	40.9320517437639	0.409326786439181	-0.457638871144747	-0.000901002299773968	-0.000783918620808344
1.11	-3.53626408055806	1.01789831291354	681.775063373639	-2.26160932419105	40.8679320650207	0.407362111208598	-0.456644690478185	-0.000858038982450515	-0.000894381884856521
1.12	-3.3520944173908	1.02134048567634	681.975150539663	-2.23131562898326	40.7908662652409	0.405176639579193	-0.455294833213132	-0.000811449907549777	-0.00102616609754025
1.13	-3.14944471412972	1.02206846936171	682.17899365528	-2.1999366875467	40.7045998524531	0.402634883044306	-0.45346267153877	-0.00076331675578456	-0.00117157899036324
1.14	-2.94689902117602	1.02297725080967	682.356272847486	-2.1686137309438	40.6130754712557	0.399597656673591	-0.451120610901403	-0.000715447332233721	-0.00132229360107144
1.15	-2.7627892642666	1.02734113421103	682.478704095074	-2.13808425372034	40.5199826986173	0.395945311021489	-0.448288524423409	-0.000669033622177406	-0.00147055162068727
1.16	-2.61252199578883	1.03735199954114	682.526831316175	-2.10869154435738	40.4284046232875	0.391569685382219	-0.444946454939144	-0.000624641841349138	-0.00161024262375403
