Time [s]	GRFml [N]	GRFap [N]	GRFv [N]	Mml [N.m]	Map [N.m]	Mv [N.m]	Mfree [N.m]	COPml [m]	COPap [m]
0.01	-1.35272577886867	0.601545835645257	684.86958744944	-0.136096519885343	36.4760713732732	0.287471994885953	-0.319223983316187	0.000794471817213038	-0.00438503473539054
0.02	-1.21513941138369	0.592781126087535	684.436751799642	-0.192804663462368	36.2799121256094	0.312581306502028	-0.343688606784909	0.000709883360055619	-0.00463362138029788
0.03	-1.08462490692138	0.589290326536792	684.032359346541	-0.243576779321998	36.0877476414272	0.334811686126518	-0.365559256095541	0.000634192872463024	-0.00487880886455239
0.04	-0.967209945769575	0.59626110017908	683.67696668225	-0.283112145792132	35.9038354230143	0.35170789805346	-0.382658149132302	0.000575321337811241	-0.00511615070502752
0.05	-0.867208569195922	0.617436872054806	683.374250862398	-0.307376995397545	35.7305175076308	0.361841919014563	-0.393753436382806	0.000539253103270743	-0.00534263524115886
0.06	-0.786604591045832	0.654567823415872	683.109108319255	-0.314092778851942	35.5677123456434	0.365060599970117	-0.398777725845604	0.000529312907720181	-0.00555727467282741
0.07	-0.724865941857515	0.707030847731162	682.852352697172	-0.303052126569377	35.4131622877802	0.362453641289807	-0.398778119848567	0.000545720001923211	-0.00576111177438299
0.08	-0.679336642549566	0.77162961018252	682.570622809633	-0.276187955713911	35.2633618741578	0.356060311032534	-0.395616203403337	0.000585519639618504	-0.00595664064824925
0.09	-0.646157602848899	0.842641642049376	682.238298594034	-0.23735598817933	35.1148522204525	0.348397722479875	-0.391503054447967	0.000642937331416515	-0.00614684727994491
0.1	-0.621440996984424	0.912230995627413	681.847573701547	-0.19183792575006	34.9654473641344	0.34193106014446	-0.388494380712786	0.00071013415109944	-0.00633420231877657
0.11	-0.602280122508324	0.971331526080583	681.413548656312	-0.145616332268874	34.8150095326223	0.338607456911342	-0.388071792267181	0.00077828269564395	-0.00651992337796431
0.12	-0.587196390403248	1.01099758882225	680.972912209846	-0.104510856532508	34.6655759076208	0.339545134112925	-0.390901177270468	0.000838832874653916	-0.00670368856576931
0.13	-0.575817425073475	1.0240421373102	680.576767044452	-0.073301206808526	34.5208680141683	0.344921887735127	-0.396803235543932	0.000884788348753607	-0.00688380446240205
0.14	-0.567881444451343	1.00661146681905	680.279742064628	-0.0549901786263803	34.3853924325926	0.35405777967774	-0.404913776159885	0.000911774563777668	-0.00705769370013054
0.15	-0.561959326084493	0.959268239314884	680.128297233152	-0.0503642831897201	34.2634157265823	0.365647899779241	-0.413968650931557	0.000918671690014916	-0.00722251431374754
0.16	-0.554456354857647	0.88722524104594	680.150997273759	-0.0579725352242827	34.1580702663497	0.378078094221036	-0.42262878013349	0.000907637689836371	-0.00737574676422958
0.17	-0.539420058330568	0.799585438335061	680.35272039424	-0.0745608903482077	34.070761814571	0.389750008966421	-0.429764790537218	0.000883466680436373	-0.00751564359618989
0.18	-0.509432221259518	0.707730855989151	680.713631531508	-0.0958877296772286	34.0009512124174	0.399349254837856	-0.434642527102937	0.000852391286413678	-0.00764149137469877
0.19	-0.457477695441422	0.623260324751034	681.192634148786	-0.117739841739285	33.9463002982518	0.406009204763859	-0.436982198037201	0.00082059298041337	-0.00775366992425963
0.2	-0.379295177773967	0.556008620800274	681.734164905403	-0.136906879951875	33.9031132430119	0.409350294425496	-0.436897789939392	0.000792774711465549	-0.00785351836383574
0.21	-0.275472125705971	0.512637998784496	682.2767291514	-0.151879396530722	33.8669646862905	0.409406594402528	-0.434753086199149	0.000771139678872323	-0.00794304478967683
0.22	-0.152547261721965	0.496094708311159	682.761507978883	-0.16311056711136	33.8333831867944	0.40648045385576	-0.430989626047762	0.000755009993427258	-0.00802454936998048
0.23	-0.0226403657945636	0.505942747267304	683.139643028979	-0.172799852232419	33.7984567523833	0.400982583381341	-0.425984441930892	0.000741145778255903	-0.00810025699740002
0.24	0.0984445443573373	0.539326132337242	683.377307848372	-0.18427994688553	33.759252813729	0.393311819460101	-0.419979260018221	0.000724645108510114	-0.00817205676472738
0.25	0.194245506126269	0.592157039343416	683.458245404219	-0.201180064077374	33.7139985731689	0.383806384368149	-0.413092789359329	0.000700171301469488	-0.00824140866229595
0.26	0.251072818350213	0.660123643740776	683.383931490241	-0.226576877359918	33.6620389166973	0.372766219523183	-0.405395362702044	0.000663198379542762	-0.00830940709491407
0.27	0.261006115643437	0.739246270769747	683.171815055618	-0.262326521738046	33.603656858029	0.360518143585859	-0.397004074440963	0.00061099184377833	-0.00837691086108555
0.28	0.223741234991027	0.825924275076895	682.852185807992	-0.308709675881267	33.5398796572983	0.347483448907529	-0.388154978695664	0.000543131486841375	-0.0084445989868539
0.29	0.146864149516884	0.916624888205095	682.464195985638	-0.364437038239542	33.4723818019552	0.334213733263893	-0.379225331866215	0.000461506569440884	-0.00851282677423754
0.3	0.0445020119036752	1.00749056367826	682.051497410663	-0.426975137672909	33.4035308034784	0.32137906342368	-0.370703254989607	0.000369841275222771	-0.00858124706809577
0.31	-0.0653443650214028	1.0941400721714	681.657887186969	-0.493081078754928	33.3365246004937	0.309712678191852	-0.363122213367505	0.000272912732775965	-0.00864829943469225
0.32	-0.164218186479567	1.17182160726038	681.323279858107	-0.559395671198702	33.2754824119781	0.299929794055428	-0.356985420173329	0.000175681373537184	-0.00871079215085918
0.33	-0.236671267742902	1.23590406496985	681.080223954714	-0.622948345112166	33.2253203301963	0.292641232619243	-0.352700244246848	8.25478781866229e-05	-0.00876383950806409
0.34	-0.27307865799559	1.28254690431572	680.951070317557	-0.681474381697136	33.1912951171484	0.28827729492345	-0.350530647177066	-3.1177460256826e-06	-0.00880133227352803
0.35	-0.271246698945757	1.30933056735277	680.945831759928	-0.733520115179497	33.1782230991499	0.287028499275691	-0.35056439234015	-7.91390545504811e-05	-0.00881693301277453
0.36	-0.236508070493967	1.3156690019551	681.06080923796	-0.77838670627475	33.1895271541969	0.288803044115123	-0.352687180477744	-0.000144461282328812	-0.00880537618967181
0.37	-0.180314440957699	1.3029244550811	681.278211525017	-0.816007355014938	33.2263697744402	0.293200053538226	-0.356559826562995	-0.000198981904181328	-0.00876371015804533
0.38	-0.117659346754396	1.27424347918226	681.567186872022	-0.846848255176958	33.2871463577107	0.299503318106423	-0.361604692082218	-0.00024341320664345	-0.0086921088707545
0.39	-0.0639179770098534	1.23418993230069	681.886758743808	-0.871874804863927	33.3675309375286	0.306708831378872	-0.367018341209222	-0.000279234461756706	-0.00859400759133289
0.4	-0.0318103336326701	1.18825923771733	682.190947596211	-0.892558350377197	33.4611171808436	0.313604449761122	-0.371832192953967	-0.000308694840925994	-0.00847552193676715
0.41	-0.0291424714813166	1.14233959667349	682.435804375174	-0.910851260797239	33.5605338452891	0.318914890128632	-0.375036473124638	-0.000334760655287258	-0.00834431034793581
0.42	-0.0577670387868201	1.10216679967833	682.587305897229	-0.929056212374378	33.6587877463028	0.321507157681732	-0.375763600318685	-0.000360900774225237	-0.00820816937708257
0.43	-0.113889609029872	1.07281353220956	682.628374856903	-0.949561775016603	33.7505317293535	0.320624157060801	-0.373499742628214	-0.000390674834584992	-0.00807368228221322
0.44	-0.189525138980854	1.05825823492579	682.563050585948	-0.974487111684546	33.8329791776652	0.316088259106981	-0.368267957589867	-0.000427194094605565	-0.00794518726662746
0.45	-0.274671908833545	1.06107937661708	682.416279901212	-1.00533680630583	33.9062785331036	0.308405640250745	-0.360715933366101	-0.000472609282775482	-0.00782422642565023
0.46	-0.359673125914631	1.08230694509593	682.228869485882	-1.04278213561423	33.9732951515409	0.298716616923832	-0.352055524373864	-0.000527799041995736	-0.00770951542715326
0.47	-0.437276632517602	1.12143371331963	682.048502839372	-1.08664890252779	34.0388891062548	0.28857777396335	-0.343840750118131	-0.000592375089384367	-0.00759736413117629
0.48	-0.504032511852109	1.17655710968134	681.91889271011	-1.13611971711105	34.1088894266728	0.279617112041275	-0.337624996689652	-0.000665010287722256	-0.00748239949812063
0.49	-0.56082734169282	1.2446063408616	681.869706556975	-1.19008009865388	34.1890165315675	0.273153246234208	-0.334587240501824	-0.000743978381153143	-0.00735841042019525
0.5	-0.612505913203007	1.32161854711371	681.909705209779	-1.24748307530833	34.2839800943621	0.269892269020221	-0.335240042552429	-0.000827713778910111	-0.00721915923251876
0.51	-0.66667214620161	1.40305415607137	682.024688922812	-1.30759596949677	34.3968891025564	0.269798379768453	-0.339315530948158	-0.000915185331383461	-0.0070590793124431
0.52	-0.731899211436921	1.48416302127253	682.180651190856	-1.37003071298936	34.5289906548403	0.272179731815843	-0.345871467430279	-0.0010059361188941	-0.00687386986402239
0.53	-0.815707002715583	1.56040922216594	682.33134275354	-1.43453490932504	34.6796549893876	0.275958275512393	-0.35358602052522	-0.00109975597935175	-0.00666105728211031
0.54	-0.922747538831512	1.62793165474798	682.428519723958	-1.50061162560378	34.8464889620508	0.28002972776924	-0.361145199577269	-0.00119609014650912	-0.00642057478058927
0.55	-1.05362825630407	1.68397825710856	682.432645924245	-1.56711085566653	35.0254995076194	0.283592184509839	-0.367597157292319	-0.00129340040421655	-0.00615531430548194
0.56	-1.20467247567779	1.72722872976976	682.321784528209	-1.63196574402218	35.2113126484921	0.286340041054167	-0.3725647761163	-0.0013887413423439	-0.00587147516447162
0.57	-1.36868321884623	1.75792691753945	682.096815202427	-1.69221547126183	35.3975258610639	0.288475203658786	-0.376264079259626	-0.00147776868636673	-0.00557845383278455
0.58	-1.53650341156157	1.77777449851911	681.781871139994	-1.74436833827253	35.5772797788801	0.290556042752523	-0.379346582619069	-0.00155526498934677	-0.00528806087676426
0.59	-1.69893660572008	1.78957909667578	681.419889849035	-1.78503919970323	35.7440617902731	0.293257944441506	-0.38263967206725	-0.00161608881226072	-0.00501303167902267
0.6	-1.84848301281947	1.79669487793793	681.064248133915	-1.81168606539361	35.8926291228531	0.297138184530202	-0.386880487945872	-0.00165628802424611	-0.00476506173104418
0.61	-1.98039800123917	1.8023418027719	680.768383468478	-1.82321375685834	36.0198271156325	0.302479446727161	-0.392522846356308	-0.00167402948536077	-0.00455283328074813
0.62	-2.09279014989592	1.80893625388521	680.575835730088	-1.8202355672341	36.1250460707822	0.309244020668109	-0.3996565804556	-0.00167002801984562	-0.00438059089445281
0.63	-2.18578959995772	1.81759177341894	680.513061618798	-1.80488690102085	36.2101398665008	0.317125789168494	-0.40803466168331	-0.00164730826440485	-0.0042477042962491
0.64	-2.26013910615012	1.8279280244345	680.586612858934	-1.78023598967621	36.2787996545917	0.325657784302236	-0.4171725607885	-0.00161035724961611	-0.00414935328156874
0.65	-2.31577684853404	1.83824740934444	680.784990962477	-1.74948051701322	36.3355674264006	0.334326985324982	-0.426473743966994	-0.00156394145321881	-0.00407809382124541
0.66	-2.35100179352926	1.84602260880987	681.084083046162	-1.71519671102765	36.3848024798764	0.342661098221907	-0.435342174134583	-0.001511982069207	-0.00402576921903297
0.67	-2.36261470453201	1.84853273422491	681.454039624958	-1.67888342504452	36.4299200179219	0.350273334327599	-0.443258828975829	-0.001456852031684	-0.00398513936719724
0.68	-2.34707285805992	1.84344129759707	681.865182773716	-1.64092437337286	36.4731015309707	0.356869752835907	-0.449816153529747	-0.0013992856816295	-0.00395075224288449
0.69	-2.30231496000722	1.8291497477884	682.29115933982	-1.60092623479174	36.5154847253862	0.36223374580473	-0.454717219151691	-0.00133884830452247	-0.00391890778588327
0.7	-2.22965056426166	1.80486875870495	682.708841738146	-1.55825000183327	36.5576609311159	0.366204091719953	-0.45775431403083	-0.0012747030194793	-0.00388692480239861
0.71	-2.13506159850909	1.77047536416185	683.095904410538	-1.51249803888868	36.6002147997355	0.368660358250785	-0.458785563711083	-0.001206326674147	-0.00385216765092117
0.72	-2.02943768954369	1.72630886287922	683.427979837435	-1.46377100768945	36.6440659633236	0.369525082181303	-0.457727696824842	-0.00113389758025528	-0.00381132987554544
0.73	-1.92758179105293	1.67306426179926	683.677436445133	-1.4126396410815	36.6904928799336	0.368785963758614	-0.45457633717806	-0.001058267425877	-0.00376030835868602
0.74	-1.84615884942339	1.61186900282182	683.815100492994	-1.35992304419621	36.7408749861943	0.366532132281934	-0.449451405612923	-0.000980645365623478	-0.00369471939402444
0.75	-1.80101624238198	1.54451283247187	683.81499527367	-1.3064578519451	36.7963123957204	0.362988084163921	-0.442648246601843	-0.000902261022260653	-0.00361083160551318
0.76	-1.80443105552504	1.47369556554996	683.660904270521	-1.25303691660767	36.8573257263304	0.35852314071373	-0.434663876838912	-0.000824268674108675	-0.00350652789694139
0.77	-1.86283722343657	1.40311068823091	683.352745264304	-1.20059468321564	36.9237915601005	0.35361977922275	-0.426171278431389	-0.000748009298362717	-0.00338191171231017
0.78	-1.97548233215364	1.33721694840668	682.910619182747	-1.1505675796812	36.9951559780867	0.348801897794428	-0.417934859035978	-0.000675530466584862	-0.00323932639363811
0.79	-2.13428845515742	1.28065543181318	682.374953433966	-1.10523339615522	37.0708362546715	0.344546163730654	-0.410688494562981	-0.000610081282381714	-0.00308279173701931
0.8	-2.32496740609833	1.23740780788117	681.802171982557	-1.0677948541218	37.150621136641	0.341212902758675	-0.405018582820924	-0.000556240634761007	-0.00291708631277471
0.81	-2.52919537548054	1.20990960927831	681.256483184849	-1.04204194443221	37.2348544803264	0.339027230001211	-0.401295114875957	-0.000519435999587259	-0.0027468333104308
0.82	-2.72742708385765	1.1983830720328	680.799388135474	-1.03158076217123	37.3242526653262	0.338116245881678	-0.399671371554485	-0.000504832030568281	-0.0025759331073848
0.83	-2.90178147125077	1.20061446669775	680.479154292306	-1.03879515495311	37.4193474753177	0.338575695615874	-0.4001379427155	-0.000515828377008587	-0.00240753229721041
0.84	-3.03841207140083	1.21228333552663	680.322630265228	-1.0638442852575	37.5197144917074	0.34051732407473	-0.402587926790083	-0.0005526062611525	-0.00224448565878022
0.85	-3.1289079069255	1.22779743540671	680.331341289002	-1.10404232571261	37.623274940555	0.344051054233062	-0.406844535912772	-0.000611227331247521	-0.002090047979315
0.86	-3.17052838308546	1.24144901756171	680.482849320022	-1.15389499692899	37.725986106718	0.349187411906641	-0.412626068452882	-0.000683685279956103	-0.00194841797739059
0.87	-3.16538549524316	1.24862420551216	680.737069825508	-1.20589633737102	37.8221372666724	0.355693518158883	-0.419466638841599	-0.000759062061761129	-0.00182479690174542
0.88	-3.11895408845438	1.24678249235839	681.045928683693	-1.25196418935942	37.9052710443681	0.362977022120603	-0.426651518672068	-0.000825613466380437	-0.00172480652006241
0.89	-3.03843294216666	1.23597270683614	681.363810236373	-1.28518015468882	37.9695241985906	0.370081804976627	-0.433238388768043	-0.000873298963049551	-0.00165336466576255
0.9	-2.93145252611332	1.21875104969501	681.656029362112	-1.30136723037615	38.0110128062308	0.37584461749826	-0.438206861822553	-0.000896077077187418	-0.00161334386360978
0.91	-2.80543914258239	1.19949855647271	681.903191554921	-1.30003676711026	38.0288406187546	0.379192491323361	-0.440716735932633	-0.000893284119846571	-0.00160445500357104
0.92	-2.66766208485141	1.18327696188301	682.100625073181	-1.28438193897048	38.0254057529236	0.379487328336531	-0.440389772990846	-0.000869624721861584	-0.00162276248117454
0.93	-2.52570921145464	1.17448266083738	682.253646459227	-1.26025855927528	38.0058867481342	0.376784342923733	-0.43749641387186	-0.00083368571626441	-0.00166106346626893
0.94	-2.38796077997504	1.17562357145115	682.37070145448	-1.23440317942015	37.9770334728151	0.371889707801329	-0.432950543500327	-0.000795335332686609	-0.00171011078439953
0.95	-2.26362995463182	1.18652731145849	682.456952833021	-1.21239406432496	37.9455910562384	0.366176190780996	-0.428087271251601	-0.000762743630880247	-0.00176040649149423
0.96	-2.16211300843747	1.20418855541719	682.510500472869	-1.19696946858634	37.9167847863602	0.361211704123835	-0.424288735125012	-0.00073992110307719	-0.00180411711918027
0.97	-2.09167505814956	1.22330506118134	682.522309194385	-1.18722843846915	37.8932663412474	0.358330244135025	-0.422588605979745	-0.000725544647045995	-0.00183661254401346
0.98	-2.05777962013707	1.23738201017746	682.479542852762	-1.17896898527673	37.8747819616778	0.358294255257001	-0.42339653159849	-0.000713446868138568	-0.00185722317733683
0.99	-2.06154961625657	1.24015008244637	682.370875463511	-1.16605278828536	37.8586167105046	0.361155848826711	-0.426435570276259	-0.00069461032012319	-0.00186902028391867
1	-2.09886628718085	1.22697447244189	682.191837096586	-1.14235149222808	37.8406561793461	0.366343675948096	-0.430902237307085	-0.00066001817822503	-0.00187769349879224
1.01	-2.16047257178021	1.19593792099138	681.948447234902	-1.10364716341203	37.8167467768538	0.372919614572556	-0.435777214243369	-0.000603443234283407	-0.00188984987658991
1.02	-2.23319733783857	1.14835204234426	681.658120465003	-1.04889353389842	37.7839712383394	0.379897929664263	-0.440167437006231	-0.000523304388448276	-0.00191121318150544
1.03	-2.30212690887102	1.08857080151705	681.347770560994	-0.980478543341084	37.741503825823	0.386514693211841	-0.443561689726924	-0.000423060678144238	-0.00194520947647236
1.04	-2.35329281172017	1.02312733945694	681.049843817831	-0.903471270859684	37.6908534514987	0.392371359060666	-0.445925383912866	-0.00031011457142871	-0.00199228090501402
1.05	-2.37628255721384	0.95936552709801	680.797436678578	-0.824160739722569	37.6354947443485	0.397432759263812	-0.447624106866461	-0.000193672829243874	-0.00205002372697349
1.06	-2.36615924604374	0.903860335346764	680.619624308398	-0.748389255944722	37.5800609992787	0.401911715876749	-0.449223663024143	-8.23013940494111e-05	-0.00211398948693936
1.07	-2.32421264732746	0.860985161433028	680.537757854621	-0.680194920809392	37.529369939021	0.406101946029145	-0.451247112977258	1.80696020140036e-05	-0.00217881519395713
1.08	-2.25733585668926	0.831968363697035	680.563016933772	-0.621123750233534	37.4875468166934	0.410222676621035	-0.453970238076323	0.000105159496789797	-0.00223931791349252
1.09	-2.1761634802315	0.814684119312984	680.695176202865	-0.570323767139639	37.4574176852742	0.414319097889634	-0.457312463975229	0.000180202109462457	-0.00229129516469956
1.1	-2.09242862735635	0.804264074762208	680.922485479592	-0.52528514648434	37.4402209722408	0.418235310532528	-0.460844374567444	0.00024686028763854	-0.00233194910341966
1.11	-2.01620492684268	0.794428328186604	681.222709905089	-0.482921339505109	37.4355864447889	0.42165254880657	-0.463899022200528	0.000309638182300565	-0.0023600093086098
1.12	-1.95373129747279	0.779252583178895	681.565523759101	-0.440637197354653	37.4416926462465	0.424171426419616	-0.465750437459819	0.000372312653278195	-0.00237569768228846
1.13	-1.90635469379194	0.754949731361345	681.916378984328	-0.397097388513764	37.4555345200885	0.425412962338291	-0.465811278667193	0.000436806797606493	-0.00238064493684687
1.14	-1.8708103766282	0.721188726530452	682.241587971815	-0.352550789076062	37.4732790827907	0.425115587370815	-0.463801014672609	0.000502718632709342	-0.00237777191098959
1.15	-1.84068146091343	0.681538953177252	682.51378351258	-0.308724074976464	37.4907177280382	0.423209684722312	-0.459843939664441	0.000567484893897463	-0.00237105878499888
