Time [s]	GRFml [N]	GRFap [N]	GRFv [N]	Mml [N.m]	Map [N.m]	Mv [N.m]	Mfree [N.m]	COPml [m]	COPap [m]
0.01	-1.54508667599754	2.12646748097886	914.692507417812	12.4017779872355	4.74596187604143	1.52545920895649	-1.55726648982721	-0.00383019359123149	-0.00902587529970117
0.02	-1.30253558291149	2.24227458741889	918.045506047664	12.2349884803236	4.89993779077953	1.50438820161408	-1.5337710628617	-0.00405669952247711	-0.00886503143822143
0.03	-1.04530036343535	2.34626260888387	921.086257107624	12.0680210436191	5.03676266398277	1.48768061342868	-1.51438694519196	-0.00427901188281232	-0.00872100655590569
0.04	-0.769426132586398	2.4261093594609	923.545730922179	11.9020874297595	5.14440681891586	1.4788606638502	-1.50251713665584	-0.00449203559374256	-0.0086052946803753
0.05	-0.483828661218948	2.47353569359671	925.225932390909	11.7373517398827	5.21761800742246	1.4794873209453	-1.49978659223149	-0.00469285266044717	-0.00852243287998783
0.06	-0.209139329263785	2.48614481413651	926.024972369316	11.5726404542994	5.25833529119219	1.48878981436538	-1.50567354638521	-0.00488139290297862	-0.0084697012479476
0.07	0.0286723820570574	2.46841311383284	925.949579409801	11.405716555346	5.27389439244325	1.50390388077891	-1.51767026804516	-0.00506029775632555	-0.00843915329213774
0.08	0.207496838932007	2.43152382388664	925.11085513292	11.2339870414424	5.27376753899474	1.52061724088965	-1.53191098534546	-0.00523406499959078	-0.00842114217705148
0.09	0.317590776520442	2.39187108799552	923.702364762821	11.0553705063343	5.26606894492643	1.53440831829243	-1.5440948248856	-0.00540776790524955	-0.00840799628583849
0.1	0.366140232413357	2.36831131462554	921.964005139533	10.8690232447156	5.25506523869487	1.54150452826458	-1.55047152328187	-0.00558573545817509	-0.0083965145829431
0.11	0.376088030053901	2.37855957739689	920.138851816087	10.6757009636528	5.24049034549956	1.5397010244191	-1.54865506808047	-0.00577054545752365	-0.00838845345304207
0.12	0.379504759252316	2.43542996402449	918.432058283992	10.4776712980854	5.21877662498566	1.52875728530063	-1.5380822762948	-0.0059625533244938	-0.00838893659744999
0.13	0.407687619872213	2.54378695083426	916.980341627563	10.2782341583288	5.18564655450415	1.51030534849997	-1.5200269193394	-0.00616001116124743	-0.00840344351802097
0.14	0.481238860239295	2.6990209395653	915.837934678651	10.0810110191919	5.13908877737799	1.48732952719677	-1.4971928927068	-0.00635967529992587	-0.00843447522181995
0.15	0.603278810603611	2.88756134735169	914.980973732051	9.8892111475	5.0816786423122	1.46338035699903	-1.47301307457308	-0.00655769143024365	-0.00847904363392443
0.16	0.757810532176501	3.08945485346805	914.32817824517	9.70507150473773	5.02147008804047	1.44173925422686	-1.45084633052954	-0.00675050160288504	-0.00852781813880688
0.17	0.913562752206023	3.2824939649621	913.772306665441	9.52960834822033	4.97115559876283	1.42474410930493	-1.43327717221939	-0.00693553879769626	-0.0085662317355944
0.18	1.03202368669672	3.44694091072133	913.214893899376	9.36272988998143	4.94569940707301	1.41342719226699	-1.42168122765477	-0.00711155131714869	-0.00857728247051637
0.19	1.07734831526066	3.56969088152153	912.596490909327	9.20366251274107	4.95905399010912	1.40752606533317	-1.41614016497031	-0.00727850927103435	-0.00854531935613234
0.2	1.02558843097863	3.64682638327414	911.915973330861	9.05156105824482	5.02078538547097	1.40583060758529	-1.4156948132408	-0.00743716013884566	-0.00845986989604697
0.21	0.871156978606724	3.68391016692459	911.235071226385	8.9061262471653	5.13343449792467	1.40674641878289	-1.41883790848692	-0.00758839065354733	-0.00831857495612265
0.22	0.629298034046097	3.69394321258858	910.667470514897	8.76805070804507	5.29125370708006	1.40890277813463	-1.42408748932232	-0.00773259581920172	-0.00812851823249566
0.23	0.334269501803484	3.69352056258485	910.354958432102	8.63915975737321	5.4806373441696	1.41162313997576	-1.43046304033678	-0.00786924302945757	-0.00790560777050275
0.24	0.0337429598267103	3.69818920604725	910.43555760419	8.52219345063265	5.68218608133136	1.41511363923409	-1.43771688402085	-0.00799675509023245	-0.00767210058002277
0.25	-0.219488589332116	3.71822360700732	911.010067657382	8.42027308531729	5.87399038044108	1.42030667507688	-1.44624986564351	-0.00811273934371337	-0.0074527657257073
0.26	-0.377014580858272	3.75592906225382	912.113779273947	8.33618354442116	6.03546122428498	1.42840482258047	-1.45674494096658	-0.00821448923090584	-0.00727047159018079
0.27	-0.403832789977698	3.8051859447212	913.699346685368	8.27165812881946	6.15093002880429	1.4402738762043	-1.4696531112889	-0.00829960921850348	-0.00714209905169438
0.28	-0.285211941839034	3.85335936672773	915.63496998143	8.22685773328568	6.21230250311871	1.45589596023593	-1.48472667369455	-0.00836658576234184	-0.00707560240700322
0.29	-0.0299869761017951	3.88506923000488	917.719302340155	8.20018816146045	6.22026279772015	1.47408615452625	-1.50078767352868	-0.00841515191093412	-0.00706878713892628
0.3	0.330529485800522	3.88680835936118	919.711191051671	8.18851120571883	6.18383069509785	1.49259357617494	-1.5158402833182	-0.00844635961846785	-0.00711001038336334
0.31	0.748006323384981	3.85114831452222	921.369067447354	8.18770257474716	6.11840473687985	1.50857453139706	-1.52750899805478	-0.00846235780009807	-0.00718061999290331
0.32	1.16600308689452	3.77935936235483	922.492300646571	8.19342224460295	6.04271038018787	1.5192892148958	-1.53365720154357	-0.00846594924848787	-0.00725861293554836
0.33	1.53063353333801	3.68168345120012	922.955891298621	8.20191361490338	5.97526660618592	1.52278807706724	-1.5329647304721	-0.00846004646378828	-0.00732277259800124
0.34	1.80082764152226	3.5751349316414	922.730962350477	8.21064804685837	5.93106382315997	1.51835536117024	-1.52525245060564	-0.00844715719084943	-0.00735646612372043
0.35	1.95599652310483	3.47938797230667	921.886515261547	8.21867904308186	5.91910649635797	1.50656705819234	-1.51143619989884	-0.00842900665476531	-0.00735035016924795
0.36	1.99931156547318	3.41184191409513	920.572176622796	8.22665265356475	5.94132181362567	1.48896449457695	-1.49313597852218	-0.0084063533691896	-0.00730343365552449
0.37	1.95562751877226	3.38317693435087	918.986063391562	8.23651583519001	5.99308358992315	1.46748748915042	-1.47210256612022	-0.00837899295146727	-0.00722225643023289
0.38	1.864216334406	3.39456075191887	917.335279278225	8.25104416108663	6.06527371180877	1.44389824950219	-1.44969880838987	-0.00834588968300209	-0.00711832689491038
0.39	1.76775994195996	3.43719904264956	915.798053504318	8.27334594947089	6.14744964232054	1.4194261871161	-1.4266558165148	-0.00830535138654509	-0.0070043610124087
0.4	1.70019677361106	3.49428694264111	914.495822241064	8.30647392608282	6.23138070605969	1.39477415111687	-1.40321855491651	-0.00825518533551461	-0.00689019560642912
0.41	1.67667121638954	3.54480221389373	913.480896476835	8.35319302818085	6.31404874200013	1.37047917175962	-1.37963668243447	-0.00819283782572755	-0.00677941291838574
0.42	1.68866283507828	3.56814469987561	912.741476779342	8.41584631062766	6.39925904105874	1.34746762245305	-1.3568017242815	-0.00811559876037971	-0.0066676292178226
0.43	1.70621624972972	3.54846971333996	912.221611402781	8.49618116955627	6.49730656595904	1.32754241754353	-1.33673987506866	-0.00802099826220026	-0.00654303961782432
0.44	1.687212195282	3.47770397640058	911.850191154136	8.5949935521628	6.62264619846922	1.31353153696202	-1.32268276615203	-0.00790749146324143	-0.0063892289422795
0.45	1.59133044772693	3.35661826233699	911.57099164874	8.71153816930326	6.79010025715522	1.30892614556935	-1.31856417563069	-0.00777540669644883	-0.00618959661555107
0.46	1.39451479320572	3.19385493376806	911.365575001349	8.84281184301891	7.01062502705737	1.3170176930952	-1.32799516219581	-0.00762795529510762	-0.0059322011934661
0.47	1.09910900086182	3.00333796188719	911.262653051786	8.98297619002623	7.28787562114961	1.33974696551629	-1.35298488839023	-0.00747194521566896	-0.00561360253616883
0.48	0.735821272544752	2.80089390585738	911.330998709831	9.12325998669654	7.61664770474238	1.37662858012916	-1.39281816207852	-0.00731779612682415	-0.00524048474003364
0.49	0.356164268117856	2.60107677908548	911.657462894897	9.25261071781963	7.98374723313511	1.42414889743814	-1.44351064595692	-0.00717857890941798	-0.00482846346694782
0.5	0.0172745413782884	2.41506319002086	912.31603840494	9.35914931648053	8.37109031762236	1.47592984128953	-1.49812179108224	-0.00706808562986272	-0.004398348698121
0.51	-0.236096118255209	2.25009014326297	913.336950094253	9.43219253911544	8.76010610202309	1.52373286833724	-1.54795301142769	-0.00699828566662564	-0.00397096992180834
0.52	-0.38623554691963	2.11035753658203	914.685346729238	9.46435940544992	9.13606387291601	1.55911614662239	-1.58437720684248	-0.00697680088214103	-0.0035621790498192
0.53	-0.448367684302845	1.99878922341467	916.256834774773	9.45318093433598	9.49094871255219	1.57534075270262	-1.60083121088249	-0.00700511248344349	-0.00317962444110259
0.54	-0.465212379126803	1.91873242767439	917.892288251712	9.40173674682152	9.82398936897268	1.56902069449039	-1.59442827426355	-0.0070780443220666	-0.00282231573857644
0.55	-0.491577797378285	1.87470688512679	919.408509066694	9.31811503130063	10.1397443491893	1.54106000672853	-1.56673824649147	-0.0071847040103109	-0.00248305553992528
0.56	-0.573998531977023	1.87170130970249	920.636347746967	9.21383251593491	10.4444982062413	1.49660311563177	-1.52350896782061	-0.00731063714293378	-0.00215282777211218
0.57	-0.732394479520091	1.91312414002756	921.455573292394	9.10163584882714	10.7423056147197	1.44398701827216	-1.47339256162788	-0.00744061451202627	-0.00182555812013774
0.58	-0.950226313834088	1.99811818852173	921.816933641111	8.9932444931016	11.0321325794743	1.39294974095419	-1.42600827200775	-0.00756133530140102	-0.00150154479318776
0.59	-1.17680376674051	2.11930603810041	921.746030974628	8.89756142789287	11.3071417769454	1.35254522109806	-1.3898441500256	-0.00766341411957039	-0.00118833996608547
0.6	-1.34127766840451	2.26199555879253	921.32930277276	8.8197077263802	11.556402458696	1.32928754542009	-1.37052939180231	-0.00774226916441989	-0.000898763565526484
0.61	-1.37390983450905	2.40544587342846	920.687532793134	8.76100079216134	11.768456949458	1.32597795117807	-1.36989350728184	-0.00779784343552026	-0.000646720076352691
0.62	-1.22786286772024	2.52612762265456	919.945233211938	8.71976376509413	11.9355510205704	1.34147445136318	-1.38600221133498	-0.00783337582557553	-0.000442211508565105
0.63	-0.894757494078554	2.60224768717837	919.204221994817	8.69267382812294	12.0571451841047	1.37139924102282	-1.41408660186666	-0.00785363381291282	-0.000287155246728732
0.64	-0.409487869102484	2.61837656591784	918.527206127437	8.67625425063014	12.141606907868	1.40951909435064	-1.44803926114838	-0.00786310306749705	-0.000173285274841839
0.65	0.156658148193949	2.56894913128622	917.933455200457	8.66809838592285	12.2056016242207	1.44935768408653	-1.48200956083231	-0.00786460575531245	-8.27035535081455e-05
0.66	0.71198172484626	2.4597062436074	917.405201258157	8.66748604860685	12.2714064666684	1.48556284285177	-1.51163402815182	-0.00785870231269359	9.15957642372289e-06
0.67	1.16452257042367	2.30669276588738	916.901275250812	8.67520865072449	12.3629185542621	1.51466853081508	-1.53458515616366	-0.0078440378278174	0.000129041335528768
0.68	1.44090835596345	2.1330572892058	916.373931494502	8.69263798135777	12.5013703658391	1.53512006488232	-1.55036472931488	-0.00781854950636029	0.000300940135486649
0.69	1.49959569548855	1.96444208716894	915.785344362651	8.72030946974256	12.7016881215812	1.54669069623749	-1.55952341270264	-0.00778119991720361	0.00054187010223028
0.7	1.33634366277095	1.82407863468716	915.121124322731	8.75647764386783	12.9701377316287	1.54961598111389	-1.56267027890382	-0.00773370613379254	0.000859026225261239
0.71	0.982006159794767	1.72873919524833	914.398855136647	8.79616884481932	13.3035416125392	1.54384246543529	-1.55968466194765	-0.00768166868886011	0.0012487212606056
0.72	0.494371560882154	1.68642744494919	913.670074148268	8.83115826915734	13.6900332807619	1.52871121017447	-1.54944692324248	-0.00763461636777285	0.00169711206411699
0.73	-0.0534632611935253	1.69618514334355	913.014696502002	8.85104127589153	14.1110927350582	1.50320928757582	-1.53020249240692	-0.00760477087028766	0.00218247774562169
0.74	-0.585698219382953	1.74978885590795	912.528045291731	8.84522160326475	14.5444639537688	1.4666937929049	-1.50043587343562	-0.00760472834066672	0.00267862768624072
0.75	-1.0353548979115	1.83460153589021	912.302425533835	8.80531705197466	14.9674671275537	1.41980211501334	-1.45993682153922	-0.00764462662103971	0.0031588755471923
0.76	-1.35320397964437	1.93660541207775	912.407047235356	8.72730624641742	15.3601718893195	1.36517173878274	-1.41065202750449	-0.00772958064737794	0.00359991850349894
0.77	-1.51309272445835	2.0427606702328	912.871200776354	8.61278182627612	15.7079131151629	1.30763203888315	-1.3569618715583	-0.00785813380220779	0.00398494972024088
0.78	-1.51317564363167	2.14225321605119	913.675196480898	8.46892767358829	16.0027386915723	1.25368854980761	-1.30519174710268	-0.00802219168799256	0.00430545541619443
0.79	-1.37312277856189	2.22673045464255	914.751573570469	8.30721115393379	16.2435891723889	1.21034890349461	-1.26241068180662	-0.00820847369281252	0.004561418983968
0.8	-1.12802579777384	2.29004071454549	915.996083633752	8.14114320826606	16.4352895283859	1.18356632315268	-1.2348098597024	-0.00840108922881688	0.00476002401798747
0.81	-0.820334993388059	2.32810763608104	917.285085069653	7.98369025459877	16.5867099300755	1.17672580038631	-1.2261104220632	-0.00858456227059567	0.00491331182052779
0.82	-0.491559850677536	2.33934186607417	918.494360996752	7.84496286349045	16.7086390674385	1.18961698846523	-1.23646808097608	-0.00874656628425508	0.0050354887972951
0.83	-0.175496482850427	2.32553666269239	919.514583719749	7.73067227302479	16.8119460416357	1.21821585532716	-1.26221158992069	-0.00887978079500296	0.00514061250564674
0.84	0.105642401298232	2.29274067247542	920.260508041447	7.64160779744543	16.9064708258733	1.25537144555072	-1.29651390351751	-0.0089825608135935	0.00524119915909216
0.85	0.341548216784082	2.25138664333536	920.673639287064	7.5741340503803	17.0008190433778	1.29223742968336	-1.33082692626243	-0.00905841602398594	0.00534795100844743
0.86	0.530842815576098	2.21511111373873	920.720486731406	7.5215049681271	17.1029250040842	1.32008319023373	-1.35670015708903	-0.00911454225508124	0.00547041008014737
0.87	0.675930051899502	2.1981874106124	920.389688552869	7.47567132520222	17.2209823491677	1.33202941484542	-1.36751518826844	-0.00915979246663101	0.00561802815140461
0.88	0.777406835737662	2.21211244828621	919.690935729619	7.42921380413454	17.3642053868224	1.32430058803173	-1.35972226052989	-0.00920252154543455	0.00580099919815036
0.89	0.829946392250035	2.26236337617633	918.657008622729	7.37704283019486	17.542921633901	1.29674583423271	-1.33333268140902	-0.00924871515894854	0.0060302757424136
0.9	0.821197060856669	2.34644855046739	917.348105336803	7.31755296960697	17.7677040956543	1.2525892779581	-1.29163718095727	-0.00930074233045608	0.00631646710884531
0.91	0.734350019217291	2.45404374738669	915.855858085096	7.25300280339176	18.0475769715108	1.19756067521849	-1.24031221112124	-0.00935696319156731	0.00666771830294755
0.92	0.553830759178672	2.56933812388399	914.303688163725	7.1890186589368	18.3876771179513	1.13867351216696	-1.18619055753175	-0.00941227522136034	0.00708707356430027
0.93	0.272432928957192	2.67496265338017	912.840718233191	7.1332917243795	18.7870149422226	1.08294282856707	-1.13599255903678	-0.00945949667982882	0.00757010769901673
0.94	-0.102447903735269	2.75632023139107	911.628149897729	7.09372883004523	19.23705811262	1.03628524704941	-1.09525835036998	-0.00949128993844239	0.00810365850011063
0.95	-0.545725240929538	2.80498838693696	910.819263016745	7.07647905619292	19.7217166551525	1.00275563531996	-1.06762845086083	-0.00950216859141439	0.00866627880181631
0.96	-1.01605149752811	2.82017618327121	910.536277391015	7.08433353538184	20.2189688075868	0.984184969223569	-1.05452767896213	-0.00949006779336392	0.00923059752907418
0.97	-1.46178246454755	2.80787230518544	910.848593078922	7.11594165032551	20.7039323199815	0.980213728272244	-1.05523787023129	-0.00945702832445383	0.0097672623496789
0.98	-1.83012327527741	2.77808608556234	911.757022200406	7.1660974157727	21.1527916274977	0.988667213426366	-1.06730051939221	-0.00940875431415977	0.0102496944643495
0.99	-2.07719618661197	2.74118687956603	913.187540130925	7.22706514165286	21.5467621770298	1.00618444518322	-1.08716072967945	-0.00935310811264334	0.0106586589479215
1	-2.17660384299796	2.70458114695602	914.996156418422	7.29061137683902	21.8752772802207	1.02898176220926	-1.11093758548795	-0.00929792077625979	0.0109857090745905
1.01	-2.12462236188465	2.67076088368295	916.984286813299	7.35018399679611	22.137807818502	1.05360620855718	-1.13518166613172	-0.00924872548611877	0.0112348706298412
1.02	-1.94117997222563	2.63720843425792	918.922078233442	7.40260847227204	22.3440851794581	1.07752360130097	-1.15746858191291	-0.00920708238832857	0.0114223793196521
1.03	-1.6668740572648	2.59797668417757	920.575934768567	7.44879349702744	22.5128686881704	1.09940766362367	-1.17669509705966	-0.00917001993468936	0.0115747195471165
1.04	-1.35710787983924	2.54623875117982	921.736197520818	7.49323135577167	22.6696653609292	1.11905918728595	-1.19300322998998	-0.00913079584489818	0.0117255036503081
1.05	-1.07479523536587	2.47689589202601	922.241455667105	7.54245967340544	22.8439067369463	1.13698131396014	-1.20735305804881	-0.00908077034822019	0.0119118105487371
1.06	-0.88297861868704	2.38847052158114	921.997017174798	7.60299553438503	23.0660178516105	1.15374361391559	-1.22087207573836	-0.00901181877906243	0.0121704890106057
1.07	-0.838276430989198	2.28386907870123	920.986260404702	7.67943294083958	23.3646401277987	1.16934665534189	-1.23418960810635	-0.00891852454077824	0.0125347104202005
1.08	-0.985539629054299	2.16998594525974	919.274567416911	7.77333066268908	23.7640876969297	1.18281514788269	-1.24698238671573	-0.00879946933440778	0.0130308476488256
1.09	-1.35368260847407	2.05638308118325	917.006083881693	7.88321962788771	24.2820148301213	1.19218454197392	-1.25789474100118	-0.00865726196214234	0.0136756641793947
1.1	-1.95251469453038	1.95337737347965	914.393640911074	8.0056348369498	24.9273007960265	1.19491568193147	-1.26486806893084	-0.00849740289821688	0.0144738687777092
1.11	-2.77057575538874	1.86986007327458	911.702017282019	8.13669390263283	25.6983059894275	1.18861712149319	-1.2657640619181	-0.00832649035179045	0.0154162937801761
1.12	-3.77436521264498	1.81116016420656	909.224688498108	8.27355796780571	26.5818447337944	1.17183376943549	-1.25905419804423	-0.00815047177874717	0.0164791817244745
1.13	-4.90971399665678	1.77730536092001	907.254688646115	8.41519283162276	27.5533421107047	1.1446246842828	-1.24432290889003	-0.00797356069105459	0.0176251690128153
1.14	-6.10610221846352	1.76210506452552	906.051395166776	8.56215538286831	28.5785892273354	1.10872105972321	-1.22240693222072	-0.00779812239890787	0.0188064141636171
1.15	-7.28427587519447	1.75348437650346	905.80675779647	8.71552888168595	29.6172396924499	1.06720317119473	-1.19513777496631	-0.00762542736092342	0.0199698995953532
1.16	-8.36658731856837	1.73533770482688	906.616147447562	8.87545947178313	30.627750445182	1.02380356751054	-1.16480588289233	-0.00745684339948094	0.0210643328037241
1.17	-9.28836997925159	1.6908146295274	908.459783181867	9.03988612110137	31.5729993197322	0.982066983374411	-1.13356057511378	-0.00729490579012126	0.0220474831264048
1.18	-10.0078315839789	1.60647957533641	911.199900377571	9.20396989886546	32.4254820578598	0.944631453240938	-1.1029639454937	-0.00714379640576934	0.0228924425112927
1.19	-10.5118547355872	1.47637009260654	914.596220182363	9.3604638140838	33.1709400076165	0.91283491950877	-1.07383645030272	-0.00700902307178863	0.0235913561602625
