Time [s]	GRFml [N]	GRFap [N]	GRFv [N]	Mml [N.m]	Map [N.m]	Mv [N.m]	Mfree [N.m]	COPml [m]	COPap [m]
0.01	-2.47781130305553	6.60990355711431	824.376327913778	-54.3018892310146	2.28823895246126	0.285950533352318	0.104388276991735	0.000106413576913816	-0.00933735191646015
0.02	-1.81118561306213	6.73218366317723	824.196723001163	-54.4255365583577	2.28139962502418	0.45442110093202	0.316177270380353	0.000102082005881024	-0.00917617391752641
0.03	-1.15782244270253	6.85345895673889	824.015160086799	-54.5484953929073	2.2745573950673	0.619530102622077	0.523953885543561	9.76650910905525e-05	-0.00901572099053419
0.04	-0.530221191291629	6.97199987106187	823.833480738357	-54.6702658049679	2.26763758943303	0.778082668244109	0.723691609706037	9.30571259611292e-05	-0.00885676962134571
0.05	0.0600091445699703	7.08612260451684	823.653782702937	-54.7905087441016	2.26054463339909	0.927102709595385	0.911632019295509	8.81311146690988e-05	-0.00869992003222682
0.06	0.60260761283949	7.19423216518983	823.478417182665	-54.9090428827735	2.25316583625396	1.06394969490862	1.08443359723475	8.27429521659566e-05	-0.00854559960886908
0.07	1.08904722196409	7.29486313231411	823.309963200845	-55.0258353944278	2.24537623417356	1.1864177712695	1.23929849935061	7.67366571291571e-05	-0.00839407189665912
0.08	1.51282983209755	7.38671705470705	823.151175305077	-55.1409874882798	2.2370442779374	1.29281230769131	1.3740708594957	6.99505256902986e-05	-0.00824544980872187
0.09	1.86967687979205	7.46869541755331	823.004902777365	-55.2547155569724	2.2280380897596	1.38200044085488	1.48730215810994	6.22239991467828e-05	-0.00809971180965913
0.1	2.15760953286717	7.53992718863195	822.873980945167	-55.3673288352998	2.21823196812684	1.45343386990847	1.57828132262703	5.34049668802681e-05	-0.00795672000045636
0.11	2.37691868264767	7.59979010864445	822.761097955115	-55.4792045277533	2.20751279734197	1.50714384187521	1.64702941577893	4.33571667563756e-05	-0.00781623920459247
0.12	2.53003158870695	7.647925107329	822.668643255345	-55.5907614345875	2.19578602193473	1.5437098777954	1.69426084453484	3.19673084282148e-05	-0.00767795632663547
0.13	2.62128758811631	7.68424348664847	822.598546753061	-55.7024331752093	2.18298087489003	1.56420520924375	1.7213148534858	1.9151536798578e-05	-0.00754149941408612
0.14	2.65663974820353	7.708926788386	822.552119865538	-55.814642153342	2.16905459991958	1.57012304384488	1.7300625457794	4.86087660118246e-06	-0.00740645599749973
0.15	2.6433024651284	7.72241952967848	822.5299111698	-55.9277754094962	2.15399547686272	1.56328860052387	1.72279572975792	-1.09146460910005e-05	-0.00727239041210222
0.16	2.58936668736847	7.7254152241058	822.531589830779	-56.0421634454317	2.13782453937952	1.54576232112538	1.70210448364931	-2.8143428248605e-05	-0.00713885991606257
0.17	2.5034046789868	7.71883629265463	822.55586928552	-56.1580629722667	2.12059595822175	1.51973977204707	1.67075046245036	-4.67513830054072e-05	-0.00700542951571796
0.18	2.3940851357548	7.70380860131495	822.600481728769	-56.275644327561	2.10239614428602	1.48745351944027	1.6315426706831	-6.66227159503165e-05	-0.00687168548496724
0.19	2.26981721256185	7.68163144167989	822.662210857848	-56.3949840357078	2.08334169673904	1.4510817367565	1.58722174853066	-8.76022931788544e-05	-0.00673724762270692
0.2	2.13843885819154	7.65374380602261	822.736986295132	-56.5160626679091	2.06357637741237	1.41266754211378	1.54035784319426	-0.000109499416718787	-0.00660178032651355
0.21	2.00696106580302	7.62168781171008	822.820038432756	-56.6387678174852	2.04326732985101	1.37405213345744	1.49326595072568	-0.000132092751089062	-0.00646500257150351
0.22	1.88137553036271	7.58707011584108	822.906107539819	-56.7629016720395	2.02260077846742	1.3368237646174	1.44794130959405	-0.000155136099144535	-0.00632669687073287
0.23	1.76652904565723	7.55152214267724	822.989696286675	-56.8881923656714	2.00177744102061	1.30228355703143	1.40601609742405	-0.000178364707507115	-0.00618671726007923
0.24	1.66606403413127	7.51665993304699	823.065350822752	-57.0143080591404	1.98100786892895	1.27142813638498	1.36873741042948	-0.000201501789774986	-0.00604499630099299
0.25	1.58242110154586	7.48404442051295	823.12795259395	-57.1408725453422	1.96050789906015	1.24494817755224	1.33696536228718	-0.000224264984465252	-0.00590155103550008
0.26	1.51689661234725	7.45514294224631	823.173001511884	-57.2674811257067	1.94049436273647	1.2232411797126	1.31118918102677	-0.000246372507655144	-0.00575648776728044
0.27	1.46974610052393	7.43129279709212	823.196871073095	-57.3937155551679	1.92118115785728	1.20643620734694	1.29155844687352	-0.000267548810436423	-0.00561000548863445
0.28	1.44032291662138	7.41366766011803	823.197017608528	-57.5191570047287	1.90277575263499	1.1944279387691	1.27792612080469	-0.000287529602216897	-0.00546239773294757
0.29	1.42724086202155	7.40324764217491	823.17212890732	-57.6433962279012	1.88547615751234	1.18691716496259	1.2698997655731	-0.000306066147885	-0.00531405261140672
0.3	1.42854962632462	7.40079373638313	823.12220174873	-57.7660404192833	1.86946837683245	1.18345486838594	1.26689734539424	-0.000322928787343784	-0.00516545079452985
0.31	1.44191253378506	7.40682731613857	823.048543021685	-57.8867165933033	1.85492433363891	1.18348716420933	1.26820418181143	-0.000337909659532159	-0.00501716122449268
0.32	1.46477730333321	7.42161524089189	822.953694664802	-58.0050716584305	1.84200024817033	1.18639867720499	1.2730280061267	-0.000350824641139944	-0.00486983439208695
0.33	1.49453210000543	7.44516099099556	822.841288140227	-58.1207696860088	1.83083544096876	1.1915523228749	1.28054954152227	-0.000361514535172548	-0.00472419307951658
0.34	1.52864096385904	7.47720209971954	822.715839095279	-58.2334871446116	1.82155152263463	1.19832392530796	1.28996662590466	-0.000369845568865747	-0.00458102055299917
0.35	1.56475460962868	7.51721399003124	822.58249685882	-58.3429070665384	1.81425192212616	1.2061306005501	1.30053050503321	-0.000375709286051628	-0.00444114628243769
0.36	1.60079447224554	7.56442016752799	822.446766151977	-58.4487132158785	1.80902169300578	1.21445232896613	1.31157354297608	-0.000379021946474545	-0.0043054293640966
0.37	1.6350096235489	7.61780857939399	822.314219675772	-58.5505853290198	1.80592752226882	1.22284660327602	1.32252817678207	-0.00037972357264791	-0.00417473992114988
0.38	1.66600771970396	7.67615382994466	822.19022001782	-58.6481963993691	1.80501785071234	1.23095644627354	1.33293745457849	-0.00037777681091348	-0.00404993885136359
0.39	1.69276239670829	7.73804484967099	822.079667679485	-58.7412127881506	1.80632299967124	1.23851242573397	1.34245791894662	-0.000373165793501211	-0.0039318563767128
0.4	1.71460047705781	7.80191754552029	821.986789169837	-58.829297680332	1.80985518953424	1.24532954260973	1.35085591641088	-0.000365895198142515	-0.00382126992265104
0.41	1.73117297154567	7.86609190976078	821.914975348565	-58.9121180931899	1.81560833409851	1.25130002804099	1.35799862334772	-0.000355989697010184	-0.00371888191186749
0.42	1.74241416454197	7.92881302382507	821.866675897757	-58.9893553130766	1.82355750448297	1.25638315705993	1.36384118028874	-0.000343493964369956	-0.00362529809610146
0.43	1.74849308473936	7.98829535045458	821.843351361943	-59.0607183132713	1.83365797902413	1.26059317972359	1.36841132880023	-0.000328473370957895	-0.00354100706800109
0.44	1.74976142562604	8.04276965040123	821.845480006163	-59.1259594206899	1.8458438320262	1.26398639570824	1.37179286156899	-0.000311015433421327	-0.00346636159196083
0.45	1.74670153959046	8.09053177876164	821.872613145835	-59.1848912757983	1.86002606356967	1.26664827110422	1.37410904458056	-0.000291232011954309	-0.00340156236810503
0.46	1.73987754046449	8.12999250430461	821.92346986598	-59.237403986047	1.87609033232152	1.26868133284701	1.37550697018257	-0.00026926216318958	-0.00334664479789711
0.47	1.7298918666577	8.15972735178887	821.996060339037	-59.2834813181628	1.89389441944989	1.27019439373054	1.37614357189398	-0.000245275464648344	-0.00330146925511027
0.48	1.71734893395985	8.17852529748296	822.087826330128	-59.32321480959	1.91326561908156	1.27129347507257	1.37617379574263	-0.000219475538784817	-0.00326571528494164
0.49	1.7028267919669	8.18543496382701	822.19578789842	-59.3568147965925	1.93399831311143	1.27207461856802	1.37574119626166	-0.000192103426590306	-0.00323888006052939
0.5	1.68685703247786	8.17980677865527	822.316686619683	-59.3846175409534	1.95585203900892	1.27261862454074	1.37497102247124	-0.000163440400516825	-0.00322028132416535
0.51	1.66991261544586	8.16132941097685	822.447117649195	-59.4070878684002	1.97855039211062	1.27298762821802	1.3739656907788	-0.000133809771273806	-0.00320906493430023
0.52	1.65240280242016	8.13005869549972	822.583645348416	-59.4248169865414	2.00178111300134	1.27322333284106	1.37280241410168	-0.000103577238864035	-0.00320421703286683
0.53	1.63467403385035	8.08643723893855	822.722899727857	-59.4385154049452	2.02519769157116	1.27334665910536	1.37153267182582	-7.31493693806582e-05	-0.0032045807435347
0.54	1.61701536106892	8.03130298721811	822.861653339113	-59.4490011144335	2.04842276972608	1.27335854243562	1.37018316183462	-4.29698476248474e-05	-0.00320887721214433
0.55	1.59966694388303	7.96588524277157	822.996880247194	-59.4571833810077	2.07105354446744	1.27324160856028	1.3687578690302	-1.35132607533991e-05	-0.00321573070630303
0.56	1.58283014101942	7.89178696527839	823.125800157541	-59.4640426627287	2.09266926478092	1.27296247793224	1.36724090753926	1.47236939857342e-05	-0.00322369740125558
0.57	1.56667783797977	7.8109526662785	823.245911562399	-59.4706072628344	2.11284078487234	1.27247448424376	1.36559983790706	4.12335209559827e-05	-0.00323129739196937
0.58	1.55136385574068	7.72562180449667	823.35501789109	-59.4779273932645	2.13114199064601	1.27172063513453	1.3637892174728	6.55115218904465e-05	-0.0032370493846642
0.59	1.53703054195712	7.63826827811491	823.451250157276	-59.4870473485492	2.14716276583627	1.27063668828895	1.36175420372541	8.70712582963866e-05	-0.00323950743257857
0.6	1.52381394026123	7.55152735492248	823.53308861819	-59.4989764928393	2.16052302003163	1.26915425848429	1.3594340898029	0.00010546129166378	-0.00323729898907675
0.61	1.51184623907398	7.46811213461967	823.599384668541	-59.5146597558187	2.17088717449973	1.26720390690954	1.35676570295097	0.000120282465644174	-0.00322916345604697
0.62	1.50125549627696	7.39072234756743	823.649382783474	-59.534948328169	2.17797840414783	1.26471819049633	1.35368663688964	0.000131204884512748	-0.00321399030853717
0.63	1.49216289956019	7.3219489078816	823.682741000864	-59.5605712527449	2.18159187450955	1.26163466446971	1.35013831551392	0.000137983679857848	-0.00319085578160844
0.64	1.48467803711408	7.26417810633277	823.699547372465	-59.5921086276297	2.1816061983515	1.25789883528502	1.3460688976035	0.000140472649606778	-0.0031590570188645
0.65	1.47889280692507	7.21949960817391	823.700329154432	-59.6299671702525	2.17799237141227	1.25346705402426	1.34143603106044	0.000138634903374825	-0.00311814251298084
0.66	1.47487467802503	7.18962248239004	823.686051334055	-59.6743589308866	2.17081953169359	1.24830932361792	1.33620945262971	0.000132549754873087	-0.00306793762797321
0.67	1.47266003233319	7.17580331572991	823.658101421968	-59.7252839775669	2.16025701899697	1.24241196929757	1.33037340801435	0.000122415261086764	-0.00300856399348956
0.68	1.47224826593008	7.17879005669599	823.618258236462	-59.7825178882302	2.14657238514305	1.23578009366991	1.32392884138516	0.000108546011204488	-0.00294045161584716
0.69	1.47359722393958	7.19878460682028	823.568643571955	-59.8456048641666	2.1301252116584	1.22843970960839	1.31689527651755	9.13660052520187e-05	-0.00286434267005763
0.7	1.47662039833587	7.23542635941414	823.511657039171	-59.913857207633	2.11135681927928	1.22043942006793	1.30931228830527	7.13967205008999e-05	-0.00278128612943403
0.71	1.48118615044138	7.28779792292373	823.449895828354	-59.9863617754256	2.09077618907376	1.21185149827416	1.30124044715133	4.92407290636127e-05	-0.0026926226569407
0.72	1.48711904802902	7.35445321057547	823.386062514161	-60.0619938247509	2.06894264372976	1.20277221843248	1.29276161315067	2.55614878948906e-05	-0.00259995952085559
0.73	1.49420324797378	7.4334669903391	823.322865143708	-60.1394384102384	2.04644604452254	1.1933212991363	1.28397846462658	1.06015756112755e-06	-0.00250513569469289
0.74	1.50218772338539	7.52250393227392	823.262914613291	-60.2172191810512	2.02388542998336	1.18364035060347	1.27501316784941	-2.35494963890144e-05	-0.00241017773857023
0.75	1.5107930385684	7.61890422555932	823.208624676157	-60.2937340811332	2.00184714304751	1.1738902625166	1.26600513159776	-4.75669200686157e-05	-0.0023172475112103
0.76	1.51971932003883	7.71978202096136	823.162119815869	-60.3672970952962	1.98088355360682	1.1642475293614	1.25710783996788	-7.0330025494694e-05	-0.00222858319962102
0.77	1.52865505569508	7.82213233296732	823.125155699859	-60.4361848338953	1.96149347557619	1.15489958054568	1.24848481623584	-9.12385953252886e-05	-0.00214643554719023
0.78	1.53728637073414	7.92294164387087	823.099056070334	-60.4986864348775	1.94410529891537	1.14603925734972	1.24030483491269	-0.000109774624420303	-0.00207300148223075
0.79	1.54530646806508	8.01929730987141	823.084668838898	-60.5531550080695	1.92906370979566	1.13785865086417	1.23273656257295	-0.000125518538576916	-0.00201035757408699
0.8	1.55242497096812	8.10849098155785	823.082342945522	-60.59805867314	1.91662066399237	1.13054257706611	1.2259428641592	-0.000138160459647642	-0.00196039585531578
0.81	1.55837695478803	8.18811160760987	823.091926338319	-60.6320291649338	1.90693102256232	1.12426201009064	1.22007505393296	-0.000147505977588643	-0.00192476453628736
0.82	1.56293149261574	8.25612416688617	823.112784328391	-60.6539060067421	1.90005297229247	1.11916781695677	1.21526739358194	-0.000153476225239095	-0.00190481600083359
0.83	1.56589956061484	8.31093103418482	823.143836647938	-60.6627743856677	1.89595305672042	1.11538513303709	1.21163214035443	-0.000156102407236029	-0.00190156421381504
0.84	1.56714114952317	8.3514137836148	823.183610831734	-60.6579950998504	1.89451535852544	1.11300868664437	1.20925542388199	-0.000155515283797114	-0.00191565330583901
0.85	1.56657141193143	8.37695421930401	823.230309061599	-60.6392252738334	1.89555412199728	1.11209932536959	1.20819418260848	-0.000151930425937339	-0.00194733864443525
0.86	1.56416564610422	8.3874344415851	823.281885342625	-60.6064289390017	1.89882890388978	1.11268192107563	1.20847432316415	-0.000145630315857218	-0.00199648117663427
0.87	1.55996288499995	8.38321675325315	823.336129780803	-60.5598770294347	1.90406120696357	1.11474474169868	1.21009018460483	-0.000136944544137115	-0.00206255526003109
0.88	1.55406783365588	8.36510513313651	823.39075675705	-60.5001368249539	1.91095149232817	1.1182402844842	1.2130053017786	-0.000126229439969563	-0.00214466961502059
0.89	1.54665088878991	8.3342908065916	823.443493895022	-60.4280513560375	1.91919548773749	1.12308747549376	1.21715437645984	-0.000113848455839213	-0.00224160045795967
0.9	1.53794598912249	8.29228508587712	823.49216886073	-60.3447097427213	1.92849880655219	1.12917506192116	1.22244628922553	-0.000100154516101304	-0.00235183534155986
0.91	1.52824608849747	8.24084310868211	823.534791185945	-60.2514098460501	1.9385890576498	1.13636596309401	1.228767925972	-8.54753401309796e-05	-0.00247362576180712
0.92	1.51789611789087	8.18188235271691	823.56962646621	-60.1496149433571	1.94922484663057	1.14450230694892	1.23598855507701	-7.01024823664075e-05	-0.00260504621487226
0.93	1.5072834047923	8.11739984294433	823.595260455335	-60.0409063791194	1.96020132585608	1.15341086272286	1.24396447663864	-5.42845161350075e-05	-0.00274405712401254
0.94	1.4968256439333	8.04939180312685	823.610650781397	-59.926934278198	1.97135222525968	1.16290858666552	1.25254367356563	-3.82244513389592e-05	-0.00288856892167776
0.95	1.48695665403307	7.97977915440418	823.615164271505	-59.8093684309132	1.98254856650985	1.17280802277106	1.26157022286406	-2.20811446445131e-05	-0.00303650457598188
0.96	1.47811030151165	7.91034176069682	823.608598222051	-59.6898513692738	1.99369450944704	1.18292234039833	1.27088826981479	-5.97416050950993e-06	-0.00318585799604201
0.97	1.47070311356626	7.84266370213341	823.591184410316	-59.569955457147	2.00472098308924	1.19306983994969	1.28034542235076	1.00087049705209e-05	-0.00333474603182037
0.98	1.46511622934256	7.7780911667528	823.563575223316	-59.4511455270202	2.01557789850156	1.20307781115884	1.28979548200436	2.58021994832352e-05	-0.00348145218684831
0.99	1.46167743985582	7.71770383231466	823.526811975892	-59.3347482308565	2.02622581647333	1.21278568115432	1.29910048588035	4.13537404775496e-05	-0.00362446066402906
1	1.46064413716214	7.66229990711158	823.482276279606	-59.2219288556712	2.03662794365534	1.22204743744475	1.30813208674731	5.66139414269712e-05	-0.00376247993571092
1.01	1.46218802545686	7.61239434913152	823.431626166653	-59.1136759125258	2.04674325699731	1.23073335166976	1.31677234235222	7.15284970295845e-05	-0.00389445563382829
1.02	1.46638243795681	7.56822921729086	823.376719513915	-59.0107933689715	2.05652141459903	1.23873106203347	1.32491401867448	8.60322138791915e-05	-0.00401957315523463
1.03	1.47319305247346	7.52979464836642	823.319528087725	-58.9138999877037	2.06589991394498	1.24594609560927	1.33246053456344	0.000100045735222197	-0.00413725093205063
1.04	1.48247270631363	7.4968586109094	823.26204617434	-58.823434884266	2.07480372345487	1.25230192691252	1.33932568758424	0.000113475225710659	-0.00424712579014781
1.05	1.49396087993179	7.46900336601655	823.206198214333	-58.7396681459205	2.08314736152604	1.25773967756929	1.34543330409899	0.000126214979792968	-0.00434903217954323
1.06	1.50728825220071	7.44566645970431	823.153750073673	-58.662715178434	2.09083915175671	1.2622175650223	1.35071695203996	0.000138152622922053	-0.00444297728535717
1.07	1.52198653281602	7.42618407197019	823.106228530023	-58.5925533765857	2.09778716650342	1.26571020728089	1.35511984376226	0.000149176315176624	-0.00452911410397375
1.08	1.53750355462301	7.40983463848501	823.064853220313	-58.5290397489355	2.1039062035179	1.2682078865395	1.35859503967803	0.000159183166379042	-0.0046077144942179
1.09	1.55322336690279	7.3958808252063	823.030484696822	-58.4719282609524	2.10912503776654	1.26971586722044	1.36110604142352	0.000168087949216989	-0.00467914399724348
1.1	1.56849081738804	7.38360815681799	823.003591405251	-58.4208858784909	2.11339316214129	1.27025385314033	1.36262783594218	0.000175831163764061	-0.00474383988175335
1.11	1.58263985495827	7.37235886091445	822.984237377928	-58.3755065746957	2.11668627893709	1.26985565303667	1.36314841860168	0.000182385566030359	-0.00480229344274707
1.12	1.59502453729781	7.36155977780229	822.97209128906	-58.3353228817803	2.11900992356535	1.2685691023808	1.36267078382677	0.000187760418590495	-0.00485503709869956
1.13	1.60505150087803	7.35074349015145	822.966456315978	-58.29981489622	2.12040078092321	1.26645626120985	1.36121532567629	0.000192002938294192	-0.00490263633419635
1.14	1.61221245879292	7.33956213978428	822.96631906321	-58.2684169533039	2.12092547538136	1.26359387227609	1.35882253915188	0.000195196682972238	-0.00494568606309967
1.15	1.61611515078851	7.3277937151318	822.970414707157	-58.2405224490526	2.12067685588065	1.2600740219125	1.35555585789233	0.000197456909662165	-0.00498481057841661
1.16	1.61651109506448	7.31534090786747	822.977304575793	-58.2154874838126	2.11976803495399	1.25600489987324	1.35150440886953	0.000198923223110996	-0.00502066593959001
1.17	1.61331849766852	7.3022229462353	822.985461649377	-58.1926341189629	2.11832465224141	1.25151150780296	1.34678541481901	0.000199750088196803	-0.00505394344709276
1.18	1.60663877415911	7.28856110934584	822.993359002709	-58.1712540706621	2.11647599993721	1.24673612404559	1.34154593661851	0.000200095980341837	-0.00508537277844924
1.19	1.59676533642786	7.27455890253104	822.999556040145	-58.1506136148247	2.11434575520551	1.24183830119745	1.33596362738626	0.000200112076896733	-0.00511572340873674
