Time [s]	GRFml [N]	GRFap [N]	GRFv [N]	Mml [N.m]	Map [N.m]	Mv [N.m]	Mfree [N.m]	COPml [m]	COPap [m]
0.01	0.0544164728140179	1.42812170761685	938.486889138576	-22.5665810923691	30.6645782537231	0.652458946445874	-0.700461626305336	-0.000195744358426286	-0.00650172681370736
0.02	-0.0903736409433624	1.60136103488662	937.98834931887	-22.6507895946051	30.808875520521	0.697948939680609	-0.748438617558035	-0.000296726132304248	-0.00632866106258351
0.03	-0.253343592782078	1.7423234104043	937.555777223095	-22.7225715491707	30.9675692286235	0.742575373978177	-0.794060672465595	-0.000382837574183559	-0.00614252150823141
0.04	-0.443396541161886	1.82522841834158	937.237890649517	-22.7716443920757	31.1495597958606	0.785383303949037	-0.835311287097548	-0.000441905705286794	-0.00593548660276189
0.05	-0.65769580701627	1.83731125447977	937.056281301634	-22.7913361683877	31.3572651692584	0.824967712121777	-0.870431545990901	-0.000466268278907278	-0.00570570363385836
0.06	-0.881638305877431	1.78109743802444	937.001790522413	-22.7796007763192	31.5859891202102	0.859542644993804	-0.898065354959634	-0.000453953179060163	-0.00545784052703008
0.07	-1.09322541601726	1.67283718682909	937.039555282289	-22.739196921754	31.8252622279439	0.887242572888952	-0.917405700934226	-0.000408756768720653	-0.00520183756682147
0.08	-1.27035447614381	1.53778513825783	937.120992626632	-22.6769595845534	32.0617614494068	0.906541925393672	-0.928285668769951	-0.000339181931947263	-0.00495021704048521
0.09	-1.39848155900145	1.40382677728232	937.198930300748	-22.6022934589681	32.2829443531564	0.916638162073344	-0.931169640606586	-0.000256461235513483	-0.00471473799105648
0.1	-1.47591859361918	1.29522892228144	937.241268182403	-22.525208812482	32.4802918184322	0.917665722653085	-0.927035410370677	-0.000172117684411388	-0.00450341354247369
0.11	-1.51479390798123	1.22800094910126	937.239164358863	-22.4543473425181	32.6511296739908	0.910677578360961	-0.917179325128023	-9.56408373936624e-05	-0.00431884844069036
0.12	-1.53717337934278	1.20768258963826	937.207528212494	-22.3954727419063	32.7984148619607	0.897416464850737	-0.903004959279231	-3.28450129554181e-05	-0.00415847475037834
0.13	-1.56751051393393	1.22962039715843	937.177981869435	-22.3508115501191	32.9285334541847	0.879964549408276	-0.885858374444179	1.46756779338952e-05	-0.00401664160439408
0.14	-1.62388773324067	1.28122450019078	937.186691205865	-22.319428947647	33.0478626350231	0.860384819244753	-0.866948744919074	4.88515404382106e-05	-0.00388784245289242
0.15	-1.71097577975107	1.34543520044633	937.260923640289	-22.2985428554916	33.1593394050457	0.840446949528472	-0.847353641536139	7.3396385248059e-05	-0.00376989216440604
0.16	-1.81711650613805	1.40463387268218	937.408481415921	-22.2853831898787	33.2603455462914	0.821481710440373	-0.828072354480698	9.15451261433997e-05	-0.00366580641638614
0.17	-1.91661667979423	1.4443603307646	937.613244936762	-22.2789850277709	33.342797985038	0.804357300471036	-0.810074878840458	0.000104007390752892	-0.00358355228021034
0.18	-1.97668276903618	1.45631084494319	937.838214451615	-22.2812600236819	33.3955543352657	0.789539576151891	-0.794304436219274	0.000107878273501005	-0.00353360373774686
0.19	-1.96697629617338	1.44014185388172	938.03516558913	-22.2968730613517	33.4083870353374	0.777192405618176	-0.781620053565858	9.69957008877254e-05	-0.00352506599928765
0.2	-1.86897457844795	1.40365911559279	938.157969562921	-22.3318335292543	33.3761723658339	0.767285740152635	-0.772696472746391	6.37720084467608e-05	-0.00356170323962496
0.21	-1.68239647119637	1.36114717582527	938.175408493183	-22.3911765554831	33.3018195030477	0.759692509332833	-0.767916051876833	1.99599716310672e-06	-0.00363928751259351
0.22	-1.42683275016005	1.32996064722364	938.079403997997	-22.47648867706	33.196878826547	0.754260803223894	-0.7672852157464	-9.0304386650808e-05	-0.00374524795895337
0.23	-1.13810991627193	1.3260063582444	937.886063855996	-22.5841675136074	33.0795614302487	0.750845790535152	-0.770392214911075	-0.000208958175313523	-0.00386081003079436
0.24	-0.860394186231223	1.35921562184782	937.629422783108	-22.7051211719834	32.970777868018	0.749286468130818	-0.776406676363538	-0.00034346842067523	-0.00396497374190991
0.25	-0.636193274735487	1.43030818333723	937.350346077135	-22.8261558570966	32.8894491428664	0.749326349889585	-0.784116547429682	-0.000478758251305944	-0.00403909025162863
0.26	-0.496937094295486	1.52992261019596	937.084761635746	-22.932724517529	32.8485423070487	0.750506157069811	-0.792007141414569	-0.000598394914661071	-0.00407064715132238
0.27	-0.456598739833639	1.64054096084432	936.855457622739	-23.0122236664702	32.8529929846293	0.752088367777122	-0.798400929074347	-0.000688318118832076	-0.00405518351093792
0.28	-0.509938337953914	1.74076878122423	936.670063043905	-23.0568125693688	32.9000253170595	0.753086841833229	-0.801679442135232	-0.000739910361406082	-0.00399588762139108
0.29	-0.635666505182724	1.81076069553253	936.525194850522	-23.0648749222437	32.9816042602528	0.752451389548557	-0.800587417325063	-0.000751467625335844	-0.00390115592727863
0.3	-0.803482550588634	1.83720315013643	936.414246090004	-23.0407017792448	33.0881122032592	0.749395162113258	-0.794574679526077	-0.000727680926666752	-0.00378098128588139
0.31	-0.982906950212959	1.81642667129193	936.334977666108	-22.9925816876013	33.2120208243475	0.743772698759215	-0.784080752723634	-0.000677420354330605	-0.00364333165843805
0.32	-1.1513794186452	1.75485583626503	936.293471743908	-22.9300173710786	33.3504014352422	0.736355523349738	-0.770639149088578	-0.000610673095053582	-0.00349161981090684
0.33	-1.29936055163527	1.66686841587111	936.302840488181	-22.8610508491855	33.5055308360644	0.728847373951076	-0.756697991086556	-0.000535721907664044	-0.00332399549220663
0.34	-1.43109020568622	1.57090099356423	936.377475425528	-22.7905756470788	33.6834607748402	0.72354976521111	-0.745128349097829	-0.000457481570167562	-0.00313463338017161
0.35	-1.56096515176015	1.48504141177175	936.525508943406	-22.72009268969	33.8910416269576	0.722715547957794	-0.738502815268643	-0.000377414716383861	-0.00291659996507665
0.36	-1.7068169330187	1.42328965098817	936.742790164385	-22.6487984943904	34.1323497276304	0.727767425174911	-0.738333765951271	-0.000294828270265723	-0.00266541806504611
0.37	-1.88228897298053	1.39324449512101	937.010912092864	-22.5754091307786	34.405641347209	0.738649652166491	-0.744516010176078	-0.000208854418763949	-0.00238223269425236
0.38	-2.09073097399573	1.39541433679049	937.300121458132	-22.4999086624565	34.7018038834473	0.753575709084387	-0.755188461151351	-0.000120233784276169	-0.00207557731821378
0.39	-2.32247669990864	1.42390288546049	937.576071099381	-22.4245325946039	35.0048445996733	0.769320120830851	-0.767111951859026	-3.21940214964567e-05	-0.00176112382067001
0.4	-2.55624541508352	1.46802897131145	937.808061201687	-22.3536760359049	35.2943732718388	0.782013528859065	-0.776490512255179	4.98479014946485e-05	-0.00145936901780436
0.41	-2.76410684724734	1.51449032032254	937.976062940404	-22.2928727670951	35.5494649182307	0.788208319408694	-0.780003206941425	0.000119538330216606	-0.00119180316337675
0.42	-2.91842048845115	1.54983134571033	938.07442310872	-22.2473320543254	35.7528971414242	0.78586730551672	-0.775727268676887	0.000171226681487391	-0.000976546597636518
0.43	-2.99871836246209	1.56305051426014	938.111384410232	-22.220623521449	35.8946570380615	0.774942200529209	-0.763659394094064	0.000201345434949207	-0.000824596084605389
0.44	-2.99671801972928	1.54808912705462	938.104939484096	-22.2139591287426	35.9738311664045	0.757351071766049	-0.745675104252079	0.000209067441193533	-0.000737645473213644
0.45	-2.91835796362971	1.50572756646643	938.076600118967	-22.2262275287157	35.998456934049	0.7363792856205	-0.724956735226243	0.000196115197911295	-0.000707993465254408
0.46	-2.78263144466553	1.44424457845866	938.045093932259	-22.2546285901071	35.9834771770085	0.715730378895125	-0.705096158590796	0.00016593298058154	-0.000720468833645349
0.47	-2.61775763279789	1.37826225343446	938.021725234961	-22.2955577727919	35.9474266676021	0.698562410041805	-0.689173277987797	0.000122635435433005	-0.000755773524926562
0.48	-2.45569785412356	1.32560203582797	938.008335003811	-22.3453633707367	35.9087472889989	0.686822976189978	-0.679094353587906	7.01543482628519e-05	-0.000794325890351222
0.49	-2.32618167672158	1.3026397061434	937.997832401569	-22.4007304974177	35.8826162692202	0.681058658918875	-0.67535885951991	1.184288630518e-05	-0.000819660342046058
0.5	-2.25134233516402	1.31932711138109	937.976549399493	-22.4586592619017	35.8789172147629	0.680683716606622	-0.677259957534422	-4.94468861814701e-05	-0.000820682084103241
0.51	-2.24188020329684	1.37543351519187	937.927446776858	-22.5162009167514	35.90160287062	0.684526912778992	-0.683376066577354	-0.000111009811255003	-0.000792472857903348
0.52	-2.29543107564267	1.45941548640221	937.83345647789	-22.5702114476501	35.949332990872	0.691397148353701	-0.692132218635672	-0.000169947184939789	-0.000735744169771457
0.53	-2.39750114084178	1.55061945202376	937.680704219273	-22.6173427264572	36.0170268460274	0.700440969771615	-0.702222200406373	-0.000223076939819378	-0.000655313196307905
0.54	-2.52490885316728	1.62446412210868	937.461647258538	-22.6543435936859	36.0978811337823	0.71118496850612	-0.712771702093773	-0.000267168454322064	-0.000558082628426992
0.55	-2.6511566111474	1.65921627667428	937.178059257753	-22.6785621206586	36.1854332692098	0.723307212442801	-0.723246470946542	-0.000299388845538151	-0.00045096955085544
0.56	-2.75264048240595	1.64235137822245	936.843370952756	-22.6884162384556	36.2753268362417	0.73629971189834	-0.733215692106182	-0.00031772940599728	-0.000339128326575511
0.57	-2.81426302742555	1.57452097235544	936.483467530782	-22.6835971759372	36.3665046581275	0.749222496613611	-0.742128545950077	-0.000321190060560639	-0.000224721742616119
0.58	-2.83301052903682	1.46983121147682	936.135030394899	-22.6648945373109	36.4616054777215	0.760698532088527	-0.749236537442776	-0.000309631966039836	-0.000106439723748575
0.59	-2.818469701143	1.35224021119314	935.84105491617	-22.6337242681942	36.5664073216862	0.769183740839578	-0.75371163325408	-0.000283396644481626	2.00845110708281e-05
0.6	-2.79002148099889	1.24904499261585	935.644095662334	-22.5916029392808	36.6882935404732	0.773418292510179	-0.754909062595924	-0.000242935360846297	0.000160914784560706
0.61	-2.77135304221391	1.18329406745507	935.578654682263	-22.5398548669521	36.8339377764406	0.772877784615682	-0.752648919110736	-0.000188712775335609	0.000321661466547385
0.62	-2.7836970888201	1.16728647561622	935.66450520796	-22.4797309697233	37.0066738197868	0.768031811046608	-0.747375341822825	-0.000121522922033712	0.000504963767402722
0.63	-2.83959520355975	1.19902779391998	935.902451661266	-22.4129061447693	37.2042375730694	0.760286977520155	-0.740102671548872	-4.3137754846212e-05	0.000708274732568126
0.64	-2.93886517903547	1.26270056443382	936.273237472855	-22.3421088814747	37.4176210768155	0.751612939827735	-0.732151572099595	4.29955258567372e-05	0.000922705749031194
0.65	-3.06786743954567	1.33309293666351	936.739441479305	-22.2715307590235	37.6315833190679	0.743973686700383	-0.72477196774316	0.000131379123071929	0.00113351350556157
0.66	-3.20229133854621	1.38281216094777	937.249668117268	-22.2067207783378	37.8269357449767	0.738761954658874	-0.718800873441768	0.000214703893463897	0.00132237856635203
0.67	-3.31277232297646	1.39029358546569	937.744308261143	-22.1538674942648	37.9841868279595	0.736432962021181	-0.714488775708058	0.00028478223898909	0.001471057480812
0.68	-3.37195141404991	1.34633780424205	938.162455002128	-22.1186231486424	38.087679323387	0.736457668781816	-0.711555649161941	0.00033399395520417	0.00156549900649161
0.69	-3.3612664049323	1.25726779704284	938.449800721506	-22.1048207655087	38.129158252656	0.737598180224256	-0.709440567366862	0.000356862697929561	0.00159929961826205
0.7	-3.27587169033412	1.14371593386794	938.567154061543	-22.1134984129381	38.1098445142247	0.73839548996858	-0.707630254546853	0.000351311252514308	0.00157553071186933
0.71	-3.12655957133233	1.03528241138808	938.498534314333	-22.1425538443556	38.0405074811096	0.737693344193999	-0.705924437331486	0.000319226007197027	0.00150644724700938
0.72	-2.93825909934224	0.962504228980945	938.256959311773	-22.1871470646641	37.9395777193788	0.735021480374836	-0.704528381952224	0.000266160599358467	0.00141120791306532
0.73	-2.74544703204607	0.948385966306304	937.885623620436	-22.2407272921463	37.8298330344647	0.730721466859639	-0.703939441069645	0.000200255724146281	0.00131227828594271
0.74	-2.58546145488258	1.00191839696815	937.452678472972	-22.2963717393421	37.7344834937961	0.725793796408682	-0.704682655296833	0.000130666482242026	0.0012314761964059
0.75	-2.49114419093227	1.11547211138241	937.039390677635	-22.3480507504878	37.6735164274448	0.721541545405794	-0.707015521103095	6.59052173384023e-05	0.00118658706188113
0.76	-2.48438052875453	1.26683280951997	936.723649166222	-22.3914954566405	37.6609741230297	0.719151126322943	-0.71073825143913	1.24963722530902e-05	0.00118918053445838
0.77	-2.57192419760093	1.42526162728229	936.562761125679	-22.4245067911607	37.703520725459	0.719362493051355	-0.715205120343347	-2.57850768673462e-05	0.0012438367728605
0.78	-2.7444107286059	1.55974386866551	936.580332756665	-22.4467377465357	37.8003251734781	0.722335709307696	-0.719548116514552	-4.80057457526994e-05	0.0013486016297633
0.79	-2.97875523833735	1.64693634008015	936.761237275818	-22.4591273638179	37.9440362305301	0.727735566270725	-0.723028443133937	-5.55880911772277e-05	0.00149625621820404
0.8	-3.24335115890312	1.67647226782252	937.056379576454	-22.4632164605215	38.1224982214339	0.734965463004697	-0.725365120598818	-5.145154997932e-05	0.00167594916986658
0.81	-3.50482740996012	1.65219616203599	937.395972939319	-22.460531442364	38.320843372299	0.743424274425737	-0.72688520838579	-3.90138609890345e-05	0.00187485621997163
0.82	-3.73476282878265	1.58926296488302	937.707466149831	-22.4521283873702	38.5236520337473	0.752660156407561	-0.728404409423916	-2.12493572562256e-05	0.0020797037674059
0.83	-3.91480139523115	1.50836273080784	937.933034026747	-22.4383077034023	38.7169385436666	0.762352188751068	-0.730856742444613	5.6676229376329e-08	0.00227811926261651
0.84	-4.03904738212741	1.42915959118346	938.042018550229	-22.4184851034321	38.8897590920274	0.772137527110266	-0.73480194452505	2.47575549061629e-05	0.00245979423314557
0.85	-4.1133236876125	1.36509737530013	938.035544921019	-22.3912390034063	39.0352453666668	0.781378109256568	-0.740001274453529	5.44085905866964e-05	0.00261737545587531
0.86	-4.15166062000893	1.32105333662133	937.94294801455	-22.3546048284003	39.1508763031575	0.788992645580594	-0.745238016059827	9.18609727174058e-05	0.00274690410056022
0.87	-4.17104893221829	1.29420949665118	937.811788574956	-22.3066915454577	39.2378597585965	0.793454337021642	-0.748472840841534	0.000140350957493651	0.00284759110967026
0.88	-4.18588240163459	1.27738532973487	937.694555113508	-22.2466142466393	39.2996434178967	0.792986926281582	-0.747301972835298	0.000202168597098096	0.002920814156264
0.89	-4.20354372488148	1.26332765994906	937.635474249177	-22.175580052993	39.3398038182675	0.785913494302047	-0.739577921768541	0.000277165102744892	0.00296844930307905
0.9	-4.22224854373054	1.24830274837419	937.66033985995	-22.0978001481552	39.3598114949235	0.771056874064227	-0.724000044165216	0.000361520605384857	0.00299093708588999
0.91	-4.23163830090372	1.23376972048589	937.771223821565	-22.0208221213216	39.3573351065772	0.748076291159363	-0.700500999028226	0.000447252175523438	0.00298570503386197
0.92	-4.2158618618411	1.22572144913026	937.946680447761	-21.9549551761846	39.3257264257077	0.717650451505778	-0.670331049987999	0.000522827665584868	0.00294660360604554
0.93	-4.15821261905995	1.23214201237983	938.14689846088	-21.911701628517	39.2550755574874	0.681466568305522	-0.635841115242357	0.000574965446337838	0.00286479727962896
0.94	-4.0459901276005	1.25964719545947	938.322405042705	-21.9014387367013	39.134787435878	0.64202741791712	-0.600050566733404	0.000591326128437264	0.00273112466854081
0.95	-3.87426144790418	1.31056065073215	938.424483220201	-21.9308914000344	38.957138682125	0.602328871548849	-0.566131600440046	0.00056347435866666	0.00253943636531112
0.96	-3.64761034177527	1.38141626606474	938.415392599729	-22.001077451881	38.7208986207143	0.565480849845092	-0.536940917528067	0.000489335285203452	0.00229001946750784
0.97	-3.3796393126226	1.46330904756459	938.276667644559	-22.1063288802422	38.4339775495252	0.534344137852524	-0.514689946960946	0.000374457253964788	0.00199207663640144
0.98	-3.09067800223312	1.5438776240976	938.014094296498	-22.2347155454225	38.114246825451	0.511236953431276	-0.500785395122281	0.000231694644563296	0.00166440263191781
0.99	-2.80458611460232	1.6102220525069	937.658392264249	-22.3698198510105	37.788100417213	0.497735069270345	-0.495814196738526	7.93383227821742e-05	0.00133383399326492
1	-2.54556117264634	1.6518779967838	937.261188495553	-22.4934619795953	37.4868636997348	0.49455789170794	-0.499609809062072	-6.1892213495951e-05	0.00103159620028159
1.01	-2.33550339759671	1.66308513383954	936.886603264184	-22.5887655357328	37.2416550171382	0.501512654025169	-0.511331366727949	-0.000172337126253974	0.000788177706153859
1.02	-2.19197012003527	1.64389563776366	936.59965649616	-22.6429305178727	37.077659232099	0.517469822573707	-0.529513607788986	-0.000236658044639682	0.000627704220102998
1.03	-2.12637032612024	1.60001924059066	936.453574763795	-22.6492201542998	37.0089290165907	0.540366457336637	-0.552092080797965	-0.000246291105217566	0.000562919933700501
1.04	-2.14203322159299	1.54158008020196	936.478652150217	-22.6078958525626	37.0347847650296	0.567269814073351	-0.576454393108007	-0.000200736132857537	0.000591811156709587
1.05	-2.23216331710088	1.48112560124818	936.67529126643	-22.5260647819371	37.1386548147917	0.594559917059895	-0.59959109064353	-0.000107573697868291	0.000696662745950649
1.06	-2.37827541202315	1.43129980541526	937.013077183985	-22.4165758694173	37.2898070440569	0.61828500054404	-0.618402675719758	1.86936785091518e-05	0.000845950448664812
1.07	-2.55015558086061	1.40261147472693	937.436348521785	-22.2961913333813	37.4479055440176	0.634697173652651	-0.630161403789155	0.000158744137046085	0.000998975923748091
1.08	-2.70840752326987	1.40170823601982	937.875128429287	-22.1832881870904	37.5697479217057	0.640898543884211	-0.633047100217409	0.00029117850464333	0.00111260060340829
1.09	-2.81007978501294	1.43049001050489	938.258975445317	-22.0953425970912	37.6170099458539	0.635452637968651	-0.626610220054773	0.000395564980933627	0.00114892607032085
1.1	-2.81684943111892	1.48623104332567	938.530702466049	-22.0464527212883	37.5634858983448	0.618782522904011	-0.611999122940747	0.000455432448692283	0.00108243581646839
1.11	-2.70411687848971	1.56263032382171	938.657099249654	-22.0451768708583	37.4002941839833	0.593212675481199	-0.591841035150943	0.000460843191302573	0.000905088030232815
1.12	-2.46860287081014	1.65143540649709	938.634596616142	-22.0929915219891	37.137877090439	0.562612731596008	-0.569775380545769	0.000410169726237197	0.000628200424050374
1.13	-2.13200399007513	1.74409082911859	938.488900791517	-22.1836740995025	36.8043054754943	0.531730291772842	-0.549761884475962	0.000310729957570755	0.000280649838782066
1.14	-1.73907722526473	1.83285606940872	938.268726257133	-22.3038482960101	36.4402329040831	0.505401017572776	-0.535369161260088	0.000178035074990923	-9.62488709547182e-05
1.15	-1.34998710246242	1.91106549840433	938.03474585009	-22.4347698085345	36.0915951460096	0.487850217482327	-0.529251343408864	3.35993335209839e-05	-0.000456062469091245
1.16	-1.02840514017787	1.97260701956745	937.845754420259	-22.555187933468	35.8016065626104	0.4822377670053	-0.532935577606826	-9.84604060291216e-05	-0.000755188209575264
