Time [s]	GRFml [N]	GRFap [N]	GRFv [N]	Mml [N.m]	Map [N.m]	Mv [N.m]	Mfree [N.m]	COPml [m]	COPap [m]
0.01	23.6515042676323	-12.613025212614	637.450107804937	-22.1933213975629	3.36697844852583	1.6153641612289	2.50429298612717	-0.0015785226772074	0.00204762273560419
0.02	23.0970368228031	-12.2770463817522	637.718376543055	-22.4978155621787	3.50011454783937	1.4097021870035	2.29102762195786	-0.0013635538475015	0.00251386780989257
0.03	22.5505317894838	-11.9492700294534	637.956190587878	-22.7930343668231	3.63107934376232	1.20830446457287	2.08134142535717	-0.00115325543209041	0.00296695271686798
0.04	22.0211339168414	-11.6368693120979	638.1477406544	-23.0714987487842	3.75773520908315	1.01503164476783	1.87923251343776	-0.000950866300589001	0.00339598714618548
0.05	21.5174569299187	-11.3464288586106	638.278816687048	-23.3263113008798	3.87812027328772	0.83344804043931	1.68844814965923	-0.000759261021610447	0.00379091983722992
0.06	21.0472861175986	-11.0836592417988	638.337678148683	-23.5514728563302	3.99052111751346	0.666678330526441	1.51232885287966	-0.000580862346615731	0.00414298742355541
0.07	20.6173220828099	-10.853163374851	638.315802661892	-23.7421491429864	4.09353173845795	0.51728803469995	1.35367310432883	-0.000417581196648996	0.00444509080685732
0.08	20.2329763734412	-10.658267718203	638.208461808335	-23.8948725149545	4.18609591107305	0.387193955913806	1.21463077113485	-0.000270784460741517	0.00469207820203135
0.09	19.8982262792076	-10.5009263258302	638.015082597965	-24.0076683830768	4.26753122097853	0.277608768251053	1.09663138785535	-0.000141289082182938	0.0048809208119208
0.1	19.6155324684181	-10.3817005245384	637.73936611272	-24.0801011130692	4.33753425494981	0.189021695545369	1.00035095748216	-2.93795630941481e-05	0.00501077461712255
0.11	19.3858196359136	-10.299811836108	637.389150395447	-24.1132394440707	4.39616763560248	0.121214950336632	0.925718185624452	6.51548236245327e-05	0.00508292937994115
0.12	19.2085171799831	-10.2532610176524	636.976021788893	-24.1095465201338	4.44383067542681	0.0733134451386879	0.871958307206365	0.0001429672190414	0.00510065307538046
0.13	19.081654298484	-10.2390021460393	636.514696405228	-24.0727040829085	4.48121633014194	0.0438633939668689	0.837670157952769	0.000205088908466666	0.00506894607101639
0.14	19.0020018965286	-10.2531577594448	636.02220987683	-24.0073839675088	4.50925779536217	0.03093390989739	0.820930099150411	0.000252857555854965	0.00499422409590137
0.15	18.9652523613168	-10.2912593459705	635.516967655652	-23.91898257515	4.52906847961578	0.0322346582774058	0.819414978474115	0.000287841578475112	0.00488395212370755
0.16	18.9662275515743	-10.3484969838375	635.017718669159	-23.8133353529334	4.54187919055758	0.0452420908054241	0.83053558277716	0.000311763920053096	0.00474625265639684
0.17	18.9991051885269	-10.4199626362456	634.542521131418	-23.6964284708618	4.54897620288965	0.0673267691810477	0.851572015340639	0.000326428092192357	0.00458951158622661
0.18	19.0576541116056	-10.5008733426304	634.10777012626	-23.574123913061	4.55164347012923	0.0958747567865643	0.879803046651376	0.000333648970539602	0.00442200301522233
0.19	19.1354694543664	-10.5867631112968	633.727352029748	-23.4519122351332	4.55111164888537	0.128396948255469	0.912622627753502	0.000335190448004873	0.00425155139672676
0.2	19.226199591535	-10.6736354428828	633.41198118764	-23.3347044848957	4.54851588616143	0.162621429005292	0.947638268114246	0.00033271164592432	0.0040852454675389
0.21	19.3237576153082	-10.7580718146085	633.168760230671	-23.2266714845148	4.54486354514697	0.196565401429117	0.982747701403013	0.00032772294944538	0.00392921402029552
0.22	19.4225110563726	-10.8372948505402	633.000988118732	-23.1311350951956	4.54101227971048	0.228584764709126	1.01619203257501	0.000321552659134441	0.00378846897594037
0.23	19.517444542608	-10.9091880390924	632.908220885677	-23.0505124989763	4.53765817203626	0.257400975441632	1.04658523699952	0.000315324545094765	0.00366681677520671
0.24	19.6042910843453	-10.9722765275132	632.886570723754	-22.9863111847587	4.53533306923451	0.282106240433655	1.07292135463694	0.000309946076523024	0.0035668350864914
0.25	19.6796287076503	-11.0256755746948	632.929211149868	-22.9391694306068	4.53440982542516	0.302149312083877	1.09456191083213	0.000306106614471403	0.00348990843614635
0.26	19.74094025373	-11.0690145940128	633.027041065526	-22.9089347956903	4.53511389061023	0.317305103994963	1.11120695612793	0.000304284439700249	0.00343631375258231
0.27	19.7866353475169	-11.1023453478342	633.169449823626	-22.894771579626	4.53753958434895	0.327631978793136	1.12285363849556	0.000304761178702802	0.00340534505921186
0.28	19.8160348219845	-11.1260428049236	633.345119826168	-22.8952874197889	4.54166943339712	0.333420867077398	1.12974641727614	0.0003076420155433	0.00339546567183631
0.29	19.8293192544158	-11.1407065299197	633.542803103001	-22.9086691638618	4.54739510885134	0.335140366958536	1.13232293423309	0.000312880043746063	0.00340447621382092
0.3	19.8274446874119	-11.1470693638927	633.75201365674	-22.9328188066136	4.55453873332295	0.333381681155703	1.13115922269233	0.00032030320957282	0.00342968746589471
0.31	19.8120300050099	-11.1459187196692	633.963587497632	-22.965481502801	4.56287360300187	0.328806724353614	1.12691741788789	0.000329642495369686	0.00346808838318721
0.32	19.7852217255941	-11.1380342023955	634.170076191874	-23.0043593155195	4.5721436458957	0.322102041098161	1.12029849005975	0.000340560245518061	0.00351650137697404
0.33	19.7495430588208	-11.1241436129457	634.365956033641	-23.0472062654685	4.58208118474234	0.313940383888833	1.1120018148667	0.000352677798657059	0.00357171899406829
0.34	19.7077348539065	-11.1048978181702	634.547652057949	-23.0919022407784	4.59242276865656	0.304950982661153	1.10269267717302	0.000365601812666466	0.00363061825439804
0.35	19.6625964547028	-11.0808635705282	634.71339243473	-23.1365052472748	4.60292296954014	0.295698755776702	1.09297812162749	0.000378948819927112	0.00369025096300282
0.36	19.6168344117334	-11.0525321943809	634.862922841776	-23.179283184037	4.61336610645862	0.286672024427218	1.08339095606196	0.000392367614402435	0.00374791015864328
0.37	19.5729264568812	-11.020341162935	634.997120987378	-23.2187277076864	4.62357587205486	0.278277739211355	1.07438121187471	0.000405559054772453	0.00380117439381696
0.38	19.5330071380965	-10.9847049794927	635.11755770225	-23.2535537265315	4.6334228056698	0.270842836293437	1.06631398959593	0.00041829279419427	0.00384793269434708
0.39	19.4987800974484	-10.9460514407993	635.226052554704	-23.2826886076391	4.64282950886397	0.264620121520136	1.05947237772255	0.000430420356194125	0.00388639379223523
0.4	19.4714602530711	-10.9048592770847	635.324268848387	-23.3052552905359	4.65177345256149	0.259797029120314	1.05406402818926	0.000441883912385557	0.00391508356801676
0.41	19.4517472414849	-10.8616933039454	635.413385674007	-23.3205532205215	4.66028720135021	0.256505698519399	1.05022999220091	0.000452720122271273	0.00393283461108713
0.42	19.4398295370846	-10.8172335544727	635.493874322324	-23.3280404115964	4.66845589529199	0.254833029135359	1.04805454672671	0.00046305849744734	0.00393877146232085
0.43	19.435416839621	-10.7722953564431	635.565394015318	-23.3273191134844	4.67641189209314	0.25482967263763	1.0475749493469	0.000473113963364275	0.00393229451162121
0.44	19.4377967462719	-10.7278379523312	635.626808908045	-23.3181265899092	4.68432658417905	0.256517265934309	1.04879031797458	0.000483173602717153	0.00391306476169366
0.45	19.4459105152784	-10.684960005374	635.67631598652	-23.3003315182265	4.69239955988385	0.259893557903781	1.05166911181894	0.000493577948633585	0.00388099081990448
0.46	19.4584419599275	-10.6448811695264	635.71166303038	-23.2739355880805	4.70084546244466	0.264935404725927	1.05615496224074	0.0005046976129783	0.00383621862283572
0.47	19.4739132189204	-10.6089097992425	635.730428160029	-23.2390790881927	4.70987909627948	0.271599875740155	1.0621708427649	0.000516906438767416	0.00377912360714133
0.48	19.4907813209828	-10.5783978056919	635.730328239911	-23.1960486845266	4.71969951545345	0.27982390602315	1.06962175878126	0.000530552710052187	0.00371030437870128
0.49	19.5075300451119	-10.5546845907512	635.709522765173	-23.1452852452563	4.73047398196846	0.289523044894285	1.07839626924791	0.000545930198574714	0.00363057644794707
0.5	19.5227524856417	-10.5390328619002	635.666882626613	-23.0873894696142	4.74232278113544	0.300589882227633	1.08836722258852	0.000563250945755521	0.00354096432257885
0.51	19.5352208522401	-10.532559895445	635.602198782964	-23.0231232178258	4.75530591173054	0.312892695854761	1.0993921014669	0.00058262165581373	0.00344269019026535
0.52	19.5439412475137	-10.5361684132266	635.51631354873	-22.9534047880121	4.7694126200916	0.326274768801228	1.11131333619318	0.00060402540897111	0.00333715757512549
0.53	19.5481923510982	-10.550481610476	635.41116594007	-22.879296898857	4.78455461755583	0.340554693756797	1.12395887759402	0.000627310103088051	0.00322592868855839
0.54	19.5475479973247	-10.5757869677638	635.289751274211	-22.801986760614	4.80056361552935	0.355527834412885	1.13714323201007	0.000652184618979118	0.00311069468106057
0.55	19.5418844888579	-10.6119932597682	635.156003030823	-22.7227582944975	4.81719354561303	0.370968968274773	1.15066906774709	0.000678223209399647	0.00299323859354208
0.56	19.5313740993619	-10.6586046200139	635.014611085037	-22.6429572356148	4.83412752378261	0.386636009197946	1.16432941562263	0.000704878071562753	0.00287539145798717
0.57	19.5164665777011	-10.7147146419076	634.870794309635	-22.5639504763865	4.85098929257316	0.40227461151211	1.17791041476915	0.00073149951961338	0.00275898266220326
0.58	19.4978606004221	-10.7790223296772	634.730047033169	-22.4870815329441	4.86735856084771	0.417623397218623	1.19119450346901	0.000757362669355827	0.0026457863281685
0.59	19.4764670800539	-10.8498703251232	634.597878066505	-22.4136244131942	4.88278938401693	0.432419524228784	1.20396392493265	0.000781699122479293	0.00253746601696279
0.6	19.4533660917755	-10.925304320836	634.479558391342	-22.3447384095729	4.89683051247843	0.446404323315734	1.21600440817006	0.000803731824462387	0.00243552052636326
0.61	19.4297590021601	-11.0031510412225	634.379889768879	-22.2814264199312	4.90904650107043	0.459328767378389	1.22710889103352	0.000822711091719639	0.00234123385246493
0.62	19.4069172355627	-11.081110753526	634.303002213834	-22.2244993142366	4.91903832866624	0.470958589717954	1.23708117159764	0.000837949768976379	0.0022556325089149
0.63	19.3861290433309	-11.1568590855483	634.2521842257	-22.1745486193272	4.92646232740951	0.481078928564877	1.24573940039593	0.000848855583406749	0.00217945330558802
0.64	19.3686456708919	-11.22815208558	634.229746502968	-22.1319294028658	4.93104635957231	0.489498433844685	1.25291935493547	0.000854958991576582	0.0021131243599293
0.65	19.3556284428672	-11.2929280490103	634.236918014432	-22.0967547213924	4.93260239269271	0.496052821434405	1.25847746516563	0.000855935143193401	0.00205676153894992
0.66	19.3480984754913	-11.3493997066926	634.273772932355	-22.0689023818124	4.93103489014721	0.500607894494494	1.26229358068151	0.000851618981083398	0.00201018171645929
0.67	19.3468909269953	-11.3961309328296	634.33918793254	-22.0480340810802	4.92634472999301	0.503062068115973	1.26427348469554	0.000842012927128885	0.0019729332094755
0.68	19.3526158467769	-11.4320931518504	634.430831364414	-22.0336262691403	4.91862866344146	0.503348432558932	1.2643511643763	0.000827287038166461	0.0019443425852663
0.69	19.3656277186961	-11.4566980298962	634.545188218609	-22.0250113621044	4.9080746003648	0.501436374428991	1.26249084117107	0.000807771926745496	0.00192357578489448
0.7	19.3860056584543	-11.4698047171551	634.677626989791	-22.0214272548095	4.89495324094585	0.497332748963589	1.25868874843902	0.000783945106272157	0.00190971028808871
0.71	19.4135458853673	-11.4717017268452	634.822515766918	-22.0220724838816	4.8796067436289	0.491082566199589	1.25297461861671	0.000756411719938879	0.00190181395639647
0.72	19.4477675374942	-11.4630653462605	634.973394609934	-22.0261639132007	4.86243522046859	0.482769125573892	1.24541281106202	0.000725880833753532	0.00189902534626959
0.73	19.4879321587597	-11.4448981262888	635.123209127327	-22.0329934897897	4.84388187981201	0.472513513333117	1.23610297885402	0.000693138606246812	0.00190062977929555
0.74	19.5330763094765	-11.418452353154	635.264606068823	-22.0419804814045	4.82441759820836	0.460473369505309	1.22518014344306	0.00065901968675542	0.00190612536875129
0.75	19.5820558139071	-11.3851443605818	635.390285921517	-22.0527156816817	4.80452560996846	0.446840838680109	1.21281402601759	0.000624378142983257	0.00191527357263162
0.76	19.6335992525987	-11.3464660182422	635.493400480914	-22.0649943683753	4.78468686996244	0.431839641784505	1.19920747945779	0.000590059087180723	0.00192812967586928
0.77	19.6863675307029	-11.3038997008991	635.567975949036	-22.0788353256119	4.76536649174198	0.415721242558301	1.1845938792825	0.000556871977325424	0.00194504985817741
0.78	19.7390157972287	-11.2588425138617	635.609335242081	-22.0944839776774	4.74700150806817	0.398760128788007	1.16923336839251	0.000525566340738187	0.00196667309709449
0.79	19.7902537267961	-11.212544577996	635.61448786967	-22.1123985988396	4.72999006197984	0.381248279513258	1.15340790804385	0.000496810432325605	0.00199387797179441
0.8	19.8389002496888	-11.1660648524334	635.582452893876	-22.1332196144092	4.71468202783442	0.363488939756871	1.13741516242489	0.000471173127558111	0.00202771633091922
0.81	19.883929237919	-11.1202464140261	635.51448079942	-22.1577231317611	4.70137099277077	0.345789868406656	1.12156132950547	0.000449109185629258	0.00206932761452212
0.82	19.9245033973143	-11.075711455569	635.414144003986	-22.1867609645988	4.69028750377335	0.328456258138322	1.10615311737466	0.000430947915634735	0.00211983922637241
0.83	19.9599946151673	-11.0328746507782	635.28727322259	-22.221190461226	4.68159350228376	0.311783545624243	1.09148914323265	0.000416885240255848	0.00218025960504103
0.84	19.9899901766656	-10.9919720965847	635.141727573268	-22.2617983390531	4.6753779201596	0.296050334485522	1.07785109256555	0.000406979166673236	0.00225137143522394
0.85	20.0142854776007	-10.9531018972814	634.986999381413	-22.3092233893708	4.67165348641817	0.281511643281915	1.06549501219822	0.000401148721938958	0.00233363270632918
0.86	20.0328650038725	-10.9162716871271	634.833668990243	-22.3638832862636	4.6703548793108	0.268392668947631	1.05464311969784	0.000399176462185764	0.00242709303676834
0.87	20.0458743032606	-10.8814480499772	634.692739179413	-22.425910766113	4.67133843716798	0.256883226615735	1.0454764935775	0.00040071469362423	0.0025313318555665
0.88	20.0535863430904	-10.8486028999762	634.574891612841	-22.4951041157342	4.67438369886221	0.247132994737664	1.03812896788547	0.000405295525180985	0.00264542372369625
0.89	20.0563659595023	-10.817752411791	634.489717724522	-22.5708962189085	4.67919706755313	0.239247664875422	1.03268249737034	0.000412344794491044	0.00276793437607102
0.9	20.0546360283144	-10.7889849732149	634.444982461152	-22.6523453902898	4.68541787023675	0.233286072822431	1.02916419274651	0.000421199769626951	0.00289694908791107
0.91	20.048848534054	-10.7624757900453	634.445980522603	-22.7381499255201	4.69262701606847	0.229258374530783	1.02754515644328	0.000431130339459972	0.0030301328498951
0.92	20.0394629339951	-10.7384870963005	634.495040797137	-22.8266867932697	4.70035833959248	0.227125327262339	1.02774118279897	0.000441363186651281	0.00316481971631538
0.93	20.0269331955288	-10.7173542959365	634.591225681874	-22.9160732840165	4.70811255764064	0.226798741553178	1.02961532591097	0.000451108215230978	0.0032981267086637
0.94	20.0117037422853	-10.6994596696739	634.730258501482	-23.0042488196177	4.71537358253332	0.228143178728795	1.03298228393367	0.000459586306422068	0.00342708594260676
0.95	19.994213405701	-10.6851964168586	634.904695320856	-23.089072630454	4.72162673496581	0.230978975707988	1.03761449934578	0.000466057324836355	0.00354878731038891
0.96	19.9749054726324	-10.674926679992	635.104338471947	-23.1684317338149	4.72637820553351	0.235086676578828	1.0432498283484	0.000469847208467525	0.00366052318094524
0.97	19.9542411598572	-10.6689377551676	635.316869685568	-23.2403526980163	4.72917494269608	0.240212931978816	1.04960058668777	0.000470372957798008	0.0037599262358922
0.98	19.9327134187746	-10.66740088909	635.528662514037	-23.303110132499	4.72962401433369	0.246077887145399	1.05636373198784	0.000467164391747524	0.00384509176930595
0.99	19.9108579264405	-10.6703368951786	635.725718344838	-23.3553247603196	4.72741041436526	0.25238401470722	1.06323189340981	0.000459881654939587	0.00391467653810015
1	19.8892584568563	-10.6775923074386	635.894659100835	-23.3960443307396	4.72231227568701	0.258826259461071	1.06990490879462	0.000448327631860157	0.00396796752016156
1.01	19.8685445096218	-10.6888289757744	636.023703702017	-23.4248015069977	4.71421251171591	0.265103254123856	1.07610147951216	0.000432454637313187	0.00400491565006556
1.02	19.8493800224227	-10.7035289547727	636.103555079783	-23.4416441743266	4.70310604172575	0.270929245903547	1.08157050755288	0.000412364997470904	0.00402613166002735
1.03	19.8324430996373	-10.7210153290485	636.128130042594	-23.4471352799707	4.68910195538107	0.276046255539717	1.08610164272627	0.000388305400859095	0.0040328434367567
1.04	19.8183978241082	-10.7404883404011	636.095075149409	-23.4423212366146	4.67242022986685	0.280235887180368	1.08953454598363	0.000360655173792432	0.0040268166770377
1.05	19.8078602523742	-10.7610749267127	636.006027062322	-23.4286699685069	4.65338291471009	0.283330133556755	1.0917663743163	0.00032990891068588	0.00401024294211792
1.06	19.8013615069634	-10.7818886384577	635.86659436762	-23.4079817185487	4.63240002688827	0.285220489535341	1.0927570198714	0.000296654157111843	0.00398560133016244
1.07	19.7993113798468	-10.8020959464674	635.6860580768	-23.3822776250606	4.60995073131012	0.285864708251989	1.0925316964366	0.000261545093015472	0.00395550177367487
1.08	19.801965991917	-10.8209842618931	635.476808341864	-23.3536726867125	4.58656069670757	0.285290612923553	1.09118056372909	0.00022527338515162	0.00392251930966937
1.09	19.8094027995522	-10.8380266069554	635.253553774372	-23.3242409483003	4.56277679157889	0.283596513529329	1.08885521406607	0.000188537560784034	0.00388902947468005
1.1	19.821505629395	-10.8529378340891	635.032355746632	-23.2958814692727	4.53914049758167	0.280947964076264	1.08576201263523	0.000152012387341111	0.00385705518555817
1.11	19.8379615244072	-10.8657176009985	634.829552057598	-23.2701938236927	4.51616155025344	0.277570820438433	1.08215247238219	0.000116319812722247	0.00382813505598105
1.12	19.858270097343	-10.8766759574424	634.660641607672	-23.248371503063	4.49429335543662	0.273740803319515	1.07831104341369	8.20030159418787e-05	0.00380322207888577
1.13	19.8817649309085	-10.8864383526671	634.539203890898	-23.2311206677677	4.47391166682912	0.269770015153845	1.07454088716156	4.95050267093726e-05	0.00378262002267499
1.14	19.907645461763	-10.8959280776462	634.475924232067	-23.2186102702793	4.45529784552282	0.265991082189651	1.07114836822221	1.91531875793982e-05	0.00376596282225251
1.15	19.935016854515	-10.9063255451476	634.477788195605	-23.2104577374303	4.43862776394898	0.262739773347151	1.06842711369317	-8.84954852101161e-06	0.00375223980111648
1.16	19.9629347069999	-10.9190053026225	634.547497208418	-23.2057522601212	4.42396707974261	0.260337068938121	1.06664254659186	-3.44258629078349e-05	0.00373986686726187
1.17	19.9904510929302	-10.9354531799901	634.68314313	-23.2031154261974	4.41127321187814	0.259071703441909	1.06601778812102	-5.76176785937648e-05	0.0037268010298955
1.18	20.0166584682876	-10.9571674057258	634.878163357311	-23.2007965861966	4.40040392936496	0.259184182180574	1.06672174199574	-7.85724398235307e-05	0.0037106928425172
1.19	20.0407283298784	-10.9855487913782	635.121581186028	-23.1967981048677	4.39113204209134	0.260853173827841	1.06886002917834	-9.75228698865578e-05	0.00368906885004087
