Time [s]	GRFml [N]	GRFap [N]	GRFv [N]	Mml [N.m]	Map [N.m]	Mv [N.m]	Mfree [N.m]	COPml [m]	COPap [m]
0.01	-1.21354463872617	0.096399575112927	529.483210442352	-3.56364437891213	-6.23607640182492	0.622235827777423	-0.612946665336716	0.00256748402017126	-0.00144133024920373
0.02	-1.23321189991608	0.158518691476568	530.083296321384	-3.49971132695849	-6.141913949063	0.648820280773401	-0.63883416043955	0.00269643967257194	-0.00125209988519809
0.03	-1.25979320463711	0.213728252952539	530.697763293277	-3.44504628441348	-6.05107683449095	0.670990076820907	-0.660329593419085	0.00280811089606103	-0.0010688553035702
0.04	-1.29794713691048	0.257710526129238	531.331651010362	-3.40626900634788	-5.96636757824005	0.685447773760572	-0.674148099230113	0.00289008150766468	-0.000896785812395218
0.05	-1.34913704625537	0.29050238537688	531.970502254813	-3.38642080220474	-5.88970113255681	0.690921675549303	-0.679006365811309	0.00293643450389247	-0.000739803505203529
0.06	-1.41173351949949	0.316318225774576	532.580093183403	-3.38481125255459	-5.82188395336318	0.688431924350404	-0.675889087276979	0.00294804166156104	-0.000600129862447729
0.07	-1.48206925498931	0.341705990155079	533.113685809169	-3.39797151061057	-5.76268398819957	0.680894647104987	-0.667664571203795	0.00293086233749407	-0.000478277029857921
0.08	-1.5558233710061	0.372875490096431	533.524067378128	-3.42123380247685	-5.7111973618514	0.672204789923756	-0.658186015835461	0.00289311961172511	-0.000373492134363551
0.09	-1.62908106203675	0.4133306390361	533.776228498768	-3.45028593401339	-5.66639394100425	0.666094634271353	-0.651168375360005	0.00284252690235964	-0.000284528411324037
0.1	-1.69869583796926	0.462721495128399	533.856577049341	-3.48216933756891	-5.62763738653738	0.665121557853007	-0.649187306288905	0.002784515280711	-0.000210441489984614
0.11	-1.76198164692606	0.517248892920759	533.775897559261	-3.51550109007801	-5.59497672124801	0.670079660831824	-0.653090718422051	0.00272184271406184	-0.000151083637130234
0.12	-1.81607357712009	0.571294298734028	533.565382102756	-3.55003649227549	-5.56909702201425	0.6799785307708	-0.661966632562192	0.00265536073138017	-0.000107095644877264
0.13	-1.85740088656749	0.619499856272594	533.267335661506	-3.58590527458928	-5.55095268297536	0.692542769007531	-0.673625391634259	0.00258533411683548	-7.94061895324494e-05
0.14	-1.88161705364974	0.658448699558981	532.923890007969	-3.62289193945438	-5.54122715903888	0.705024385870401	-0.685394525536039	0.00251265847087512	-6.84417525018133e-05
0.15	-1.88411409179769	0.687373717219578	532.567659104628	-3.66002058561407	-5.53982200417615	0.715041330727803	-0.694944751247488	0.00243953328057334	-7.33506617053847e-05
0.16	-1.86101813452127	0.707790386370704	532.21748072872	-3.69553153863337	-5.54556065614937	0.721181300592136	-0.700888533244708	0.00236946273556171	-9.15290475141384e-05
0.17	-1.81039620257555	0.722390358687897	531.880432652771	-3.7271869060045	-5.55621399154392	0.723222255995716	-0.703001604331523	0.00230671484407041	-0.000118628214937411
0.18	-1.73333025218436	0.733775862193017	531.558863706607	-3.75276236959029	-5.56884740024253	0.721969968900095	-0.702064605434899	0.00225549007065207	-0.000149069213483566
0.19	-1.63453039368436	0.743592355945946	531.259163024403	-3.77057251937323	-5.58038819392504	0.718839141833778	-0.699448079024625	0.00221904562275166	-0.000176939424642641
0.2	-1.52224784570856	0.752369500274975	530.998223331149	-3.77990516704879	-5.58824618843118	0.715364291978732	-0.696625401795145	0.00219895967584416	-0.000197035866495832
0.21	-1.40739225042572	0.760026344963388	530.804397249618	-3.78127324883511	-5.59080637560618	0.712807716439816	-0.694781910080534	0.00219466775560773	-0.000205776114670764
0.22	-1.30193770313304	0.766681779785459	530.711912693187	-3.77641918908618	-5.58765362615564	0.711955718364905	-0.694614372968484	0.00220338043224799	-0.000201731773654346
0.23	-1.21688685090266	0.773262816683234	530.750356813007	-3.76803761678289	-5.57947283183141	0.71310215452563	-0.696323200127655	0.00222046564903544	-0.000185644748532998
0.24	-1.16020811693076	0.781488954172063	530.932895055398	-3.75923664143161	-5.56766779397601	0.716151011600019	-0.699730579754931	0.00224030295473443	-0.000159935185799542
0.25	-1.1352188220444	0.793109860034491	531.24754211322	-3.7528383428525	-5.5538259549851	0.720749553089774	-0.704434035571913	0.00225747522244246	-0.000127856479770094
0.26	-1.13982545189218	0.808670831221554	531.654819538659	-3.75070103080675	-5.53919580655737	0.726387644273845	-0.70992514165416	0.00226799919914922	-9.2548400666137e-05
0.27	-1.16685756479578	0.826399557224617	532.092967539147	-3.75328515943462	-5.52432719651201	0.732444811937842	-0.715646870429083	0.00227019680508611	-5.62515260089103e-05
0.28	-1.20548928322025	0.841881394149433	532.489414503375	-3.75964269156605	-5.50896055168348	0.738207082897249	-0.721004445502519	0.00226485760890305	-1.98732580277694e-05
0.29	-1.24349670861022	0.848942998505241	532.775361462323	-3.7678795165211	-5.49216534494791	0.742892527893943	-0.72536586295291	0.00225456282689018	1.70310494762571e-05
0.3	-1.26990659284437	0.841664228090338	532.899667226599	-3.77596073827645	-5.47265293715364	0.745715424840327	-0.728086000216261	0.00224236742848571	5.59291553090535e-05
0.31	-1.27748219165512	0.816886647586123	532.838756522836	-3.78257232427623	-5.44914856960638	0.745994654607841	-0.728570644489618	0.00223033363631819	9.87912825383686e-05
0.32	-1.26447923122385	0.776237146691962	532.600620282264	-3.78769607445972	-5.42070985436969	0.743287074414465	-0.726375724323561	0.00221852923478794	0.000147556688243899
0.33	-1.23519980843286	0.72672589956682	532.222562564722	-3.79263989055201	-5.38691613603	0.737511589364509	-0.721320827426019	0.00220496319187602	0.000203727429931744
0.34	-1.19908888123682	0.679436190571207	531.763688598058	-3.79947312721582	-5.34790586042928	0.729027110153456	-0.713587038699029	0.00218655887174235	0.000268154323162739
0.35	-1.16845208411271	0.646539310203095	531.293973857553	-3.81006863828327	-5.30428724076401	0.718634689189754	-0.703766198022555	0.00216080609296676	0.000341003046833543
0.36	-1.15526877370622	0.63755567431853	530.882093134298	-3.82514039268398	-5.25697646523841	0.707487319094573	-0.69283181252454	0.00212739034757559	0.000421837463107699
0.37	-1.1679110434905	0.65615502369426	530.5841479348	-3.84369824043289	-5.20702269658248	0.696908865919654	-0.682013703053561	0.00208903993694876	0.000509744962159109
0.38	-1.20870946782663	0.698675977809931	530.435147001125	-3.86319245697471	-5.15546509477902	0.688146254210821	-0.672581648117823	0.00205111095702015	0.000603449251307897
0.39	-1.27312650836311	0.754972872940615	530.444625797501	-3.88034324929279	-5.10324441733314	0.682103680166762	-0.665575501593175	0.00201994596176958	0.000701391359361092
0.4	-1.35082450955073	0.811375434033098	530.597113923375	-3.89235830475235	-5.0511702018939	0.679126767259371	-0.661550490208756	0.00200058038058937	0.000801790382950751
0.41	-1.42830216329585	0.854787002200156	530.857259384657	-3.89806039307818	-4.99992904081218	0.678907467806862	-0.660421435521542	0.00199469550624787	0.000902710947284668
0.42	-1.49226011610183	0.876541401646997	531.178399785683	-3.89845882426044	-4.95011008400034	0.680558715650551	-0.661475330518863	0.00199967675411428	0.0010021649506623
0.43	-1.53265558331381	0.87474166597456	531.512497968138	-3.89650421020433	-4.90221946351963	0.682861458056533	-0.663575169918351	0.00200923382821672	0.00109826713511491
0.44	-1.54459777027668	0.854371317326567	531.818973816035	-3.89608409141398	-4.85665694213973	0.684627568146299	-0.665511124520488	0.00201543400243231	0.0011894514832243
0.45	-1.5287258769566	0.825274966037368	532.070302436715	-3.90061843074897	-4.81363929858496	0.685071351108589	-0.666392358473656	0.0020114374905027	0.00127473691814445
0.46	-1.49027419632984	0.79883403636402	532.253286951526	-3.91177674037273	-4.77307800752845	0.684062513482346	-0.665941567640817	0.00199393388112967	0.00135400300048721
0.47	-1.4374187845032	0.78454004961597	532.366329459808	-3.92879867521684	-4.73444961465478	0.68215873543498	-0.6645733677575	0.00196437631719359	0.00142820229370522
0.48	-1.37957120101163	0.787571550471991	532.414311660276	-3.94867620480557	-4.69672338190984	0.680384301736865	-0.66320703388186	0.00192855215980192	0.00149941078864252
0.49	-1.32605697496413	0.807991796157531	532.403376166867	-3.96713878440731	-4.65841514923486	0.679812401552274	-0.662862424616947	0.00189463688803981	0.00157062464337759
0.5	-1.28525585789344	0.841538060037485	532.337711763947	-3.9800956986656	-4.61780656703508	0.681089949440937	-0.664178720460541	0.00187041725166359	0.00164526825652639
0.51	-1.26400331938408	0.881444457088786	532.219460427764	-3.98503571627218	-4.57330766380094	0.684081604483096	-0.667040930485863	0.00186064544447895	0.00172648021634214
0.52	-1.26700409247768	0.920517524624134	532.051459212199	-3.98191079251464	-4.5238697976517	0.687783649736136	-0.670475561840257	0.00186541431245724	0.00181635480222847
0.53	-1.29618814489096	0.95279843862722	531.841256600289	-3.97321777185634	-4.46930853986763	0.690571383757479	-0.672886958420277	0.00188007022677583	0.001915384093016
0.54	-1.35020690229083	0.974480101369472	531.604217201837	-3.96326737530989	-4.41040055841141	0.690723305252576	-0.672579501687047	0.00189664991192151	0.00202232436551086
0.55	-1.42442950606411	0.984111601685674	531.36382776786	-3.95689794979503	-4.34868314750325	0.687055172139341	-0.668395095540894	0.00190632458857598	0.00213459035740993
0.56	-1.51172470448676	0.9823532599732	531.148453120409	-3.95806573459459	-4.28599020824811	0.679440114988974	-0.660236036799798	0.00190202228562808	0.00224909804640627
0.57	-1.60401396596703	0.971576062112275	530.985322962824	-3.96876987749789	-4.22386375437531	0.669012943149125	-0.649266880940025	0.00188037255759521	0.00236330062637247
0.58	-1.69420345694114	0.955472858306713	530.893830579049	-3.98864271828781	-4.1630410301946	0.657954686194582	-0.637691003558403	0.00184237964179801	0.00247606735607203
0.59	-1.77785080055663	0.938675476967054	530.880728748929	-4.01529799706976	-4.10320541911403	0.648895811674001	-0.628144215830201	0.00179268820148881	0.0025880862812217
0.6	-1.85394704026423	0.926262289300599	530.939259680662	-4.04526467571094	-4.04310466883063	0.64411425257673	-0.622887439060299	0.00173779900250803	0.00270162511300764
0.61	-1.9245116205623	0.923051868720769	531.052822610833	-4.07513760077472	-3.98101249967105	0.644787854787646	-0.623062529848286	0.00168394178683151	0.00281970565396106
0.62	-1.99317984739491	0.932696492092016	531.202003770523	-4.10252129254555	-3.91538744528372	0.650557860209153	-0.62826831515829	0.00163538950551156	0.00294495319689214
0.63	-2.06339077664913	0.956747556423794	531.372371509615	-4.12644929701017	-3.84551261883393	0.659567238561703	-0.636616422314585	0.00159377586862675	0.00307849493330697
0.64	-2.13695122190545	0.99397992964148	531.559965549762	-4.1471839294021	-3.77190871893942	0.668982909753089	-0.64526876556149	0.00155855080273481	0.00321925835686515
0.65	-2.2135616284657	1.04026917691532	531.772123891284	-4.16554805357546	-3.69639596986896	0.675845265464561	-0.65129326865722	0.00152825299079762	0.00336387257484511
0.66	-2.29141367791348	1.0891932192339	532.022974001499	-4.18211281705086	-3.62180562102295	0.677970060960208	-0.652559748606226	0.00150197857682655	0.00350716168927306
0.67	-2.36842824710093	1.13330946073567	532.324955425466	-4.19659969691069	-3.55145877891943	0.674601706205512	-0.648377245641773	0.00148039030994562	0.0036430246683069
0.68	-2.44336522415874	1.16581566850379	532.679363781713	-4.20774827117442	-3.48859428225286	0.666597399932117	-0.639659081434742	0.00146583664716571	0.00376539599847103
0.69	-2.51608543657363	1.18213348493447	533.069473217767	-4.21370416325496	-3.43591601471412	0.656083696322955	-0.628565601930734	0.00146152922883003	0.00386900967622206
0.7	-2.5866739559371	1.18093504833932	533.459058852083	-4.21277413192178	-3.39535481998386	0.64571368345011	-0.617758813043079	0.00147010644874634	0.00394982189669019
0.71	-2.65374618960336	1.16428903726022	533.797349434806	-4.2042527048897	-3.36804008414303	0.63779436461001	-0.609539347404382	0.00149215273593584	0.00400511510012058
0.72	-2.71275953183513	1.13688508303538	534.029244751577	-4.18899389017469	-3.35439818934388	0.633595267939326	-0.605171965694337	0.00152526964783095	0.0040334270877192
0.73	-2.75529574486886	1.1046026017593	534.107838978001	-4.16948896335069	-3.35427100357179	0.633073800529927	-0.604626697933784	0.0015641054730805	0.00403447346473046
0.74	-2.76997706133003	1.0729062943715	534.00554859784	-4.14938426681472	-3.36697899695732	0.63508972885993	-0.606799694412798	0.00160141561550398	0.00400916359843628
0.75	-2.74504582758147	1.04559438539691	533.720685832302	-4.13257048535832	-3.39131469912476	0.637995049144154	-0.61009551008654	0.00162986367481821	0.00395970034730275
0.76	-2.67193263999048	1.02428054688545	533.277879047035	-4.12212805833297	-3.42550667412298	0.640349925770743	-0.61312284922088	0.00164400779274787	0.0038896674493894
0.77	-2.54865317645685	1.00870970886018	532.722682539967	-4.11946876545779	-3.46721546615726	0.641482044934574	-0.615228069577647	0.00164183951594665	0.00380398892569883
0.78	-2.38181254774637	0.997695823543096	532.112320892998	-4.12395184047948	-3.51360664817163	0.641684503645723	-0.616671568719083	0.00162537931544593	0.00370869320966338
0.79	-2.18639321248323	0.99024498622615	531.505285405794	-4.1330960271639	-3.5615082634498	0.642000220548038	-0.618404266234152	0.00160013684373095	0.0036104957845175
0.8	-1.98321599473421	0.986379087545573	530.952344338201	-4.14331187780503	-3.60762490431522	0.643705012245876	-0.621561142094238	0.00157361111191046	0.00351628097931334
0.81	-1.79473357639384	0.987324012001285	530.490699925178	-4.15091024208037	-3.64876665794751	0.647712667625559	-0.626893510660651	0.00155331080161647	0.00343258395038115
0.82	-1.64036592619703	0.995010439848148	530.141937317691	-4.15306191299787	-3.68206169064386	0.65414394239698	-0.634374160868841	0.0015449136344946	0.00336514448873831
0.83	-1.53272690953973	1.01113225958304	529.913423031422	-4.14841725908009	-3.70514527894862	0.662225554359896	-0.643130163973041	0.00155110883929754	0.00331854885194705
0.84	-1.47578040016364	1.03618782767465	529.802112001024	-4.13722916924981	-3.71633716140278	0.670549053495473	-0.651722481761722	0.00157140646692755	0.00329593073482753
0.85	-1.46532026989896	1.06891681162259	529.799348467941	-4.12100574364342	-3.71481760262185	0.677578217421242	-0.658654721804119	0.00160284876116157	0.00329869790490023
0.86	-1.49142097093138	1.10635483161453	529.895174105487	-4.10187942436811	-3.70078706554822	0.682202346463451	-0.66290881899212	0.00164125545380334	0.00332629434159382
0.87	-1.54191250637305	1.1444561922015	530.080885505814	-4.08195386268276	-3.67555753538556	0.684124852887359	-0.664303893923189	0.00168249511559337	0.00337607649305371
0.88	-1.6056922694169	1.17900931727681	530.349128322579	-4.06285206427351	-3.64149974468708	0.683950800703627	-0.663552559851914	0.001723350086274	0.0034434318653509
0.89	-1.67486328276765	1.20648445762487	530.691629722743	-4.04556247715632	-3.60178346553606	0.682959401698042	-0.662011019213483	0.00176179007677058	0.00352225398882389
0.9	-1.74519937725349	1.22452834489626	531.095564451946	-4.03052753915308	-3.55990544963987	0.682665894216639	-0.661233666380373	0.00179676760479897	0.00360579264744265
0.91	-1.8150827381632	1.23200149885978	531.540202476497	-4.0178153852646	-3.51908467749821	0.68434447883166	-0.662504079880109	0.00182785429749044	0.00368774902460356
0.92	-1.88360026173616	1.22864915068073	531.995578539223	-4.00720637062134	-3.48168036521512	0.688677379407792	-0.666501984259182	0.00185505820320997	0.0037633466302131
0.93	-1.94873587716211	1.2146234951108	532.424322929335	-3.99810880093519	-3.44881483252144	0.695624695585637	-0.673192157245451	0.00187900100939686	0.00383005289913058
0.94	-2.00648602692238	1.19009273834167	532.786668756083	-3.98934467813826	-3.42033907175822	0.704511788456492	-0.681923636418078	0.00190138205357704	0.00388769584383358
0.95	-2.05131701194623	1.1550925336523	533.047436443812	-3.97895001908396	-3.39517275996501	0.714250297377448	-0.691650360071639	0.0019254435474565	0.0039379035739624
0.96	-2.07783679994609	1.10964879106198	533.182994216754	-3.96416392034765	-3.37192033472443	0.723578373378871	-0.701158907934554	0.00195608281774551	0.00398302768222919
0.97	-2.08306466131455	1.05409064574924	533.186138794182	-3.94172200758353	-3.34956146388175	0.731232304256106	-0.709220311605115	0.00199936480007845	0.00402490376405346
0.98	-2.06841114846616	0.98942224208721	533.067541637011	-3.90845025742914	-3.32798040848791	0.736025204177441	-0.714649155402595	0.00206142194137826	0.00406387414555964
0.99	-2.04051324182977	0.917635245441809	532.853547608417	-3.86202790146466	-3.30815122055272	0.736872981971991	-0.716317736722328	0.00214698456651641	0.0040984137234637
1	-2.01039849052161	0.841887574512297	532.581211596876	-3.80170789753075	-3.29191795330957	0.732840017008114	-0.713202727708541	0.00225795260286177	0.00412548423660103
1.01	-1.99098682851079	0.766506688578758	532.29209218947	-3.72878148495975	-3.2814564488188	0.723261796981365	-0.70452247188685	0.00239243363080344	0.00414147343440552
1.02	-1.99352335171065	0.69678089365464	532.026318985824	-3.64664485488606	-3.27862040022331	0.707948613299584	-0.689965502751115	0.00254453800435894	0.00414335706101254
1.03	-2.02398058016994	0.638497366114933	531.817948473464	-3.56043623140529	-3.28441361722665	0.687411397777467	-0.669944561220827	0.0027050060432956	0.00412964089253609
1.04	-2.08060406022835	0.597205393618011	531.691960649676	-3.47631645415431	-3.29877753850409	0.663010633704398	-0.64576905669026	0.00286253342645659	0.00410073043433618
1.05	-2.15351432270018	0.577247946324808	531.662757971574	-3.40053424623448	-3.32076039417032	0.636933681999223	-0.619634672520656	0.00300552351644012	0.00405859988888285
1.06	-2.2266716825929	0.58070188603174	531.733860056516	-3.33844197868296	-3.34899208238461	0.611955584928021	-0.594382010905181	0.00312394552263429	0.00400589769856796
1.07	-2.28174878265024	0.606458863406783	531.898565555347	-3.29362193323942	-3.38228214584753	0.59101332898012	-0.573055497706756	0.00321099028978855	0.00394482827359338
1.08	-2.30280815373327	0.64972328798244	532.141473783655	-3.26726422346508	-3.42012457192063	0.576692263601515	-0.558366241991462	0.00326425528411312	0.00387621533571642
1.09	-2.28038921802741	0.702173344848885	532.440753541548	-3.25791248975708	-3.46293868436343	0.570757550285761	-0.552198514842315	0.00328624079022033	0.0037990674946084
1.1	-2.21378287796657	0.752919282851867	532.770888710928	-3.26165407459485	-3.51197636096474	0.573850254358367	-0.555285613149731	0.0032840140471021	0.00371077537824399
1.11	-2.11084909385691	0.790212965270644	533.105433707694	-3.27276382534439	-3.56894119103422	0.585414342493445	-0.567125040051897	0.0032680234473571	0.00360785039488032
1.12	-1.98550436235551	0.803646879196611	533.419238312792	-3.28471266524433	-3.63545425871481	0.603850523867531	-0.586129550984812	0.0032502271487137	0.0034869467510103
1.13	-1.85370271087379	0.786385183126267	533.689750287017	-3.29134546939279	-3.7125383807267	0.626833182645307	-0.609948575745538	0.00324190016047321	0.00334584024579609
1.14	-1.72913103635781	0.736866040870183	533.89735171799	-3.28796084342357	-3.80027373475488	0.651697404084209	-0.635864307721217	0.00325162045639316	0.00318407704370388
1.15	-1.61983497153806	0.659466923295047	534.025094130823	-3.27203252982803	-3.89771674300615	0.675808835442362	-0.661172730381228	0.00328392375295783	0.00300312522175883
1.16	-1.52662809437078	0.563851510771301	534.058479520073	-3.24341569817897	-4.00309305033561	0.696859503531556	-0.683490978445951	0.00333892416715142	0.0028060171317732
