Time [s]	GRFml [N]	GRFap [N]	GRFv [N]	Mml [N.m]	Map [N.m]	Mv [N.m]	Mfree [N.m]	COPml [m]	COPap [m]
0.01	-3.05735083541356	1.14950428507601	950.195213203929	5.24750235410621	-10.7499898082502	1.23193580046549	-1.23585601760786	-0.00552242907821798	0.00281708671446584
0.02	-2.62933970897886	1.280162978623	952.290216974557	5.0946761437443	-10.9300045584381	1.20616723416798	-1.20570862823466	-0.00569351481642755	0.0026527083473637
0.03	-2.21847221393694	1.41606163501491	953.970058458007	4.96358196607731	-11.0931883123004	1.18499152148657	-1.18024062726629	-0.00583936584033273	0.00250090068044129
0.04	-1.83992118848975	1.56094044167502	954.884656295189	4.87117222569395	-11.2253763379672	1.17217482705427	-1.1632988789674	-0.00594012345837502	0.00237223362092942
0.05	-1.50751386256431	1.71354519072828	954.817102844717	4.82855365034775	-11.3150116990926	1.16985747628645	-1.15714468623944	-0.0059827859158369	0.00227621282266299
0.06	-1.23265245467341	1.86756627146098	953.717476039695	4.8397639741446	-11.3541537040105	1.178135575939	-1.16202929454189	-0.00596268981682435	0.00222064809053979
0.07	-1.02310722398285	2.0132726580127	951.705126648857	4.90189523769492	-11.3393226071324	1.19508417204211	-1.17619218755456	-0.00588342049979051	0.00221078946152248
0.08	-0.882153625496368	2.13997304949865	949.040511667071	5.00647371187212	-11.2719736015167	1.21723517730402	-1.19630702638588	-0.00575524440172592	0.00224845853039568
0.09	-0.808393591465071	2.23820249247149	946.073780571071	5.14171890373765	-11.1583948607327	1.240405494531	-1.218284200974	-0.0055924871133658	0.00233148311614201
0.1	-0.796347383921546	2.30079210229102	943.181361206397	5.29512704707279	-11.0088830112556	1.26067062408712	-1.23823503480328	-0.00541048790859944	0.00245373906708279
0.11	-0.837687599137914	2.32260449178183	940.703028430135	5.45579230313363	-10.8361623476512	1.27523306995808	-1.25334927540164	-0.00522280584481649	0.00260600401220829
0.12	-0.922873218800999	2.29943237124443	938.89058398862	5.61598005570142	-10.6531862428423	1.28296094527395	-1.26245550409173	-0.00503924682490919	0.00277762865425507
0.13	-1.04289548815329	2.22704002303152	937.876104648357	5.77166477105799	-10.4706720374224	1.28446393378573	-1.26612017564838	-0.00486506547658838	0.00295876049643035
0.14	-1.19080835363182	2.10133907154226	937.663606160088	5.92199663654027	-10.2949107882598	1.28170488189176	-1.26627108690353	-0.00470141695841586	0.00314259306152237
0.15	-1.3626732081549	1.92018731417229	938.143631865247	6.06792229450841	-10.1264646631399	1.27727899341321	-1.2654690717595	-0.00454683861596139	0.00332697505557356
0.16	-1.55756511367305	1.68646786507355	939.126246630372	6.2104062016973	-9.96023558333503	1.27359109084732	-1.26605859418315	-0.00439928263368261	0.00351479571282287
0.17	-1.77645741557498	1.41129700660657	940.384724741543	6.34882409545405	-9.78704760323158	1.27219385118226	-1.26946985316767	-0.00425806170860377	0.00371288508545692
0.18	-2.02015264402771	1.11579781640884	941.700459566529	6.48007626654535	-9.59642232151663	1.27350025444109	-1.27590214275217	-0.00412507265152084	0.00392964275788316
0.19	-2.28685960235485	0.830096228790359	942.89982923364	6.59877239681874	-9.37981096747571	1.27695838043339	-1.28449392374963	-0.00400486033968361	0.00417205953344618
0.2	-2.57031796913926	0.589025511138028	943.876105502545	6.69850343895551	-9.13335683195784	1.28161000189188	-1.29391190294414	-0.00390344804208032	0.00444303420643838
0.21	-2.85932845303715	0.425183712357521	944.593544561731	6.77383432360903	-8.85939538768796	1.28680230269647	-1.30312707806042	-0.00382628850208266	0.00473979989431356
0.22	-3.13908288413132	0.361046586575175	945.075449488205	6.82235915951664	-8.56631669974864	1.29274596620595	-1.31205583612779	-0.00377603294468787	0.0050538899329518
0.23	-3.39395087461952	0.402391713457155	945.381814971251	6.84608266481027	-8.26694684640274	1.30065423844981	-1.32177559048655	-0.003750928966189	0.00537255428124067
0.24	-3.61069854471526	0.535119027672402	945.583956057108	6.8515847588032	-7.97603186387315	1.31235459509575	-1.33417983293931	-0.00374447210374051	0.00568110396916716
0.25	-3.78085080710459	0.726699739936387	945.742848978312	6.84884184828863	-7.70756501001347	1.32948446261671	-1.35116565765238	-0.00374649509398883	0.00596548310603129
0.26	-3.90125596904792	0.932220315770388	945.895321366099	6.84907046922362	-7.4725583046653	1.35257653735937	-1.37365710875691	-0.00374534253583503	0.00621448136368258
0.27	-3.97276615260977	1.10370224690007	946.049004369502	6.86232959840067	-7.27754035138613	1.38041953344473	-1.40086656653024	-0.00373036418786787	0.00642129472191233
0.28	-3.99792063468255	1.20044994383629	946.184502643096	6.89570295669283	-7.1237598259462	1.4100007997177	-1.43013101849585	-0.0036938516612568	0.00658442840086249
0.29	-3.97910750852507	1.1978631375111	946.262387837214	6.95262955031968	-7.00695094357777	1.43712091591275	-1.45744744912388	-0.00363180304098409	0.00670805165511079
0.3	-3.91851658463878	1.09252069537172	946.233257931141	7.03345472422518	-6.91761261829353	1.45750357285431	-1.47855603621502	-0.0035434269790996	0.00680181923362716
0.31	-3.82027068810028	0.902290754727217	946.050269561396	7.13674568139445	-6.84195821550402	1.46801977661136	-1.49019701302548	-0.00342986259506262	0.00687997513388028
0.32	-3.69382702274447	0.661495187983883	945.684020730219	7.2605894897614	-6.76381215057223	1.46759109856993	-1.49109108575812	-0.00329293698179778	0.00695944454678127
0.33	-3.55671543049831	0.412422461501103	945.138689380124	7.40311900518285	-6.66759649904093	1.45745364344851	-1.4822938701464	-0.00313474350053278	0.00705676523737131
0.34	-3.43450497808173	0.195406317238437	944.466158197036	7.56188913942516	-6.54213750456914	1.44069995623234	-1.46680588867826	-0.002958408011279	0.00718413696627251
0.35	-3.3567760138736	0.0400123867152006	943.772698461765	7.73229513057367	-6.38448050995078	1.42127131324012	-1.44858437624754	-0.00276979346973272	0.00734542308885722
0.36	-3.34952668016516	-0.0404983613661658	943.212286685821	7.90574448757326	-6.20250743177952	1.40274924232769	-1.43129939479889	-0.00257934433417728	0.00753334418184498
0.37	-3.42616909522931	-0.0502282972622904	942.962961530669	8.06854248271802	-6.01516802736312	1.38733554474459	-1.41723952279259	-0.00240303467307146	0.00772909146647377
0.38	-3.58029224479593	-0.0072950996021802	943.18772367211	8.20231376854672	-5.84967435732272	1.37531593937628	-1.4066940769797	-0.0022615751677475	0.00790504603889602
0.39	-3.78317841826423	0.0626653094392434	943.987783790973	8.28629691100598	-5.73594115197729	1.36512360944289	-1.39796299897471	-0.00217760001872902	0.00803034428397748
0.4	-3.98765527320158	0.13414292634741	945.360940546211	8.30118434578107	-5.69955220530395	1.35392653506517	-1.38794226625337	-0.00217129300592434	0.00807801407186676
0.41	-4.13775289220226	0.188438305258061	947.179082422334	8.23357530313321	-5.75519202034149	1.33851958330652	-1.3730695741072	-0.00225555164552116	0.00803172756364351
0.42	-4.18161532625213	0.217790083828694	949.195065737924	8.079783899027	-5.90250575344766	1.31624436586909	-1.35033575498071	-0.00243208983129539	0.00789017670679659
0.43	-4.08395449213221	0.22624498125351	951.081265718847	7.84782576094487	-6.12568394027168	1.28568968469353	-1.3180831938118	-0.00268971910285298	0.00766773550483385
0.44	-3.83445731400617	0.227526197932938	952.4924559445	7.55688426413851	-6.39692971014765	1.24701986616296	-1.27640548528779	-0.0030054625304774	0.00739121188814856
0.45	-3.44989443648554	0.240866070600883	953.137721025357	7.23428576092202	-6.68275880881308	1.20190083901083	-1.22709620166349	-0.00334832732647239	0.00709370678376037
0.46	-2.96970906521762	0.286057392116907	952.842736857541	6.91075519290369	-6.95123235967586	1.15310681014826	-1.1732263038367	-0.00368476534093276	0.00680746064273452
0.47	-2.44683879250128	0.378848930756062	951.586206806724	6.61522843754224	-7.17801270896785	1.10396448843107	-1.11852235933719	-0.0039843548797297	0.00655779133040668
0.48	-1.93676740898303	0.527420936099311	949.501652873753	6.37058786086201	-7.34960965112884	1.05781125047963	-1.06674836999233	-0.00422421693875374	0.00635976310447278
0.49	-1.4879639001893	0.730248400138058	946.845558866917	6.19132584887789	-7.46315784302068	1.01760796915161	-1.02125836877589	-0.00439114627511961	0.00621826186120256
0.5	-1.13600110983093	0.975375781005413	943.941835334527	6.08345323439532	-7.52319655643548	0.985770097467643	-0.984799516277151	-0.00448123117370358	0.00613102540178478
0.51	-0.902151332867174	1.2410504960539	941.118065907058	6.04620504097673	-7.5368457014667	0.964186672191097	-0.959535644792986	-0.00449757177152466	0.00609325412537592
0.52	-0.795679214864159	1.49772291321437	938.64972290835	6.07453774789622	-7.50921274697984	0.954317112400834	-0.94716657873333	-0.00444728152418683	0.00610198412852442
0.53	-0.81790628009203	1.71146360841453	936.724792835241	6.16126693540318	-7.44070904710121	0.95722040195699	-0.948975289055021	-0.0043390611169829	0.00615855888177169
0.54	-0.965745022585641	1.84872868139177	935.434515656468	6.29800802852689	-7.32726292491251	0.973400429251373	-0.965666055942778	-0.00418223839596388	0.0062682277362805
0.55	-1.23288894113545	1.88207159009818	934.788282010694	6.47472123445759	-7.16340194727121	1.00244341519605	-0.996960227211189	-0.00398743422992409	0.00643691797799606
0.56	-1.60803255252577	1.79594257124961	934.744213750756	6.67836218461064	-6.94714325897422	1.04254909489905	-1.04105848043679	-0.00376823594259124	0.00666626412058241
0.57	-2.07098469266829	1.59132989795896	935.243224376574	6.89161803205921	-6.68490303003634	1.09016471548034	-1.09420168117743	-0.00354274599069604	0.00694870504222039
0.58	-2.5887877885827	1.28789978923437	936.234363900235	7.0927725898691	-6.39447061871197	1.13996496593821	-1.15060515700715	-0.00333382740839339	0.00726461636479614
0.59	-3.1144381070836	0.922622259698013	937.683018076573	7.25736693129637	-6.10459249100548	1.18535028092789	-1.20296777161731	-0.00316731001575454	0.00758292906231445
0.6	-3.59020742402707	0.544612627402409	939.560019492137	7.36164791882698	-5.85076556713236	1.21947281624678	-1.2435792948239	-0.0030681867424357	0.00786560881425447
0.61	-3.95597603310753	0.206891569296803	941.816961605931	7.38707960301429	-5.6681311854017	1.23660017554343	-1.26582753945084	-0.00305563349849802	0.00807505920936258
0.62	-4.1609188034653	-0.0433190599419155	944.358556151531	7.32469464515668	-5.58344702978779	1.23347047772913	-1.26572689316309	-0.00313823525027934	0.00818241566572264
0.63	-4.17515221004802	-0.173590290679701	947.024666121276	7.17796386601575	-5.60858118590607	1.21024547257437	-1.24302780118898	-0.00331089727762535	0.00817423547663187
0.64	-3.99734803470911	-0.172401085207144	949.591814254308	6.96320004154119	-5.73760158373353	1.1707562397021	-1.20155424783731	-0.00355452501852338	0.00805548164781683
0.65	-3.65527246866419	-0.0508178453233893	951.797337322436	6.70718019109407	-5.94841194302516	1.12193105162009	-1.14862768534452	-0.00383879406349596	0.00784785198686994
0.66	-3.19852205141352	0.160734080160893	953.381277708841	6.44245716160884	-6.20839557651235	1.07252930778521	-1.09369892821736	-0.00412744728863124	0.00758402619514936
0.67	-2.68558607882741	0.41980742844993	954.134597334029	6.20148895197756	-6.48221527706563	1.031498660996	-1.04653441683825	-0.00438483008634727	0.00729973687616692
0.68	-2.1696180864888	0.68147979968129	953.939855575936	6.01103726134716	-6.73927189442378	1.00636228565137	-1.01541620179429	-0.00458203648976796	0.00702621676528037
0.69	-1.68793292050571	0.907621169730483	952.793028559938	5.88817588130361	-6.95858336895296	1.00200653126631	-1.00578368117761	-0.00470119249034706	0.00678529587593157
0.7	-1.25885358554584	1.07351730093851	950.801596048199	5.83874443758501	-7.12989541101068	1.02009712135808	-1.01958769186623	-0.00473699193585286	0.00658833956452481
0.71	-0.886558926312941	1.17031533123512	948.161773950766	5.85835041791185	-7.2512561545348	1.05915946563133	-1.05540380925625	-0.00469542715797122	0.00643876177960173
0.72	-0.571208689522477	1.20305541235232	945.123776535546	5.93530224023794	-7.32452902891386	1.1151827411375	-1.10914033434324	-0.00459044719065338	0.00633658061294301
0.73	-0.319292250790764	1.18540379230645	941.956060803536	6.05438130564251	-7.35091908898203	1.18250326670703	-1.17504637015162	-0.00443977437894139	0.00628287716751352
0.74	-0.148943915410715	1.13315583552732	938.917210579008	6.20027787405727	-7.32835473010553	1.2547145959454	-1.24671146589029	-0.00426116427475542	0.00628227078593652
0.75	-0.0871000526703147	1.05880237452682	936.238911337934	6.35983105759744	-7.25163898713571	1.32542676743088	-1.31784040789411	-0.00407001270255802	0.00634249008565124
0.76	-0.159027435914792	0.968873284567395	934.117945522781	6.52278903549219	-7.11506595633102	1.38881325714895	-1.38273624276609	-0.00387856519624008	0.00647138556848725
0.77	-0.374396647973733	0.864606873144504	932.711811771656	6.6814073439574	-6.91618450226776	1.4399888999562	-1.43656541113174	-0.00369633281828308	0.00667278410379546
0.78	-0.716103627000684	0.745181890262601	932.132718032697	6.82959076724099	-6.65897256351604	1.47531357361081	-1.47555395344289	-0.00353092421831014	0.00694302362669841
0.79	-1.1374822942073	0.611784481539342	932.43784929627	6.96231186325425	-6.35499458169967	1.49269887719239	-1.4972469234197	-0.00338851301797594	0.00726968462913247
0.8	-1.57051056952903	0.470522846845402	933.618086601628	7.07571934304731	-6.02198823888449	1.49192273075877	-1.50086787488306	-0.00327354054944407	0.00763311763940999
0.81	-1.94326558399008	0.332733449560422	935.590456827598	7.16785093930797	-5.68038334559864	1.47486728884483	-1.48768817946119	-0.0031878087346604	0.00801024666229833
0.82	-2.20098722131415	0.212329929014651	938.199933850762	7.23943707260112	-5.34906008786849	1.44553447768226	-1.46121796932964	-0.00312957082355625	0.00837926343782452
0.83	-2.32326007457368	0.121100435246846	941.233619923562	7.29413681844089	-5.04189608472425	1.4096970346953	-1.42701296902231	-0.00309335354228935	0.00872354766426686
0.84	-2.33080069587366	0.0637789578008036	944.446038642465	7.33776128983153	-4.76626727326354	1.3741230159316	-1.39197490872347	-0.00307097576967064	0.009033532170165
0.85	-2.2788001361629	0.0349439777775634	947.590217367341	7.37651064488321	-4.52384943944106	1.34544862295076	-1.36318677296071	-0.0030536906104548	0.0093060864622807
0.86	-2.23843303993091	0.0192329622713797	950.447158017817	7.41475105163341	-4.3131703951554	1.32892031260864	-1.34651014630977	-0.00303482652523135	0.00954194826614974
0.87	-2.27230069833091	-0.00480016558948819	952.846961106494	7.4531433271883	-4.13274752141114	1.32732252410428	-1.34530554301803	-0.00301200342718888	0.00974240890415073
0.88	-2.41176154112436	-0.0581938896044422	954.677852104165	7.48786622183168	-3.98352824581438	1.34040325108853	-1.35965530874382	-0.00298809509476405	0.00990661751113669
0.89	-2.64360461110338	-0.154486151730321	955.883342419697	7.5112853572046	-3.86972849149405	1.36499198673838	-1.38635059655126	-0.00297055613465291	0.0100305029737556
0.9	-2.91057845541089	-0.294386066842012	956.451166355249	7.51388460359917	-3.79783573544549	1.39580552719176	-1.41968202932326	-0.00296932587757626	0.0101076220590074
0.91	-3.12594445976355	-0.464097540783091	956.399306558034	7.48683729262704	-3.77421680131599	1.42672673774006	-1.4528263715269	-0.0029940030642186	0.0101315303379883
0.92	-3.19792373443642	-0.638047886551539	955.764012569256	7.42442713151652	-3.80219517549614	1.45219936314568	-1.47944116978307	-0.00305116416428031	0.0100988049358924
0.93	-3.05698748693567	-0.785365414523796	954.59273817221	7.32567138268083	-3.87952798876004	1.46836230658073	-1.49503214840255	-0.00314253776328266	0.0100117483932716
0.94	-2.67820873437587	-0.878234539144436	952.942408747269	7.19484689967825	-3.99697155436673	1.47365307974211	-1.49775559479097	-0.00326436566606736	0.00988002536676347
0.95	-2.09241834831088	-0.899637952190584	950.881443852934	7.04099100857364	-4.13823786945627	1.46879455356422	-1.48851363471733	-0.00340787734561088	0.00972086781812004
0.96	-1.3830861469633	-0.848177635703678	948.493145542809	6.87668276463113	-4.28128750128746	1.4562657619822	-1.47041344318302	-0.00356055200978889	0.00955785167253037
0.97	-0.66967268522586	-0.738586498771438	945.878422503943	6.71644264200894	-4.40068114485175	1.43947756962154	-1.44781463003046	-0.00370780776378221	0.00941849014695728
0.98	-0.0816181267145056	-0.597887354959894	943.156804771871	6.57497430452163	-4.47062502264991	1.42189591871636	-1.42524124025975	-0.00383487897419232	0.00933100072823168
0.99	0.270651974653209	-0.458472466199816	940.465553944758	6.46533724505319	-4.46832407497375	1.40629511621516	-1.40639452304817	-0.00392878300225219	0.00932065180554548
1	0.320724486975039	-0.350233304734315	937.956852190932	6.39710204459209	-4.37722611186852	1.39423146039661	-1.39341614505231	-0.00398030938191063	0.0094061533131935
1.01	0.0612457839615437	-0.294009039516566	935.792553555065	6.3746395600488	-4.18967957454158	1.38575806614031	-1.38647329375395	-0.00398585009064434	0.00959663807599437
1.02	-0.454583649732411	-0.298043375352162	934.135338813858	6.3958672916763	-3.90848908778388	1.3793833346638	-1.3836983291008	-0.00394870289253202	0.00988982803962829
1.03	-1.12549808193445	-0.35808499524248	933.135092073107	6.45189022598766	-3.54692384422608	1.3722953471851	-1.38150845539558	-0.00387936476626971	0.01027189916187
1.04	-1.82573280563209	-0.460621376738213	932.910419563429	6.52790958419599	-3.12697184919952	1.36088876837024	-1.37531756568719	-0.00379441810920911	0.0107192915383483
1.05	-2.43399187063204	-0.587881910263745	933.527335707271	6.60549447938175	-2.67601512172407	1.34159507967799	-1.36059469254924	-0.00371393300533074	0.0112022860272676
1.06	-2.86064866458443	-0.722931055928587	934.979457435873	6.66589450098652	-2.22251774744266	1.31191855964233	-1.33411430941896	-0.00365777405679113	0.0116897061192495
1.07	-3.0663037705139	-0.853430188707399	937.175454550698	6.69367418219982	-1.79161956291802	1.27145357722149	-1.29512061757838	-0.00364163142093465	0.0121537684504072
1.08	-3.06699804675107	-0.973306526722211	939.939093409869	6.67974244988321	-1.40159110053216	1.22257072473439	-1.24605804774518	-0.0036738068241301	0.0125740301209573
1.09	-2.92497267332123	-1.08233800318274	943.024750275846	6.62293590641158	-1.06189319741848	1.17047466106694	-1.19256374473329	-0.00375366686364575	0.0129396067097086
1.1	-2.72790788145318	-1.18425987638292	946.147361335633	6.5296884667185	-0.773161037943491	1.12247952991221	-1.14259120933179	-0.00387224248608375	0.0132492933620207
1.11	-2.5628357133966	-1.28425634228805	949.021649595061	6.41186711178013	-0.528932826904082	1.08658410278925	-1.10479403749431	-0.00401483906976352	0.0135097661088437
1.12	-2.49235159533539	-1.38661889618763	951.402521081945	6.2833935867259	-0.318520871408439	1.06967571668887	-1.08655480184721	-0.00416492935935964	0.0137325051375007
1.13	-2.53984813634253	-1.49306740026283	953.117796277831	6.15662202533184	-0.130195370016517	1.07585211630575	-1.09219619086923	-0.00430823165462779	0.0139303368688086
1.14	-2.68753537616243	-1.60191934104837	954.086248579583	6.03948195469082	0.0461317859775605	1.10535206663704	-1.12189098584558	-0.00443585502749266	0.0141144816487046
1.15	-2.88696044291541	-1.70808487295298	954.317739002312	5.93410981501549	0.217299984171992	1.15441512581905	-1.1715879628159	-0.00454573027376914	0.0142927444579883
1.16	-3.07791985234973	-1.80378140467202	953.896905997232	5.83717979018596	0.386577011820514	1.21610120538776	-1.23395495806608	-0.00464212308061596	0.0144690886103572
1.17	-3.20928822029926	-1.87983376273459	952.95598974907	5.74158982272066	0.554440594433124	1.28179443830355	-1.30001936968596	-0.00473363987603881	0.0146444121530356
1.18	-3.25506911378476	-1.92736708234218	951.644739702869	5.63876322452973	0.719991721066107	1.34290829492902	-1.36097925714259	-0.00483056660663939	0.0148180255444787
