Time [s]	GRFml [N]	GRFap [N]	GRFv [N]	Mml [N.m]	Map [N.m]	Mv [N.m]	Mfree [N.m]	COPml [m]	COPap [m]
0.01	-0.27770284931682	0.260997643032691	575.709043288983	-13.817755089687	-12.5601145681217	0.663817557767795	-0.651533285464031	0.00364398568336333	-0.00145233215579577
0.02	-0.654977276097879	0.37061191071414	577.834250714469	-13.6626538775709	-12.4834178317171	0.646655483758398	-0.623549540720683	0.00400134264617835	-0.00123916073677532
0.03	-0.971069825180792	0.468217945863495	579.822575485706	-13.5146420482299	-12.4196758596061	0.631623322528002	-0.599338918821239	0.00434066150452517	-0.00105327451309178
0.04	-1.18121362923317	0.543527847240582	581.547673653916	-13.3798756447142	-12.3779895686373	0.620257284557261	-0.58167392445766	0.00464602797050928	-0.000914919524519942
0.05	-1.26392165046445	0.58941920569337	582.889194710259	-13.2624449320691	-12.3626650971267	0.613169847836416	-0.571806243957455	0.00490551409461404	-0.000835907240209821
0.06	-1.22468295276082	0.602857260112759	583.743148815444	-13.1639888112789	-12.3726939151007	0.609918751067888	-0.569232343028523	0.00511227609701292	-0.00081835438708705
0.07	-1.09249878116654	0.585172542467345	584.038225623874	-13.0838915905354	-12.4027076178161	0.609186338847554	-0.571945960323265	0.00526482191082478	-0.000855730382864184
0.08	-0.910074202961965	0.541639768565119	583.753083617912	-13.019925892243	-12.4450936118348	0.609223767001965	-0.577113903229081	0.00536650117420401	-0.000935853806441955
0.09	-0.720537189812159	0.480449104352598	582.928141204655	-12.9690585524831	-12.4925679673131	0.608425735151698	-0.581973292888306	0.00542447939388857	-0.00104486535145304
0.1	-0.554863287091587	0.411294601064339	581.666322757907	-12.9281150411445	-12.5403332550985	0.605851844786417	-0.584667093761436	0.00544853527556766	-0.00117088340158117
0.11	-0.424137419061106	0.343875388073245	580.1202006351	-12.8941106201517	-12.5870802538935	0.601521833462135	-0.584746169688379	0.00544993656180892	-0.00130616605559786
0.12	-0.319247000697914	0.286587201689527	578.467133659069	-12.8642418160985	-12.6344955560566	0.596383241164398	-0.583172868733787	0.00544047863207708	-0.00144714529926199
0.13	-0.218022665095154	0.245588241822226	576.878040938831	-12.8356963973564	-12.6854790216514	0.591958735573501	-0.581829731459422	0.00543162749359427	-0.00159248309412674
0.14	-0.0971398069234713	0.22430111941626	575.48798606678	-12.8055084112047	-12.7417592658169	0.589789736389079	-0.582709113270928	0.00543367676220052	-0.00174003830768671
0.15	0.0556978853516476	0.22331735605392	574.37676218841	-12.7706349853661	-12.8018364228117	0.590865440677669	-0.58707342632535	0.00545490926443237	-0.00188404614137883
0.16	0.23392189953443	0.240635089758592	573.564936362863	-12.7283001804314	-12.8600803265463	0.595235564483662	-0.594888396667456	0.00550087736096805	-0.00201373614417316
0.17	0.41164178794649	0.272175074146212	573.026084963053	-12.6765085789284	-12.9073999220924	0.601945185126686	-0.604735571707373	0.0055739882542688	-0.00211407655251722
0.18	0.550843196288824	0.312541141444463	572.710773986588	-12.6145431223736	-12.9333282554641	0.609319055990488	-0.614237643846593	0.00567354438695888	-0.00216853652035831
0.19	0.613651812839817	0.355972389258304	572.574008832228	-12.5432585790701	-12.9288510502596	0.615498815635874	-0.620843547768147	0.00579625710748533	-0.00216300661614288
0.2	0.575196908144936	0.397361530995178	572.596780502654	-12.4650520138937	-12.8890372526146	0.619045518319652	-0.622690031339989	0.00593709463485226	-0.00208959126835939
0.21	0.432422757473013	0.43312218209921	572.794400027103	-12.3834947846851	-12.8146005847461	0.6193975219157	-0.619232567095348	0.00609022682456151	-0.00194903076854125
0.22	0.205743083100219	0.46164505918397	573.208838162724	-12.3027028281904	-12.7118934759401	0.617029480102773	-0.611429561903772	0.006249838592149	-0.00175098520803341
0.23	-0.066910479557447	0.483147687313512	573.887690449903	-12.2265746455381	-12.5913588218989	0.613270119728691	-0.601432674053867	0.00641069151588258	-0.00151211897321835
0.24	-0.341358295243178	0.498901399851291	574.856793986813	-12.1580345889924	-12.4649446209011	0.60986024152782	-0.591915486052978	0.00656845812995843	-0.00125259325808019
0.25	-0.579683568893322	0.510054294016299	576.095469105439	-12.0983985818107	-12.3432586477277	0.608419915035521	-0.585293770906548	0.00671995494859667	-0.000991978212104838
0.26	-0.759698351967925	0.516458849353493	577.522338389023	-12.0469546140962	-12.2332351242166	0.61001324697287	-0.583109942490267	0.00686339877968156	-0.000745633551368419
0.27	-0.878463639173591	0.515966127886356	578.996288057056	-12.0008380671348	-12.1368430665736	0.614946698163	-0.585770419328836	0.00699870141945558	-0.000522322813269527
0.28	-0.949339877444137	0.50452732981075	580.332782227653	-11.9552792214831	-12.0510078918506	0.622837354546323	-0.592676213983324	0.00712765922080061	-0.000323377535017211
0.29	-0.994450062595122	0.477181682952403	581.331971271949	-11.9042842246279	-11.9685874628041	0.632882785796946	-0.602636102953543	0.00725378514151231	-0.000143300953826919
0.3	-1.03593191570819	0.429696228511279	581.812882165826	-11.841752543392	-11.8800457049936	0.644196047267758	-0.614358235403755	0.00738156030302251	2.85644641909166e-05
0.31	-1.08939970132456	0.360367647229938	581.647582904924	-11.7629215279468	-11.7754296138573	0.656062898820312	-0.626813882187201	0.00751507487160297	0.000205744283992948
0.32	-1.16170450149919	0.271391972114221	580.789946240177	-11.6658843979417	-11.6463313559561	0.668031520460485	-0.639350622216809	0.00765631976925651	0.000402072526768382
0.33	-1.25301602781095	0.169301650412707	579.294628898537	-11.5528074872362	-11.4876187339919	0.679830699263485	-0.651559814308617	0.00780364832737546	0.000629115432488614
0.34	-1.36137199897747	0.0642432557866312	577.322632631902	-11.4304432841972	-11.2987700115949	0.691190735133044	-0.663015754741527	0.00795101069647741	0.000893794501655332
0.35	-1.48694993523535	-0.0317600605742846	575.130524061781	-11.30964254894	-11.0846346490686	0.701677960628745	-0.673052279055695	0.0080883996003378	0.00119649229027463
0.36	-1.63373680043904	-0.107076772951292	573.04178875448	-11.2038054341076	-10.8554076119125	0.710635822300374	-0.680709513020368	0.00820357049848641	0.00153002776885131
0.37	-1.80773128242783	-0.152599054687711	571.4015480321	-11.126514068892	-10.6256345489759	0.717266063708549	-0.684890339648162	0.00828465112213961	0.00187990403184218
0.38	-2.01258777317707	-0.163125766612448	570.519932953476	-11.0888558086233	-10.412220333514	0.720814003075353	-0.684660747153009	0.00832291644781902	0.002226056395362
0.39	-2.24487654668862	-0.137662411672586	570.61374383905	-11.097077434668	-10.231685239324	0.720775538882562	-0.679560706990254	0.00831491910234061	0.00254595596703105
0.4	-2.49134813230298	-0.0787041093003054	571.758870425464	-11.1511497868474	-10.0972087881054	0.717039803942162	-0.669791311085161	0.00826337244149189	0.00281846938121139
0.41	-2.72971585071815	0.00907216182785077	573.86563405933	-11.2445830846321	-10.0161823986445	0.709917936652448	-0.656204938257024	0.00817660210094084	0.00302753702976749
0.42	-2.93295776011769	0.120109484479102	576.6850465865	-11.3654965955921	-9.98894465840891	0.700063820305574	-0.640114801958668	0.00806684195976648	0.00316468999571845
0.43	-3.07567967241546	0.248760104951057	579.846766119603	-11.4986290942084	-10.0090747581566	0.688337799013154	-0.623013798167853	0.00794796982999946	0.00322974254075115
0.44	-3.14028509569556	0.389357911042906	582.921407574977	-11.6277820707569	-10.0651620790662	0.675677167197703	-0.606316286137312	0.00783334430029003	0.00322957238856475
0.45	-3.12084508141127	0.535743397842456	585.493509582099	-11.7381627383122	-10.1435232059094	0.663013642515062	-0.591203190535444	0.00773422435091609	0.00317551227630763
0.46	-3.02351914035972	0.680679007841621	587.229009166318	-11.8182143476736	-10.2310735558089	0.651234549544573	-0.578582975429548	0.00765894463392736	0.0030802810726861
0.47	-2.86370351254118	0.815636835191674	587.923288317468	-11.8607134270393	-10.3175752634591	0.641149237627649	-0.569118078345945	0.00761274131102962	0.00295543139716714
0.48	-2.66122830944614	0.931249732272785	587.521832704455	-11.863097178237	-10.3967561502622	0.633418896377665	-0.563243214969199	0.00759799193965627	0.00280998856571907
0.49	-2.43546477858866	1.01839195394786	586.113122055353	-11.8271112397502	-10.4662062206294	0.628440496986208	-0.561129423120342	0.00761466423996038	0.00265044949486049
0.5	-2.20198719857144	1.06955608290367	583.899999797051	-11.7579349169786	-10.5263457588508	0.626224783657347	-0.562606585508022	0.00766088427326794	0.00248181148074611
0.51	-1.97161795735196	1.08005766973425	581.159467418833	-11.6629729824295	-10.5789888069547	0.626342051509324	-0.567109652227961	0.00773362161153623	0.00230899052332395
0.52	-1.75164595197702	1.04868047076448	578.200898918086	-11.5505248551726	-10.6260415762299	0.628002346379203	-0.573725782615464	0.00782947474028517	0.0021379498113791
0.53	-1.5481752464631	0.977620408729472	575.329764184459	-11.4285563142679	-10.6687082917252	0.63028565997445	-0.581380564393338	0.00794543540832504	0.00197606196306721
0.54	-1.36823723408788	0.871868806728994	572.819772116742	-11.3037869436333	-10.7073177305771	0.632465007026524	-0.589130078759799	0.00807939982174999	0.00183156683014851
0.55	-1.22055949961479	0.738360442093432	570.892790125373	-11.1812454387917	-10.7416377889969	0.634306890143239	-0.596458948074065	0.00823017825217409	0.00171232982465891
0.56	-1.11456992266456	0.585222991790468	569.704270219535	-11.0643301224565	-10.7713937378823	0.636220263661363	-0.603457920451381	0.0083968857066693	0.00162434558950769
0.57	-1.05802388643688	0.4213168460078	569.33244754186	-10.9552682487961	-10.7966837112004	0.639167141720601	-0.610784035561646	0.00857784383174787	0.00157050652920504
0.58	-1.05425974461516	0.256040273164782	569.77147405681	-10.855742732365	-10.8180801652133	0.644331512095087	-0.619382309982144	0.00876938400792482	0.00155005634545718
0.59	-1.10029330536044	0.099208642101455	570.930563404929	-10.7673997699901	-10.8363702551735	0.652636806056022	-0.630040665315452	0.00896508572538968	0.00155891602178937
0.6	-1.1866928121476	-0.0392282918190697	572.641943298142	-10.6919962777034	-10.852055857375	0.664270077467443	-0.642923380732411	0.00915592291718803	0.00159078250454708
0.61	-1.29953014939861	-0.149788761078038	574.679401024975	-10.6310871161173	-10.8648443777898	0.678386490223414	-0.657253942706868	0.00933151637243601	0.00163865360392013
0.62	-1.42390519709459	-0.224394701708291	576.786772073392	-10.5853458519119	-10.8733776409858	0.693122144279559	-0.67128418155695	0.00948228613092594	0.00169630706910251
0.63	-1.54787189848704	-0.257515568069379	578.712799206297	-10.5537909112615	-10.8753668018745	0.705949249156388	-0.682601849099966	0.00960191006764455	0.00175929484071713
0.64	-1.66531586843305	-0.24730464650265	580.246501537766	-10.5332802679624	-10.8681595880911	0.714295049084116	-0.688719459853868	0.00968927920185936	0.00182518579492275
0.65	-1.77658838266359	-0.196475736651111	581.246391146286	-10.518595153531	-10.8496156459863	0.716252408617323	-0.687788631658453	0.00974920128379875	0.00189303547078101
0.66	-1.88644961053023	-0.112671667001773	581.65785503151	-10.5032558708735	-10.8190584185064	0.711168497557723	-0.679229756618208	0.0097914494053789	0.00196229455162239
0.67	-1.9998771045971	-0.00811421519208118	581.515485635015	-10.4809536537234	-10.7780393754081	0.699924907003688	-0.664077005561385	0.00982827893774818	0.0020315195728608
0.68	-2.117188245663	0.101589658179964	580.930368871175	-10.4472337264883	-10.7306946311954	0.684810982037168	-0.644913183918511	0.0098710622768774	0.00209728739426346
0.69	-2.23035185412414	0.199461816785167	580.065445433283	-10.4009225976043	-10.6835721686522	0.669013964636409	-0.625386040017103	0.00992702469270157	0.00215364757581188
0.7	-2.32212599256814	0.26975999939457	579.104287802065	-10.3448176513879	-10.6449265595797	0.655864849327852	-0.60942070597405	0.0099970807729981	0.00219230730160463
0.71	-2.36880045212374	0.300739472100621	578.219528139993	-10.2853484395015	-10.6235886913542	0.648050306047652	-0.600333052399404	0.0100754599175735	0.00220356959572959
0.72	-2.34611664643315	0.286988874501125	577.546657611446	-10.2312156142408	-10.6276047539349	0.647006767184809	-0.600077932293874	0.0101512764864183	0.00217786694789845
0.73	-2.2367856021272	0.23075933426575	577.167267380207	-10.1913190984801	-10.6628952345418	0.652653383874734	-0.60882694310784	0.0102116206667375	0.00210757349783891
0.74	-2.03731674715659	0.141876899837486	577.103519766996	-10.1725059422936	-10.7322046786517	0.663517585393572	-0.624976699894083	0.0102453004492633	0.00198866928972341
0.75	-1.7618611741256	0.0361386411248544	577.323302747736	-10.1777344714442	-10.8345847648726	0.67719425060303	-0.645570614815327	0.010246183338633	0.0018218084771689
0.76	-1.44150434755221	-0.0675439430846554	577.753620764992	-10.2051456505085	-10.965564207676	0.690991155498203	-0.667009685212184	0.010215214871691	0.00161244443410546
0.77	-1.11872586145853	-0.150682587608575	578.298597635734	-10.2482860471282	-11.1180093408806	0.702573353435874	-0.685859880782729	0.0101605836829587	0.00136989353377931
0.78	-0.838205560334164	-0.198696212772544	578.858088962116	-10.2974121912662	-11.2834953933848	0.710435391783075	-0.699551322681847	0.0100960357592943	0.00110552954367338
0.79	-0.636343726919508	-0.203627817642207	579.343266294971	-10.3415183114852	-11.4538450136268	0.714094090375523	-0.706807492462701	0.0100378482853676	0.000830595138231527
0.8	-0.532383249873586	-0.165567947173111	579.686548623643	-10.37055562857	-11.6224142017873	0.713984393528378	-0.707726253578597	0.0100013030728408	0.000554279025098581
0.81	-0.523671183991099	-0.0925478063164819	579.844797740115	-10.3772999695504	-11.7847650752033	0.711128470154911	-0.703533041852613	0.00999756439653532	0.000282651155349922
0.82	-0.58645099574802	0.00102115899585846	579.796534828618	-10.3584667046587	-11.9385602781256	0.706707176495946	-0.696111109675659	0.010031674831956	1.87681536818474e-05
0.83	-0.681983326335144	0.0970125303419844	579.535654948231	-10.3149080061704	-12.0827856630968	0.701676150589033	-0.687460009583827	0.0101020264546244	-0.000236153894480562
0.84	-0.766266949801275	0.176818841447745	579.065137780104	-10.2509737899324	-12.2166533501581	0.696534642810646	-0.679230249290333	0.0102012703088308	-0.000480994412380364
0.85	-0.800672029202882	0.224537670660332	578.394067032884	-10.1733020039313	-12.33865292308	0.691289010420977	-0.672435154785316	0.0103183041109204	-0.00071311526473844
0.86	-0.760700111697293	0.22953099365308	577.539741609111	-10.0893883693686	-12.4461489628484	0.685581570348519	-0.667371641994501	0.0104407878647701	-0.000927519111899033
0.87	-0.640828047674169	0.187931168738056	576.534224992329	-10.0062710055206	-12.535691639293	0.678906878521093	-0.663717549597968	0.0105575910743353	-0.00111710456930592
0.88	-0.454655746749173	0.102907068590564	575.432261441613	-9.92957882042275	-12.6039100182201	0.670827596503405	-0.660736458836472	0.0106606539265939	-0.0012739131928543
0.89	-0.230885498896089	-0.0162241680757887	574.31613376053	-9.86307041692041	-12.6486218099288	0.661128184113834	-0.65751823273967	0.0107459162420306	-0.00139089816614407
0.9	-0.0065867958182506	-0.155725440464067	573.293428000838	-9.80866467191815	-12.6697161011952	0.649887361492698	-0.65320468160332	0.0108131963223206	-0.00146358956152137
0.91	0.180467825627212	-0.299575157336989	572.485780561599	-9.76685797707265	-12.6694706173299	0.637484813507466	-0.647175405651699	0.0108651462933801	-0.0014911289717463
0.92	0.298818937740909	-0.431597172527829	572.00976943314	-9.73735114865627	-12.6521947986837	0.62456768311582	-0.639182605988851	0.0109056235170755	-0.00147642648115009
0.93	0.328614183480157	-0.537303263666475	571.954034773415	-9.71968060503901	-12.6233396166759	0.611988920109131	-0.629421647969374	0.0109379497983355	-0.0014255170288992
0.94	0.264622780589579	-0.605331964486751	572.358423583669	-9.7136682257972	-12.5883846162244	0.600708964887366	-0.618516338648857	0.0109635435460176	-0.00134642738201202
0.95	0.116779033909424	-0.628482602239329	573.200886698767	-9.71956991308843	-12.5518490527502	0.591645552323267	-0.607400369352783	0.010981293721312	-0.00124793746557617
0.96	-0.0917137334681237	-0.604360634029586	574.396089516599	-9.73790120819735	-12.5166848450647	0.585475211923186	-0.597099689827407	0.0109878239938525	-0.00113853948229908
0.97	-0.328482823694915	-0.535591084156484	575.806826553343	-9.76902447811337	-12.4841483149143	0.582427762752242	-0.588460626787602	0.0109785314156605	-0.00102573402830325
0.98	-0.557753684247392	-0.429498484333358	577.266197994186	-9.81266383852393	-12.4540856455454	0.582149115882294	-0.58190630994444	0.0109490555606175	-0.000915642416649765
0.99	-0.746860716709023	-0.297175841374416	578.605927164175	-9.86754179344069	-12.4254606240667	0.583711933673248	-0.577315130987344	0.0108967141480169	-0.000812825694533281
1	-0.872243275574651	-0.151998106116381	579.684760722395	-9.93129197799147	-12.3969273612431	0.585815016463449	-0.574084659566601	0.010821468743074	-0.000720204546393433
1.01	-0.923593890954223	-0.00782237616312781	580.410877252329	-10.0007061370764	-12.3672946939921	0.587140686220234	-0.571378132462953	0.0107261481285826	-0.000639043186124122
1.02	-0.905144926404013	0.122750108920417	580.753595339297	-10.0722544212015	-12.3358076772546	0.586765420710868	-0.568474208247726	0.0106158983656567	-0.00056903738576497
1.03	-0.833764685907586	0.229688291997644	580.742099390112	-10.1427209301213	-12.3022442898671	0.584479000976352	-0.565088987393308	0.010497062549354	-0.000508575911295106
1.04	-0.734382135957192	0.306231656499559	580.451856581814	-10.2097580749638	-12.2668647532711	0.580885220955775	-0.561539116715787	0.0103758425198078	-0.000455199974767728
1.05	-0.63397797187408	0.349033635242288	579.982226652817	-10.272196694425	-12.2302528367793	0.577231012684718	-0.558671007092568	0.0102571193183445	-0.00040618527592623
1.06	-0.555717375668495	0.357995261249412	579.430811837199	-10.3300376112841	-12.1930711088463	0.575012761833814	-0.557572980863658	0.0101437183503175	-0.000359070704959441
1.07	-0.514657288452252	0.336064731457295	578.870840794375	-10.3841571046313	-12.1557423195743	0.575496509839511	-0.55917641181871	0.0100362474594791	-0.000311921244619817
1.08	-0.515922462819819	0.289131705024939	578.337092040047	-10.4358424175369	-12.1180860600623	0.579325108939186	-0.563900096264345	0.00993347374249587	-0.000263179638129107
1.09	-0.555518669461553	0.225909613099619	577.823681672106	-10.4863064161909	-12.0789820119022	0.5863539778774	-0.571477761086637	0.00983308745369671	-0.000211121678689197
1.1	-0.623267489974278	0.15751500937212	577.293989463167	-10.5363091702316	-12.0361750991552	0.595769957061067	-0.581037114155296	0.00973264883292035	-0.000153121725780081
1.11	-0.706870082284054	0.0964386812000575	576.699854048616	-10.5859573599113	-11.9863500545797	0.606439593647334	-0.591399608807196	0.00963051593723241	-8.50701240472929e-05
1.12	-0.795910886300524	0.0547939872508381	576.004745324569	-10.6346897093417	-11.9255580099207	0.617346482617394	-0.601483496143556	0.00952658213051882	-1.28871800103569e-06
1.13	-0.884703177127428	0.0420556304179741	575.204538396135	-10.6814126899425	-11.8499747794669	0.627945285404491	-0.610653060392117	0.00942268867737761	0.000104858501036864
1.14	-0.973230781637078	0.0628247859681872	574.340033793188	-10.7247338835582	-11.7568385959861	0.638294519192447	-0.618879035373227	0.00932261715239247	0.000239722193229763
1.15	-1.06600152971514	0.11532071983124	573.497364742243	-10.763242706542	-11.6453054870083	0.648917970192787	-0.626649753116659	0.00923162059244986	0.000407827290428653
1.16	-1.16929217530168	0.191207601902134	572.795441027362	-10.795795357028	-11.5169277545005	0.660452730907	-0.63467049789787	0.00915553375445199	0.000610541508005713
