Time [s]	GRFml [N]	GRFap [N]	GRFv [N]	Mml [N.m]	Map [N.m]	Mv [N.m]	Mfree [N.m]	COPml [m]	COPap [m]
0.01	-3.49338275630345	1.02354055964225	728.520267444869	5.89958381030909	-18.9158373281525	1.03953536490865	-1.04125330010144	0.00890531908911874	0.0045651892992723
0.02	-3.23572350589518	0.501738519790642	727.585694222222	5.72835446628544	-18.7825120531	1.04356692657932	-1.05605060493629	0.00866976939459863	0.00471808828299236
0.03	-2.98443215357536	0.0348137836839915	726.574328790252	5.56330086197893	-18.6542765234227	1.05202565792441	-1.07395471167776	0.00844347193314576	0.00486147999299602
0.04	-2.74522067628144	-0.330733035467812	725.441015833684	5.41077284106357	-18.5369341376277	1.06770847258516	-1.09665158030244	0.00823562163678093	0.00498592405492604
0.05	-2.52237953832076	-0.564648599648989	724.202599115265	5.27755523858314	-18.433477630143	1.09061030635308	-1.12342661135834	0.00805543111688045	0.00508796319393418
0.06	-2.3180491390395	-0.657901526122513	722.939272462134	5.170515414842	-18.3433649848493	1.11781888698737	-1.15117776114708	0.00791162628264319	0.00517116266970508
0.07	-2.1320810357812	-0.623721114955702	721.773202849732	5.09567680997742	-18.2626661226159	1.14442363870295	-1.17534569685409	0.0078113626233135	0.00524517098615607
0.08	-1.96282941537429	-0.494102888917647	720.833460561669	5.05690399568792	-18.1848965475471	1.16507635085636	-1.1913870200329	0.00775873719104125	0.00532336707005232
0.09	-1.80875927775138	-0.312305338566129	720.220302313063	5.0545731421315	-18.1022041072702	1.1756386898439	-1.19623977148124	0.00775329294538629	0.00542000176934054
0.1	-1.67028918287812	-0.123045935876974	719.98066752108	5.08469841655538	-18.0065615591686	1.17436498262624	-1.18927046852608	0.00778905369917693	0.00554771669732912
0.11	-1.55113775266749	0.0371140328577566	720.101558743784	5.13894420460186	-17.8907103767134	1.1622675110948	-1.17240892119334	0.00785461674586418	0.00571601560108376
0.12	-1.45872687457147	0.146663104624135	720.521226997415	5.20576035377161	-17.748741529436	1.14260748058592	-1.14947504027509	0.00793462466132877	0.00593083872243261
0.13	-1.40371815492413	0.201541680688911	721.152368005072	5.27256749284139	-17.5763347582621	1.1197404150408	-1.1249704983212	0.00801256281321649	0.00619501052176236
0.14	-1.39915311301354	0.212619225175937	721.908644191149	5.32857437580258	-17.370778716869	1.09772994670906	-1.10276099123856	0.00807438277256411	0.00650909820737683
0.15	-1.45964081532361	0.199280275506569	722.726245552897	5.36753790766981	-17.1309467477573	1.07918109629523	-1.08507384452658	0.00811207950907822	0.00687216549378106
0.16	-1.60058957747218	0.181259942413863	723.575106242081	5.38968039801012	-16.8573991496456	1.06463681647208	-1.07209723043149	0.0081261974698027	0.00728201445203613
0.17	-1.83692818420296	0.171262239748729	724.458312138204	5.40211610679043	-16.5527168644186	1.05267776012194	-1.06225072058472	0.00812639927999947	0.0077347329239188
0.18	-2.18055042450275	0.170479753110424	725.401683647712	5.41749866728013	-16.2220484599611	1.04063764178872	-1.05298046840568	0.0081296958631627	0.00822364719196261
0.19	-2.63612828752039	0.168100996276144	726.437572841399	5.45109229850856	-15.8736998453594	1.02566724642344	-1.04178484565982	0.00815659066010699	0.00873805017221696
0.2	-3.19589101441374	0.144628371550625	727.587405775291	5.51694297271105	-15.519467478073	1.00579813395488	-1.0271357255828	0.00822602842035891	0.00926225760172134
0.21	-3.83501443294527	0.0777594983785336	728.846849997326	5.6241187859404	-15.1743745252747	0.980686317928254	-1.00902582002527	0.00835043597824081	0.00977556883264935
0.22	-4.50981668404008	-0.0509871808162887	730.176335540832	5.77399026569418	-14.8555612811698	0.951836097784259	-0.989010174163398	0.00853214349918663	0.0102535377296176
0.23	-5.16058660678116	-0.25070191363328	731.498510827584	5.95922215643746	-14.580305745054	0.922270492122088	-0.969770086646262	0.00876206766881404	0.0106706135539371
0.24	-5.71956154444048	-0.5178699545962	732.703256481062	6.16465353423006	-14.3634485555789	0.895775034355055	-0.954361353022638	0.00902086988971407	0.0110037800247791
0.25	-6.12276121215115	-0.836075391331447	733.660006730621	6.36973192715349	-14.214764138106	0.875951339254444	-0.945381641327093	0.0092821205761412	0.0112364409942728
0.26	-6.32279725476173	-1.17844321045038	734.236145153239	6.55181541751392	-14.1369456238974	0.865350198592832	-0.944291612313587	0.00951654569343185	0.0113616152337048
0.27	-6.29910373839066	-1.51207451491969	734.319088940731	6.68956158205126	-14.1247853045603	0.864909238212885	-0.951060176937032	0.00969633155004401	0.011383598194507
0.28	-6.06260925464831	-1.80341653499432	733.838547721333	6.76576623349332	-14.1658439001836	0.873817197395446	-0.964200719973745	0.00979868553920249	0.0113176141958459
0.29	-5.65351596477229	-2.02345255998994	732.784729243749	6.7692887859517	-14.2425016265921	0.889799664113115	-0.981154045892171	0.00980823436617151	0.0111875036988031
0.3	-5.13293722821264	-2.15175921519653	731.218357773352	6.69596800934256	-14.3349101993933	0.909707713369456	-0.998885804254375	0.00971819428172072	0.0110219915332644
0.31	-4.57087918413279	-2.17879919313681	729.26946073583	6.54859813706736	-14.4241446411709	0.93022294093348	-1.01452331100365	0.00953044269858472	0.0108503996379931
0.32	-4.0338255157132	-2.106220155047	727.123845401123	6.33608778989877	-14.4948502118757	0.948485746982014	-1.02586704799002	0.00925464799440734	0.0106987178614109
0.33	-3.57483041064534	-1.94532894399943	724.998638868493	6.07192036730729	-14.5368718166996	0.962503671750813	-1.03166736072492	0.00890656562522152	0.0105867502356577
0.34	-3.22784354078491	-1.71422483056687	723.110667029901	5.77205427492576	-14.5456552180371	0.971280066216529	-1.03163515566023	0.00850560566964409	0.0105267143173568
0.35	-3.00655951844616	-1.43425507597848	721.643265638468	5.45249091045184	-14.521516405033	0.974688866026792	-1.0262298428441	0.00807189101128414	0.0105233131108073
0.36	-2.90695571376734	-1.12649117989845	720.717913616857	5.12687752054859	-14.4681073026656	0.97318202021054	-1.01631715928135	0.00762323026215161	0.0105750155450285
0.37	-2.91214357690517	-0.808839548234261	720.376580893952	4.80462174341489	-14.3905278478856	0.967440313092814	-1.00280575770546	0.00717261195330543	0.0106761080127529
0.38	-2.99816245888469	-0.49423157820538	720.578827830115	4.48998051447317	-14.293550363636	0.95807009153154	-0.986359565651718	0.00672684825194725	0.0108190067269724
0.39	-3.1396271421413	-0.190111567330973	721.214694091515	4.18239534483531	-14.1803527878735	0.945420505676185	-0.967253925515968	0.00628677517026666	0.0109963271352218
0.4	-3.31442937006576	0.100826050800436	722.130816622785	3.87800771461389	-14.0520211965068	0.929559451937066	-0.945406082659859	0.0058489826996595	0.0112022852911166
0.41	-3.50687838272554	0.378976608055097	723.163875107689	3.57191333758683	-13.9078934295201	0.910406179354865	-0.920568119611159	0.00540854849436168	0.0114331649989199
0.42	-3.70882521965185	0.645798066702882	724.173378930897	3.26045241204286	-13.7465973784453	0.887976161208563	-0.892625518811637	0.00496188595853619	0.0116868227445621
0.43	-3.9186093863782	0.902070200586216	725.065803652701	2.94280597591178	-13.5674347338367	0.862655351390897	-0.861905632597633	0.00450875970879872	0.0119614812211989
0.44	-4.13816760092523	1.14699037626321	725.804421273257	2.62140804944027	-13.3716381621985	0.835399685047434	-0.829382978088012	0.0040528175225869	0.0122542988187248
0.45	-4.36923821130444	1.37834877030361	726.403305201859	2.30110977117315	-13.1630455218044	0.807766360350671	-0.796687275039035	0.00360053725855236	0.0125602987360954
0.46	-4.61001368147534	1.59360439663232	726.908648822024	1.98748319714505	-12.9479066412617	0.781731065911946	-0.76587789304513	0.00315907718505404	0.0128721354513386
0.47	-4.85356926177129	1.79131219835758	727.374137192957	1.68495243257675	-12.7338223896945	0.759317955398644	-0.739028601512087	0.00273391463372363	0.0131808844191161
0.48	-5.08883398734875	1.9721990786226	727.838414728357	1.39547263974497	-12.528116231261	0.742140809350122	-0.717739379520903	0.00232720578175583	0.0134776618972668
0.49	-5.30393254598452	2.13933836151311	728.311324374183	1.11823637006717	-12.3361457409292	0.730996233625598	-0.702728122915619	0.00193748698245744	0.0137555577828882
0.5	-5.49077387522665	2.29727566137756	728.772194825968	0.850474534521335	-12.1600999193413	0.725645720047411	-0.693639505936295	0.00156079930298259	0.0140112186041996
0.51	-5.64918673421805	2.45043944726856	729.17936184168	0.589003818297618	-11.9986865361079	0.724873667258185	-0.689146648306567	0.00119277327921674	0.0142455029042087
0.52	-5.78894482373862	2.60150808366072	729.486773181043	0.331915594834938	-11.8478469158629	0.726829643733024	-0.687335432064408	0.000830874653777625	0.0144629107684225
0.53	-5.92867016089814	2.7504438028471	729.661915370556	0.0797943611481788	-11.7023374023743	0.729579653289397	-0.686278769092206	0.000476004918527506	0.0146698591553975
0.54	-6.0916044031105	2.89462137583769	729.699612818011	-0.163918501686669	-11.5577805418678	0.731726284406906	-0.684651722050051	0.000132953725071272	0.0148722103319646
0.55	-6.29923240886541	3.03000014878092	729.627994180405	-0.393448317289225	-11.412674266538	0.732928054296545	-0.682221022732535	-0.000190333292116263	0.0150726657232266
0.56	-6.56441099940122	3.15282580731955	729.505276083713	-0.601812752833628	-11.2698661835974	0.734161855689762	-0.680066706240641	-0.000484286816653023	0.0152686724002251
0.57	-6.88583118921818	3.26110755938209	729.408242627554	-0.782112900822775	-11.1371264875793	0.73762792359096	-0.680453434024266	-0.000739463382483208	0.0154513703899155
0.58	-7.24533524357361	3.35520477111893	729.414996471261	-0.928616722387257	-11.0266447848436	0.746283905478877	-0.686352491479814	-0.000948016926270556	0.0156058842517393
0.59	-7.60895998406354	3.43724154998245	729.585646491463	-1.03748104220246	-10.953494175057	0.763094811746702	-0.700705400806906	-0.00110469109133393	0.0157129852250265
0.6	-7.931766661546	3.50959219955047	729.94513289707	-1.10719686855222	-10.9333202140255	0.790174109423532	-0.725596244110205	-0.00120744793372729	0.0157518654662933
0.61	-8.1657010789924	3.5731294228807	730.472346606188	-1.13895825400583	-10.9796944910067	0.828042054619775	-0.761541560559333	-0.00125799789593206	0.0157035135781556
0.62	-8.26901636740632	3.62610787148856	731.098898556175	-1.13707687518711	-11.1016863980216	0.875220563200221	-0.807098271057522	-0.00126238468314488	0.0155540066872764
0.63	-8.21528167906845	3.66436967092755	731.719145097093	-1.10933797257663	-11.3022101260506	0.928313031896412	-0.858926332604387	-0.00123147019572423	0.0152969912840267
0.64	-7.99981668635536	3.68304352587069	732.21043253194	-1.06696055529475	-11.5775660712026	0.982594582290417	-0.912333524997936	-0.00118085302964521	0.0149347551867817
0.65	-7.64168299259833	3.67923825665416	732.45949980171	-1.02375120294377	-11.9183218513092	1.03299354724908	-0.96220008500058	-0.00112966293614658	0.014477600242895
0.66	-7.18023043631438	3.65466578798607	732.388534924154	-0.994221630280291	-12.3113258833219	1.07522070355544	-1.00406653418094	-0.00109792972315892	0.0139416529942261
0.67	-6.6665735703233	3.6169258025383	731.973622978578	-0.990838873331422	-12.742320494765	1.10674034423628	-1.03510545711573	-0.00110277495636901	0.0133456820287092
0.68	-6.15194422792077	3.578494651467	731.249978744262	-1.02103058765328	-13.1984409304834	1.12730333331406	-1.05471205790608	-0.0011542935855956	0.0127077805894436
0.69	-5.67609431129055	3.55324589585077	730.302274436664	-1.08486046624687	-13.6699364280345	1.13887679585569	-1.06454195653145	-0.00125238497775282	0.0120428000958523
0.7	-5.25923824667918	3.55134355019929	729.243338188376	-1.17425540012725	-14.1507356584023	1.14497834988233	-1.06797516224491	-0.00138573601922221	0.0113611447163617
0.71	-4.90009944351762	3.57420590650934	728.188570731922	-1.27427575669071	-14.6379089808521	1.14960300019458	-1.06914965150581	-0.00153361488370296	0.0106690354395995
0.72	-4.5806118665349	3.61155115482475	727.234746540027	-1.36629607954957	-15.1304866289611	1.15606026619896	-1.07183640831459	-0.0016702753489406	0.00996980727832347
0.73	-4.27540556470534	3.64208551406525	726.449601966636	-1.43233196661039	-15.6282969949676	1.16607309501426	-1.07847843598401	-0.00177091019969511	0.00926544220092956
0.74	-3.96236023475693	3.6382498579626	725.873551733297	-1.45934477854989	-16.1313875577498	1.17941238222655	-1.0896691706827	-0.00181754875475548	0.00855753472306581
0.75	-3.63010816377326	3.57397504773844	725.529233628951	-1.44232854648629	-16.6402139327866	1.19417084107038	-1.10421028557707	-0.00180326818452015	0.00784726031905825
0.76	-3.27970396809504	3.43316371501853	725.431041606861	-1.38534271766812	-17.1563011429625	1.20756893091946	-1.11970346713269	-0.0017335888087251	0.00713451059251774
0.77	-2.92026226453199	3.21613120370596	725.587195071501	-1.30027394153025	-17.6827364311673	1.21700311531557	-1.13345400219219	-0.00162477287236817	0.00641689035703236
0.78	-2.56107464943477	2.94174836438135	725.99119080418	-1.20378042017514	-18.2238385511125	1.22095906688171	-1.14335819516037	-0.00149965675472263	0.00568946393364106
0.79	-2.20430263334014	2.64439068893804	726.605743440392	-1.11337683845258	-18.7837052624733	1.21945854232214	-1.14845603035155	-0.00138232487221757	0.00494586487999849
0.8	-1.84202906564194	2.3665195758282	727.347539042465	-1.04380376354888	-19.3639207416233	1.21388147063999	-1.14896105038572	-0.00129317627519721	0.00418074709888044
0.81	-1.45934480886047	2.14915702344798	728.082680450043	-1.00464808895319	-19.9612320182676	1.20624649665671	-1.14578891955701	-0.00124568666183855	0.0033928492165502
0.82	-1.04222227694788	2.02313124003777	728.639608557061	-0.99971316428245	-20.566206654252	1.19825108979206	-1.13981374525643	-0.00124553137185168	0.0025875138623721
0.83	-0.586567199437011	2.00356250110639	728.839674113164	-1.02804233146153	-21.1636322696202	1.19047423442456	-1.13119804948909	-0.00129193162661501	0.0017775749612356
0.84	-0.1041718137459	2.08882456592991	728.538157209031	-1.08597888759065	-21.7347943407474	1.18208111363563	-1.11911213790777	-0.00138038764345461	0.000982090881826825
0.85	0.377364152663686	2.26366255176019	727.663525120058	-1.16937101819683	-22.2610340177523	1.17116086321325	-1.10198877306841	-0.00150559786357107	0.000223218160007976
0.86	0.82096775226445	2.50486677927986	726.242250865386	-1.27508535161266	-22.7274648133211	1.1555624928297	-1.07822199320282	-0.00166344308950217	-0.000477770021982404
0.87	1.19011455460004	2.78733411742676	724.400870231206	-1.40134223347474	-23.1256501838382	1.13388584282087	-1.04702025010952	-0.00185138852287681	-0.00110402480083127
0.88	1.45840238671989	3.0886218956077	722.344438489616	-1.54688920610099	-23.4544522856323	1.10622360394107	-1.00905199066113	-0.00206733592628594	-0.00164517311164947
0.89	1.61489694364325	3.39101216284478	720.318208012568	-1.70949500744299	-23.7189812423214	1.0743588861656	-0.966605018472922	-0.0023075851065264	-0.00209749619918581
0.9	1.66352928353708	3.68123615647034	718.564209711129	-1.88450511804011	-23.9282939347789	1.0413468765384	-0.923177176041715	-0.00256491114350366	-0.0024626331425297
0.91	1.61758292605274	3.94890523346669	717.284720270125	-2.06416557363394	-24.0929035462233	1.01064875854102	-0.882636335559156	-0.00282771578385355	-0.00274575756298034
0.92	1.49245880578297	4.18503664965638	716.620502675469	-2.23811885749633	-24.2230965498507	0.985143728619325	-0.848241733650619	-0.00308080022102752	-0.00295425759837759
0.93	1.3004617248025	4.38176912961748	716.645217873901	-2.39502359672808	-24.3285565171387	0.966367421175159	-0.821853566671625	-0.00330769145542287	-0.00309754017803765
0.94	1.0500928921531	4.53359760246134	717.371443870663	-2.52481582204547	-24.4191011423933	0.954219223608658	-0.803574730513482	-0.00349386012535058	-0.00318788140647763
0.95	0.749895253046514	4.63955275078841	718.760829513894	-2.62086905774427	-24.5057736671097	0.947200758574183	-0.791912141003726	-0.00362980460360163	-0.00324159025474996
0.96	0.414462953117034	4.70508942212015	720.732035492826	-2.68131387187547	-24.6013558202215	0.943064952599649	-0.784376978983434	-0.00371296981414726	-0.00327946147446212
0.97	0.068964240557807	4.74231963245085	723.16429522399	-2.70904048316782	-24.7196685943789	0.939630633457453	-0.778317404164848	-0.00374781934594515	-0.00332572171332507
0.98	-0.250944355215656	4.76772474263844	725.899240126229	-2.71033538183362	-24.873660221996	0.935484789585024	-0.771725456023432	-0.0037439625703467	-0.00340533610936627
0.99	-0.504833025999213	4.79745770483257	728.746432524071	-2.69254514877038	-25.0729484953018	0.930354648020331	-0.763788206446925	-0.00371285462259374	-0.00354034744299325
1	-0.657139286375317	4.84144452021021	731.497298088745	-2.66146966439393	-25.3218657825214	0.925057751349913	-0.755045598745279	-0.00366403307801855	-0.00374649158389223
1.01	-0.686936553638211	4.89827319631022	733.948188242729	-2.61926832421437	-25.6189561020966	0.921084565632728	-0.747141203908643	-0.00360199522494076	-0.0040313867609777
1.02	-0.593559849451176	4.95295941518046	735.928166330448	-2.56350382420586	-25.9583199028764	0.91998396223558	-0.742267216321038	-0.00352462584592483	-0.00439506934766354
1.03	-0.395251128117646	4.97897561095933	737.323485924013	-2.48761156300244	-26.3324278839047	0.92276835928035	-0.742476415252347	-0.00342363353114006	-0.00483274262941136
1.04	-0.120773906816554	4.94460362974707	738.090590180931	-2.38267679021735	-26.7353678386055	0.929521070367382	-0.749044767169588	-0.00328688660821685	-0.00533869159251177
1.05	0.203072551882613	4.8221564014866	738.253083687167	-2.24004052175017	-27.1652393645746	0.939295006197649	-0.762026643109287	-0.0031020166464566	-0.00590978769750911
1.06	0.563210844286364	4.59745035863653	737.883957086082	-2.05402845230495	-27.6246885256935	0.950283653441952	-0.780077016527727	-0.00286031005638621	-0.00654710367934275
1.07	0.966514942786698	4.27654213957161	737.079756898772	-1.82405403047694	-28.1192734896365	0.96016768813967	-0.800551611361828	-0.00255981661482252	-0.0072548643590008
1.08	1.43771307733784	3.88735336663067	735.935955556721	-1.55549453791378	-28.6541904766166	0.966518716383294	-0.81985439904437	-0.00220678800715002	-0.00803700491527426
1.09	2.00935316124677	3.47524384817191	734.531385685118	-1.25904573980882	-29.2305268006066	0.967170686186646	-0.833980933217613	-0.00181498130769886	-0.00889257605549304
1.1	2.70730221511385	3.09341259807758	732.924978797705	-0.948660394024969	-29.8423894041297	0.960521695910882	-0.839192156764425	-0.00140292944807996	-0.00981173427066623
1.11	3.53698177159211	2.79061789455611	731.162381434062	-0.638574312041246	-30.4759198329052	0.945771234101696	-0.832734068570966	-0.000989856784633147	-0.0107738823486287
1.12	4.47525467972377	2.59957734185093	729.28594616546	-0.340212288110333	-31.1105025354609	0.923109978415915	-0.813493855516909	-0.0005913447001612	-0.0117487528833847
1.13	5.47076514281163	2.52924480736843	727.340966555734	-0.059848883330461	-31.7217007509454	0.893861709425001	-0.782466063903332	-0.000215989163692365	-0.0127001707722018
1.14	6.45252344521168	2.56302131577294	725.374049201408	0.202273740275766	-32.2849232565656	0.860546600553252	-0.742910460443917	0.00013593442550508	-0.013591311020223
1.15	7.34384089167283	2.66322897802262	723.42463541127	0.451071366515764	-32.7787221267885	0.826812960269293	-0.700124932458867	0.000471340932749365	-0.0143898325582142
1.16	8.07731759274633	2.7804330164816	721.515299901474	0.6942129283796	-33.1869339337304	0.797183890601498	-0.660824999681783	0.000801021468345264	-0.0150714473075435
1.17	8.60678170177647	2.86498098003156	719.648159500575	0.938899428743761	-33.4994153560152	0.776588987112978	-0.632197799907305	0.00113512418848483	-0.0156211500971398
1.18	8.91351149125724	2.87776495098124	717.812488392183	1.18882682178184	-33.7116277755245	0.769694546853067	-0.620763903306361	0.00147883062897758	-0.0160321831856195
