Time [s]	GRFml [N]	GRFap [N]	GRFv [N]	Mml [N.m]	Map [N.m]	Mv [N.m]	Mfree [N.m]	COPml [m]	COPap [m]
0.01	-0.485549732874415	-0.106996663706588	741.577889627643	0.19781764208008	-21.008617763211	0.886242777272413	-0.889284026880145	0.00697936876529359	0.0035055535002444
0.02	-0.236601201094567	0.127910332198673	737.800214811893	0.0484665730022767	-21.0076556717198	0.890116816325092	-0.886446558971167	0.00677604082213024	0.00336087605631696
0.03	0.00306799738036077	0.362405973002178	734.161644204358	-0.106316079344818	-20.9995920472159	0.892416456031393	-0.882081508005451	0.00656481538288567	0.0032312669399836
0.04	0.222888706055911	0.59524463476549	730.778722243981	-0.270954173319717	-20.9789085785473	0.891951445723414	-0.875056216927177	0.00633923690659899	0.0031288344917545
0.05	0.406770193923324	0.82196934032951	727.768754341142	-0.446893421869572	-20.9410727118598	0.888082989070673	-0.864856738096891	0.00609714562911023	0.00306445815057638
0.06	0.533243674411215	1.03459183743972	725.243477080305	-0.631915109758065	-20.8828562917316	0.88076857232098	-0.851639029350663	0.00584166803293118	0.00304709200077774
0.07	0.578818075312187	1.22255376779529	723.297375850107	-0.820197592770238	-20.8027114122503	0.870460176689721	-0.836106244441502	0.00558112074176487	0.00308273807980036
0.08	0.523830061079774	1.37470744806618	721.995800799863	-1.00304894208546	-20.701126017434	0.857919708747025	-0.819281852367994	0.00532793800212605	0.0031734156162132
0.09	0.359102960303716	1.48178803600416	721.36746039233	-1.17017640134495	-20.5808243840915	0.844034082368946	-0.802271974183183	0.00509682512798171	0.00331651803330368
0.1	0.0912064336184117	1.5387279104331	721.403291603596	-1.31133439429785	-20.4466710108971	0.829691347445151	-0.786091311021176	0.00490238145322786	0.00350485625194769
0.11	-0.255737938061553	1.54621252022172	722.060846090347	-1.41815272062681	-20.3051917610147	0.815732250226146	-0.771578917975871	0.00475649285200841	0.00372748886288055
0.12	-0.642874936725477	1.51108604468701	723.271503835724	-1.48587658523179	-20.1637282188054	0.802944306859643	-0.759378861915261	0.00466588396218792	0.00397121390013871
0.13	-1.02381625434122	1.4455232321437	724.947516145554	-1.51468024589073	-20.0293538720929	0.792042665389452	-0.749932495557212	0.0046303040723622	0.00422241710270266
0.14	-1.354488339438	1.36518681478346	726.986823366045	-1.51020208110717	-19.9077621771931	0.783595715491282	-0.743437575042532	0.00464182514017197	0.00446888822010993
0.15	-1.60285952952746	1.28678717956223	729.275126958495	-1.4830399458519	-19.8023576306717	0.77789690702679	-0.739769695270524	0.00468559284279746	0.00470124552497142
0.16	-1.75563622658699	1.22550685103192	731.686148385018	-1.44715353203572	-19.7137366633942	0.774834882201161	-0.738411192993115	0.0047420802854804	0.00491372906924525
0.17	-1.81989425194995	1.19267793864779	734.081935580943	-1.41740451892748	-19.6396544895052	0.773843451412804	-0.738462300499614	0.00479050703842554	0.00510429008935004
0.18	-1.81924551424754	1.19398779378521	736.31531287272	-1.40674097961602	-19.5754691701717	0.774000812089352	-0.738796920885289	0.0048127186170388	0.00527406453092222
0.19	-1.78595261107842	1.22841088802738	738.236140575831	-1.42369985036721	-19.5149654921562	0.774292366159428	-0.738368818035047	0.00479660622062628	0.00542643078954974
0.2	-1.75171275157039	1.28804019702579	739.702089801331	-1.47088325268901	-19.4514063569793	0.773973920159225	-0.736594678162885	0.00473818323485364	0.00556589578668659
0.21	-1.74013124881115	1.35897241229798	740.593341691981	-1.54484042696876	-19.3786405965453	0.77290653753175	-0.733675337188384	0.00464174693385266	0.00569703356343243
0.22	-1.76308413085623	1.42331724055539	740.829247145041	-1.63740812046415	-19.292106008539	0.771714621634913	-0.730701327929946	0.0045180687964268	0.0058236370080762
0.23	-1.82157155415013	1.46221224413988	740.383855633127	-1.73814095795009	-19.18959515108	0.771661968073328	-0.729440987093379	0.00438112241450006	0.00594816200874987
0.24	-1.90994209963355	1.45945611237601	739.296681531067	-1.83713833901451	-19.071691311541	0.774237297283469	-0.731817136061605	0.00424428873492999	0.00607146772051531
0.25	-2.02120920432563	1.40510780587581	737.675383571753	-1.92746161546043	-18.9418273711381	0.780557168101409	-0.739203913784104	0.00411712130006814	0.00619280402532763
0.26	-2.15101594626316	1.29824173558591	735.688250561564	-2.00648226164785	-18.8059658448383	0.79078385995793	-0.75176857636432	0.00400354851188778	0.00630997662850985
0.27	-2.29863901466987	1.14808639702308	733.546315665007	-2.0758643518375	-18.6719395046221	0.803778869469949	-0.768101928956761	0.00390189774930871	0.00641963031087911
0.28	-2.46485612286247	0.973042572270772	731.477136032247	-2.14033767191114	-18.5485258726835	0.817153025260965	-0.785309770281234	0.00380651742768023	0.00651761998479622
0.29	-2.64791435450909	0.797546575598309	729.694241897641	-2.20579895140612	-18.4443551325103	0.827748234167812	-0.799595374087684	0.00371026631806948	0.00659946931263916
0.3	-2.83965866053813	0.647310498734358	728.367491488353	-2.27745102797769	-18.3667706143235	0.832437581143381	-0.807198085969961	0.00360691776873767	0.00666093018998914
0.31	-3.02381311926477	0.543973941969708	727.59974150063	-2.35859686656925	-18.3207745196501	0.829014748416606	-0.805425428086604	0.00349266325373598	0.00669864255169328
0.32	-3.17752985081534	0.500465546722351	727.414266063094	-2.45039494423841	-18.3081977994181	0.816903992928728	-0.793473288309089	0.00336632722175956	0.00671085207691408
0.33	-3.27602478944515	0.518275202665552	727.75539010405	-2.55248576724478	-18.3272281461997	0.797472750897129	-0.772787046628339	0.00322844331531758	0.00669808450943915
0.34	-3.29893427754272	0.587369428351763	728.502233000632	-2.66407469440779	-18.3724065499602	0.773850497993616	-0.746854384700726	0.0030797748508945	0.00666362208405252
0.35	-3.23639362514692	0.688768383007576	729.49282887172	-2.78492337587123	-18.435151961095	0.750304662885253	-0.720488155205217	0.002920028932901	0.00661360943066824
0.36	-3.09294648581787	0.79906864037788	730.553788819739	-2.91579590579714	-18.5047912667349	0.731345799812332	-0.698797312180779	0.00274736955334864	0.00655665789894916
0.37	-2.88813038793168	0.895684384342923	731.529596424916	-3.05817031267957	-18.5699672266124	0.720792714989177	-0.686112629961424	0.00255896099458841	0.00650292267282143
0.38	-2.65361976390622	0.961456829758224	732.30586654348	-3.21334581861627	-18.6201969890714	0.721013870272017	-0.685118830889144	0.00235233015554759	0.00646277013981211
0.39	-2.42775585643089	0.987570632263666	732.822438349086	-3.3813269506982	-18.647296818176	0.732491619906666	-0.696364076419837	0.00212699709142161	0.00644528190868643
0.4	-2.24886313050534	0.974291759570226	733.074682603064	-3.55996042996351	-18.6464083794818	0.753763852250562	-0.718208935366311	0.00188570498149765	0.00645690018394929
0.41	-2.14883948721449	0.929686735165535	733.104261675033	-3.74471684620347	-18.6164662932278	0.781715461951121	-0.747177848800691	0.00163471191744724	0.00650047512987029
0.42	-2.1481914015038	0.866980668551107	732.983003597174	-3.92928664185037	-18.5601047511233	0.812137763317298	-0.778609999896888	0.00138292682699281	0.00657484310645873
0.43	-2.25315832400078	0.801426499179898	732.794795931053	-4.10688039702393	-18.4831492869595	0.840448369857182	-0.807477011993281	0.00114006306779491	0.00667490546741084
0.44	-2.4550466781879	0.747478303915581	732.620045197131	-4.27187881494481	-18.3939101458385	0.862457359415669	-0.829231769164495	0.000914316118554082	0.00679206858204978
0.45	-2.73152628058592	0.716779933440583	732.525411610868	-4.42134289385066	-18.3024512101283	0.87506727769218	-0.840562569536111	0.000710244784337011	0.0069148989124006
0.46	-3.0494839178608	0.717136417511396	732.558955497782	-4.55590921012212	-18.2198770990995	0.876801060017336	-0.83994242490833	0.000527499958942079	0.00702993583493328
0.47	-3.36903531399569	0.75235267458019	732.748638377743	-4.67975639065898	-18.157538566443	0.868067356167788	-0.827885775928709	0.00036081381709574	0.00712272313946738
0.48	-3.64836278504441	0.822667760795274	733.101329758558	-4.79959330307787	-18.1259967232566	0.851104004389564	-0.806859995729881	0.000201302564536432	0.00717917563864734
0.49	-3.84905975466781	0.925484982975947	733.600487763472	-4.92291274970727	-18.1336685068681	0.829590487913325	-0.780850306170121	3.87514247136567e-05	0.00718732429110314
0.5	-3.941556948506	1.05615735416648	734.203013674295	-5.05598911299015	-18.1852839339236	0.807983295929295	-0.75463976993376	-0.00013574545593209	0.00713928438630601
0.51	-3.90998773563572	1.20868069500233	734.838171625021	-5.20219863511478	-18.2805282260945	0.790689586666647	-0.732927576271825	-0.000327534431136978	0.00703304662090942
0.52	-3.75561645400126	1.37623282585602	735.412459460703	-5.3611669617761	-18.4133879248791	0.781235985928935	-0.71945087528619	-0.000537182694274385	0.00687352673483549
0.53	-3.49785985206576	1.55155995386566	735.823009649852	-5.52901237346454	-18.5726614063529	0.781596303349713	-0.716282701117873	-0.000760632753114665	0.00667234107411696
0.54	-3.17213602523754	1.72725329846153	735.978699499136	-5.69962023228796	-18.7438032401261	0.791810716686015	-0.723445867660442	-0.000990664735210367	0.00644604835670887
0.55	-2.82435309635781	1.89598960120406	735.82403437005	-5.86655760872002	-18.9118275538166	0.809968569517445	-0.738917927210368	-0.00121920318057978	0.00621305411460632
0.56	-2.50272105736889	2.05083043022727	735.358028444236	-6.02502694536248	-19.0645622231545	0.832554832129615	-0.759022990895403	-0.00143974799598023	0.00598986167870136
0.57	-2.24848241715065	2.18567523788784	734.640412122342	-6.17324334188946	-19.1953097196694	0.855094404231447	-0.779132341511062	-0.00164918271511239	0.0057876782785618
0.58	-2.08775789532089	2.29592306738718	733.781003586349	-6.3128170750211	-19.3040596387739	0.872980271090475	-0.794542118977766	-0.00184843482644348	0.00561038946895465
0.59	-2.02668347573806	2.37930929364389	732.913885587772	-6.4480689561278	-19.3968179997964	0.882344379280913	-0.801369364831321	-0.00204186243072135	0.00545455216675278
0.6	-2.05126452729123	2.43676460699337	732.163833820928	-6.58457710010244	-19.4832372868726	0.880822478478486	-0.797307079464347	-0.00223567784328882	0.00531142336139956
0.61	-2.13206617643786	2.47303730636978	731.615765624489	-6.72750926393857	-19.5733232905796	0.868074678212918	-0.782101579271348	-0.00243603003417248	0.00517035547486211
0.62	-2.23242022411646	2.49677827064585	731.297278489795	-6.88033558736507	-19.6743294937398	0.845953279450703	-0.757658325953752	-0.00264743585886951	0.00502240852772418
0.63	-2.31777328775974	2.51984513098052	731.179764704288	-7.0443272920954	-19.7888872897006	0.81826076464659	-0.727742641790887	-0.00287205155383596	0.00486294860334213
0.64	-2.36352303210779	2.55573976763414	731.196907647975	-7.21890650623172	-19.9149733488829	0.790112495284458	-0.697314237813727	-0.003109895794284	0.0046923688701514
0.65	-2.35929035319362	2.61731963258562	731.273244542595	-7.40256282400186	-20.0476480622285	0.767001797801008	-0.671609317934821	-0.0033597342594488	0.0045147565758249
0.66	-2.30881512947691	2.71416317208983	731.352296005976	-7.59383939272029	-20.1818630701876	0.753741834511687	-0.655145651051572	-0.00362008269746583	0.00433508049939241
0.67	-2.22606467831582	2.85015577127559	731.414616591698	-7.79190194886643	-20.3152705320084	0.753505608893916	-0.650856150045936	-0.0038897856913358	0.00415600306745934
0.68	-2.12919976779843	3.02192969785801	731.480445307127	-7.99642706306399	-20.4500029989934	0.767181884425866	-0.659540425119509	-0.0041678739031642	0.0039755306846575
0.69	-2.03442424237025	3.21869229697871	731.59753667185	-8.20687705501479	-20.5928033332191	0.79320227429475	-0.679757824660257	-0.00445277645227349	0.00378637244477253
0.7	-1.95141736984839	3.42370218021035	731.819877980974	-8.42152044861313	-20.7534989170528	0.827884082075793	-0.708182113749232	-0.00474129595795303	0.00357722655705006
0.71	-1.88125124215326	3.61724901763006	732.185511613032	-8.6366841323962	-20.942393242466	0.866204388532137	-0.740324772992895	-0.00502789635495937	0.00333551523090836
0.72	-1.81680284223741	3.7805610018234	732.700938654492	-8.84664009954011	-21.1674786480114	0.902813065284026	-0.771445310139607	-0.00530475304443256	0.00305060816943903
0.73	-1.74501593894578	3.89974138758971	733.336261023802	-9.04428151759528	-21.4323538483901	0.933040377246521	-0.797430925967579	-0.00556272426526516	0.00271647802990127
0.74	-1.65011501658387	3.968745477079	734.03091906937	-9.22243962997353	-21.7353986742454	0.953673558094547	-0.815453940178096	-0.00579304916320411	0.00233302425953325
0.75	-1.5169788526165	3.99060870669357	734.706374542106	-9.37545519062476	-22.0702713998231	0.963355368137917	-0.824290623654806	-0.00598930142117704	0.00190583942947581
0.76	-1.33415851700097	3.97658051291694	735.280586667417	-9.50052668935079	-22.4273508983939	0.96256533467164	-0.824280572603855	-0.00614902085559799	0.0014447468933142
0.77	-1.09626435661555	3.94337134005865	735.679850033088	-9.59842820413517	-22.7955073860767	0.953245158576301	-0.816990392171482	-0.00627452783758242	0.0009617973381148
0.78	-0.805533337179367	3.90920759459051	735.845776940421	-9.67337913812232	-23.1636130848326	0.938197824116682	-0.8046988711548	-0.00637264918679814	0.000469460754474182
0.79	-0.472352441755259	3.88967019300299	735.737695842601	-9.73208346066301	-23.5214457089355	0.920416778960121	-0.789838212402627	-0.00645336837657895	-2.04875942403926e-05
0.8	-0.11449448063838	3.89430649505149	735.332410102372	-9.78216766249762	-23.8599621492742	0.90249269386912	-0.774513651927329	-0.00652767884371142	-0.000497276379079148
0.81	0.245039912476434	3.92477848297747	734.623607199544	-9.83038809115454	-24.1711814432615	0.886211259959253	-0.760191333074557	-0.0066051110696298	-0.000950888132067118
0.82	0.58135384949641	3.97492270046652	733.622401112503	-9.88102921525666	-24.4480186227378	0.872404698337806	-0.74759865979857	-0.00669149067368191	-0.00137167857366177
0.83	0.871539616597143	4.03264744545178	732.359151485842	-9.93487211227721	-24.6843411623851	0.861058429492938	-0.736828229249939	-0.00678745205480868	-0.0017502582907738
0.84	1.09823010747855	4.08317184972275	730.885519764924	-9.98898534245625	-24.8753394796349	0.851611667388865	-0.727584682986378	-0.00688807975867101	-0.00207783072017953
0.85	1.25195796639191	4.11280006558808	729.275146435941	-10.0373981435201	-25.0181083148527	0.843341802284226	-0.719477586553519	-0.00698379675010785	-0.00234693136908998
0.86	1.33181014082403	4.1122892588802	727.621481089489	-10.0724953300392	-25.1122087107958	0.835705445175764	-0.712257878903449	-0.00706231281352832	-0.00255232280792606
0.87	1.34438011864204	4.07895739530727	726.032022912602	-10.0867791723688	-25.1599584479352	0.828534778579268	-0.705926973503787	-0.00711116429174052	-0.00269172776331206
0.88	1.30147432385912	4.01698912419308	724.619258891077	-10.0745375902998	-25.1662740282468	0.822049815850122	-0.700705930874645	-0.00712020769538746	-0.0027661308812183
0.89	1.21724721691727	3.935878538302	723.489612474346	-10.0329861549814	-25.1380235130703	0.81671996895047	-0.696911345182885	-0.0070834438131	-0.0027795138676549
0.9	1.10539396042627	3.84747654354891	722.732440667264	-9.96261879762027	-25.0830026852399	0.813059028204681	-0.694815654044174	-0.00699976010871861	-0.00273806292704848
0.91	0.97683629845166	3.76252968931888	722.411296231185	-9.86676017782861	-25.008775596343	0.811444180008761	-0.694557761990298	-0.00687252726155796	-0.00264905690108652
0.92	0.838162419970996	3.68775973127671	722.559173432141	-9.75056937143406	-24.9216878173584	0.812014443014655	-0.696125323894491	-0.00670834806469356	-0.00251976505394785
0.93	0.691021826812594	3.6243632140175	723.178345655269	-9.61989896326147	-24.8263380028831	0.814652441380386	-0.699382719311787	-0.00651549360189552	-0.00235671197058207
0.94	0.532693562048533	3.56834520835599	724.243979555895	-9.48040099879628	-24.7256704400298	0.819017990028379	-0.704099522256304	-0.00630257673707468	-0.00216557390518313
0.95	0.35799707157448	3.51249026114061	725.709452446295	-9.33709660943691	-24.6216493488945	0.824600539089847	-0.709954260679092	-0.00607780256941026	-0.0019517609620997
0.96	0.162457553441154	3.44922825666804	727.51072499856	-9.19436781083381	-24.5162527323135	0.830782818586772	-0.716530819548635	-0.00584879618532286	-0.0017214663109526
0.97	-0.0538476774465651	3.3733674314373	729.567595852213	-9.05610805900969	-24.4123621049994	0.836933921953153	-0.723356344400121	-0.00562269758103462	-0.00148272255402376
0.98	-0.282886115804911	3.2837426786238	731.781223247686	-8.92569091045479	-24.314102978055	0.842550757479294	-0.730021964016277	-0.00540608065866466	-0.00124590243322775
0.99	-0.507152791824844	3.18323495255338	734.02954115913	-8.8055284095092	-24.2263483362593	0.847435347280731	-0.736378256717485	-0.00520436731740492	-0.00102320871519285
1	-0.701274017212339	3.07720919524424	736.164320547857	-8.69624831726957	-24.1534053516126	0.851849530319639	-0.742732247149033	-0.00502072265870546	-0.000827015802235598
1.01	-0.837120906436154	2.97098400580564	738.014636461412	-8.59580275550839	-24.0972652653682	0.856559831496805	-0.749932294728406	-0.00485478646058213	-0.000667364532238424
1.02	-0.891520369330681	2.86729042665475	739.400590948907	-8.49898699314001	-24.0560655938399	0.86269928109774	-0.75924242407946	-0.00470183565673077	-0.000549314933323719
1.03	-0.854366810179029	2.76468429511934	740.158120248558	-8.39779590024737	-24.0234614672475	0.871433026621036	-0.771980938032593	-0.00455294760821789	-0.000471059186024581
1.04	-0.734261154802372	2.65754734712376	740.171296384298	-8.28277269465302	-23.9893699989929	0.883497960662782	-0.789000610548226	-0.00439642633009063	-0.000423575894445472
1.05	-0.559177088720765	2.53776038812659	739.404265530012	-8.14511135083042	-23.942090768863	0.898755904104618	-0.810173240815043	-0.00422027771284961	-0.000392169096288142
1.06	-0.371120789267845	2.39754563234244	737.922717407962	-7.97892627361757	-23.8712754535639	0.915921891732761	-0.834069366043465	-0.00401507378070765	-0.000359613857446095
1.07	-0.21586153832399	2.23255500380458	735.895933583714	-7.78295591850917	-23.7708288718705	0.932590563527606	-0.857978690135863	-0.00377632319210464	-0.000310047600175611
1.08	-0.130762746550559	2.04417026321158	733.575172241694	-7.56109414274866	-23.6407444657179	0.945596710716587	-0.878313590808477	-0.00350556572516303	-0.000232430911253689
1.09	-0.134704593133265	1.84021443723384	731.251077351458	-7.32150275753828	-23.4871673300342	0.951641847164721	-0.891315373647696	-0.00320979833271884	-0.000122492281073805
1.1	-0.223576721514299	1.63376651846283	729.199548342153	-7.07451579482674	-23.320548061697	0.948033829125034	-0.893885272724668	-0.00289937191531775	1.74464966845034e-05
1.11	-0.372942165551334	1.44035080051419	727.629574041156	-6.82993231837176	-23.1523955535606	0.933348656346601	-0.884322198522114	-0.00258497789816059	0.000180662828739742
1.12	-0.546927955947155	1.27424766284102	726.646395289258	-6.59447886498264	-22.9916175646868	0.907842220729524	-0.862776346726845	-0.00227461202977375	0.000359473938404187
1.13	-0.710189362127664	1.14490462523396	726.239095771619	-6.37015690149691	-22.841580030188	0.873505335417289	-0.831307496294605	-0.00197138823704901	0.000548767007958861
1.14	-0.838808279786496	1.05436928009175	726.2949175835	-6.15391767467703	-22.698778586188	0.8337452168928	-0.793539477906695	-0.00167280802801761	0.000748479870140872
1.15	-0.926595384590564	0.996367491500634	726.635591360093	-5.93873022133123	-22.5535002797554	0.792764594480977	-0.753996349678979	-0.0013716749408077	0.000964288768814436
1.16	-0.985167048584271	0.957220519540748	727.065853987065	-5.71574564786587	-22.3922528406427	0.754774908625319	-0.717269165207568	-0.00105840815089941	0.00120636230168153
