Time [s]	GRFml [N]	GRFap [N]	GRFv [N]	Mml [N.m]	Map [N.m]	Mv [N.m]	Mfree [N.m]	COPml [m]	COPap [m]
0.01	35.1135931015925	-5.55603791641255	775.270419427535	-37.249935756946	1.47609726636188	-2.39812060574264	-0.701532192119692	3.46797805729287e-05	-0.00645540760796297
0.02	35.2675784335495	-5.71562479931739	774.901550527798	-37.4326561765216	1.52284299835109	-2.41480874727041	-0.700814199805718	9.5635353785044e-05	-0.0061923697328805
0.03	35.4169665838729	-5.86952338060759	774.559565316243	-37.6138459443061	1.56860682260257	-2.43090534934111	-0.69978377221404	0.000155271197783137	-0.00593322722025044
0.04	35.557321662769	-6.01272517225174	774.260519941931	-37.7934056333712	1.61247470319514	-2.44595089391101	-0.698267513351055	0.00021235948085002	-0.00567924102192641
0.05	35.6843695017369	-6.14054492298679	774.018848144263	-37.9716156592887	1.65358591370926	-2.45951899686293	-0.696101422434148	0.000265745619214205	-0.0054310715196185
0.06	35.7941793056288	-6.24883384908332	773.846519658051	-38.1491253416361	1.69116720252335	-2.47123737264571	-0.693139235883132	0.000314394565996566	-0.00518873521485701
0.07	35.88333022234	-6.33415661347627	773.752339890165	-38.326927802263	1.72456334964716	-2.48080635376859	-0.689259851300772	0.000357431997587665	-0.00495158912491851
0.08	35.9490547010862	-6.39392177962391	773.741436329119	-38.5063221166587	1.75326267638694	-2.48801398869176	-0.684373587636104	0.000394178493374926	-0.0047183439745131
0.09	35.9893520150088	-6.42645923157312	773.814963613522	-38.6888645749856	1.77691634323491	-2.49274697299269	-0.678427108010407	0.000424175193211135	-0.00448710582914292
0.1	36.0030671041485	-6.43104207211341	773.970044077309	-38.8763112577302	1.79535060365967	-2.49499693666926	-0.671406890016622	0.00044719986674873	-0.00425544444488938
0.11	35.9899318243168	-6.40785445959912	774.199945042246	-39.0705543600506	1.80857155075049	-2.49486189417714	-0.663341175738745	0.00046327281349506	-0.00402048540048042
0.12	35.950567645105	-6.3579104378794	774.494479160449	-39.2735547909571	1.8167622767353	-2.49254294244923	-0.654300375787241	0.000472652506888454	-0.00377902208683543
0.13	35.8864507172302	-6.28293182484054	774.840600596115	-39.4872735237666	1.82027273904219	-2.48833654649671	-0.644395944036971	0.000475821376627877	-0.00352764288276795
0.14	35.7998419341623	-6.18519548807794	775.223158486267	-39.7136039926617	1.81960296942224	-2.48262296616154	-0.633777786537845	0.000473462570114013	-0.00326286834671816
0.15	35.6936860753479	-6.06736175210933	775.625760470811	-39.9543075399849	1.8153805566335	-2.47585153947344	-0.622630320410674	0.000466428927788451	-0.00298129299354438
0.16	35.5714852913147	-5.93229621690291	776.031693492168	-40.2109535541273	1.80833356465728	-2.46852364135088	-0.611167354336664	0.000455705732364862	-0.00267972618698876
0.17	35.4371530502597	-5.78289695025715	776.424846721421	-40.4848655389933	1.79926020878798	-2.46117418003369	-0.599626016539575	0.000442369034987778	-0.00235532684560994
0.18	35.294855207698	-5.62193792843013	776.790582392013	-40.7770739648817	1.78899669783855	-2.45435248175961	-0.588260002177398	0.000427541511963533	-0.00200572701582638
0.19	35.148845098305	-5.45193786562046	777.116504376293	-41.0882764054032	1.77838466369859	-2.44860335520689	-0.577332442656636	0.000412347857675321	-0.00162913989197136
0.2	35.0032995070339	-5.27506135022184	777.393081237581	-41.4188051957227	1.76823954538008	-2.44444903255318	-0.567108708543204	0.000397871671401172	-0.00122444853792521
0.21	34.8621620865284	-5.09305666956965	777.614089805525	-41.768602672298	1.75932118254777	-2.44237256658325	-0.557849441919912	0.000385115652451323	-0.000791272360127063
0.22	34.7290002836054	-4.9072320362674	777.776856505486	-42.1372039782261	1.75230771450613	-2.44280313601226	-0.54980407305002	0.00037496668962976	-0.000330009263127734
0.23	34.6068811516666	-4.71846930308425	777.882286069727	-42.5237274323221	1.74777368674593	-2.44610358554456	-0.543205013565571	0.000368167133175581	0.000158147653739553
0.24	34.4982705873798	-4.52727182857166	777.934680138696	-42.9268725428553	1.74617305032634	-2.45256041214461	-0.538262641024377	0.000365293189968101	0.000671219069527933
0.25	34.404959564033	-4.33384106662207	777.941360852946	-43.3449258675938	1.74782751049522	-2.46237631042589	-0.535161107021569	0.000366741008369219	0.00120647340426898
0.26	34.3280198628895	-4.13817480550029	777.912126070415	-43.7757750440214	1.75292044949532	-2.47566531056783	-0.534054923795172	0.000372720640690847	0.00176048427545553
0.27	34.2677906493225	-3.94017884855354	777.858572600298	-44.2169313996595	1.76149642233861	-2.49245048134929	-0.535066222851649	0.000383257710510088	0.00232920924258335
0.28	34.2238960263313	-3.73978335011575	777.793331204813	-44.6655615681939	1.77346600989421	-2.51266412594545	-0.538282542182919	0.000398202287220028	0.00290808704603553
0.29	34.1952924531879	-3.5370550044386	777.729261612983	-45.1185284559376	1.78861561627988	-2.5361503646847	-0.543754991662198	0.000417244194974558	0.00349215008714229
0.3	34.1803436777441	-3.3322968113948	777.67865713387	-45.5724417093968	1.80662162195585	-2.56266997191909	-0.551496670660998	0.000439933765904233	0.00407614856101091
0.31	34.1769196420526	-3.12612816179771	777.652506583614	-46.0237175257639	1.82706815444888	-2.59190730860862	-0.561481264848752	0.000465706891190546	0.00465468243135855
0.32	34.1825147351116	-2.91953942522314	777.659856311401	-46.4686472355294	1.84946761948446	-2.62347916418654	-0.573641823309749	0.000493913126781064	0.00522233731293199
0.33	34.1943798420732	-2.7139169916145	777.707307503893	-46.9034735949849	1.87328305047762	-2.65694528834205	-0.587869801907861	0.000523845568455576	0.00577382028971724
0.34	34.2096619362631	-2.51103670568855	777.798674239062	-47.3244731926465	1.89795128737843	-2.69182035505755	-0.604014541528654	0.000554771217238961	0.00630409173903068
0.35	34.2255445353337	-2.313025719426	777.934816672262	-47.7280428423275	1.9229059894903	-2.72758705915704	-0.6218834173082	0.000585960604398276	0.00680848935312615
0.36	34.2393822425495	-2.12229484568899	778.113652086762	-48.1107873557081	1.94759952249167	-2.76371000320163	-0.641242935498032	0.000616715530260841	0.00728284075848408
0.37	34.2488228492677	-1.9414453986358	778.330335172746	-48.4696057072323	1.97152283719764	-2.79964999459544	-0.66182105956703	0.000646393889430029	0.00772356143997245
0.38	34.2519110942325	-1.77315613548777	778.577588617813	-48.8017723671342	1.99422257428732	-2.8348783445932	-0.683311012208948	0.000674430704813955	0.00812773509368874
0.39	34.2471691428606	-1.62005716684334	778.846156598942	-49.1050105176829	2.01531478080145	-2.86889074752951	-0.705376725862315	0.000700354673011925	0.00849317406403207
0.4	34.2336501215268	-1.48459850060095	779.125347601581	-49.3775540032696	2.03449480400358	-2.90122032374657	-0.727660006942778	0.00072379973204258	0.00881845816281394
0.41	34.2109625480864	-1.36892117979211	779.403629496964	-49.6181952008587	2.05154312750051	-2.93144943509367	-0.749789348320023	0.000744511394893262	0.00910295090355141
0.42	34.1792651485892	-1.27473875463859	779.669239101638	-49.8263165209189	2.0663271229567	-2.95921992679843	-0.771390183687132	0.000762347841267322	0.00934679298200709
0.43	34.1392332341642	-1.20323611830179	779.91077041475	-50.001903931458	2.07879889677953	-2.98424151084898	-0.792096240658406	0.000777276013731192	0.00955087365339542
0.44	34.0919994177501	-1.15499159385054	780.117710060404	-50.1455416964448	2.08898960279564	-3.00629807871256	-0.811561530410573	0.000789363208420865	0.00971678145012563
0.45	34.039072867525	-1.12992667723313	780.28089466017	-50.258388381511	2.09700075755614	-3.02525180904049	-0.829472421976922	0.000798764867820435	0.00984673640358214
0.46	33.9822424256538	-1.12728613060515	780.392872304249	-50.3421350452752	2.10299322417065	-3.04104501262901	-0.845559197054472	0.000805709457200352	0.00994350653642431
0.47	33.9234696923464	-1.14564930831561	780.448158291068	-50.3989473440676	2.10717461536291	-3.05369972684424	-0.859606470530879	0.000810481422757913	0.0100103118452207
0.48	33.8647785396364	-1.18297181234727	780.443383172052	-50.4313939759015	2.10978590167468	-3.06331513119003	-0.87146189300884	0.000813403278401975	0.0100507192768748
0.49	33.808147462139	-1.23665493446732	780.377338236328	-50.4423644302477	2.11108799493192	-3.0700629030806	-0.881042621026874	0.000814817845472861	0.0100685323104047
0.5	33.7554107111082	-1.30363894988848	780.250929375805	-50.4349793609349	2.11134901263067	-3.07418066879786	-0.888339142424334	0.000815071578158115	0.0100676786959914
0.51	33.7081733408717	-1.38051525727689	780.067054414549	-50.412497043832	2.11083282199404	-3.0759637315884	-0.893416170700851	0.000814499756123144	0.0100520996952374
0.52	33.6677441950881	-1.46365165761154	779.830421277231	-50.3782193198035	2.10978932262459	-3.07575528064079	-0.896410464887995	0.000813414129574052	0.0100256438384283
0.53	33.6350895634086	-1.54932474311774	779.547324807184	-50.3354001746788	2.10844676595726	-3.07393530539683	-0.89752558202663	0.000812093379055767	0.00999196779986027
0.54	33.6108088452169	-1.6338534105748	779.225398801015	-50.287159704566	2.10700624154271	-3.07090846286974	-0.897023719985685	0.00081077652291677	0.00995444652667457
0.55	33.5951321650388	-1.71372787824194	778.873357231393	-50.2364057012368	2.10563829815295	-3.06709117362674	-0.895214951968491	0.000809659189212365	0.00991609427493217
0.56	33.5879385858494	-1.78572921051872	778.500735122381	-50.1857645200297	2.10448152430636	-3.06289825523905	-0.892444284310329	0.000808892483062163	0.00987949774018359
0.57	33.5887924403622	-1.84703516552121	778.117635624978	-50.1375223150427	2.1036427983778	-3.05872943862113	-0.889077080459574	0.000808584038273373	0.00984676204434031
0.58	33.596994406973	-1.89530910050278	777.734486025605	-50.0935771931969	2.10319884029023	-3.05495614912179	-0.885483481372837	0.000808800751512487	0.00981946997508373
0.59	33.6116433359889	-1.92876962476303	777.361802174153	-50.0554023915228	2.10319865864372	-3.05190896532812	-0.882022511604397	0.000809572661182204	0.00979865457939066
0.6	33.6317045010185	-1.94623961578443	777.009958516148	-50.0240202500629	2.10366648909755	-3.04986618833184	-0.879026587585124	0.000810897448969507	0.00978478499201131
0.61	33.6560799067673	-1.94717406289064	776.688959802785	-49.9999865505209	2.10460485841486	-3.04904395678985	-0.876787137492748	0.000812745102776885	0.00977776522821139
0.62	33.6836765059687	-1.93166694184588	776.40821072926	-49.9833847168515	2.10599747726442	-3.04958832357413	-0.875541999688926	0.000815062374916078	0.00977694557627854
0.63	33.7134686271474	-1.90043793881268	776.176281155034	-49.9738294118209	2.10781175472681	-3.05156966504452	-0.875465189743692	0.000817776786232205	0.00978114617227707
0.64	33.7445515422748	-1.85480033355387	776.000666981995	-49.9704791837165	2.11000082805917	-3.05497972329602	-0.876659517502721	0.000820800051487016	0.00978869230678293
0.65	33.7761838532168	-1.7966117321342	775.887549879644	-49.9720579810856	2.11250510172608	-3.05973148714242	-0.879152400597054	0.000824030920480202	0.00979746097879666
0.66	33.8078171901515	-1.72820962844856	775.841562440659	-49.9768855170893	2.1152533796152	-3.06566200374038	-0.882895066399869	0.000827357531188377	0.00980493815435531
0.67	33.8391125381739	-1.65233399414073	775.865568580802	-49.9829165854068	2.11816374480091	-3.07253808646696	-0.887765169437467	0.000830659446306	0.00980828608797583
0.68	33.8699432904969	-1.57203926870387	775.960471634665	-49.9877894682553	2.12114438552733	-3.08006475421003	-0.893572685304987	0.000833809586793896	0.00980441991005166
0.69	33.9003858272785	-1.49059826168026	776.12506427565	-49.9888835049149	2.12409458043165	-3.08789611138953	-0.900068784941278	0.00083667628271961	0.00979009246497042
0.7	33.93069900793	-1.41140059597531	776.355934837316	-49.9833856895882	2.1269060397774	-3.09564826507477	-0.906957253622167	0.000839125633760082	0.00976198610265291
0.71	33.9612944226169	-1.33784841716211	776.647443691974	-49.9683658384839	2.12946475521212	-3.10291378241102	-0.913907904645059	0.000841024313612109	0.0097168097881638
0.72	33.9926995669406	-1.27325216363968	776.991781045272	-49.9408594209073	2.13165344388279	-3.10927712313991	-0.920571353744739	0.000842242871599486	0.00965139951615653
0.73	34.025516283208	-1.22072922731066	777.379113958456	-49.8979566155806	2.13335459163969	-3.11433044096439	-0.926594469848989	0.000842659490699691	0.00956281962348039
0.74	34.0603768605586	-1.18310832225927	777.797825853002	-49.8368955715795	2.13445401413016	-3.11768913439247	-0.931635801677833	0.000842164065237344	0.00944846221577866
0.75	34.0979001184771	-1.16284230756895	778.234846512193	-49.7551572726293	2.13484477398536	-3.11900654127058	-0.935380296827071	0.000840662375258293	0.0093061415992781
0.76	34.1386496314923	-1.16193206911142	778.676065051302	-49.6505588787838	2.13443122662646	-3.1179872090832	-0.937552677796578	0.000838080069071239	0.00913418037700503
0.77	34.18309600661	-1.18186384558148	779.106812881474	-49.5213420060839	2.13313292439479	-3.11439823223127	-0.937928914324351	0.000834366129742126	0.00893148376870498
0.78	34.2315848189942	-1.22356208109988	779.512398727392	-49.3662521538851	2.13088809410238	-3.10807822472118	-0.936345329053265	0.000829495501647714	0.00869759878087771
0.79	34.2843114642813	-1.28735949858311	779.878673619038	-49.1846054436209	2.1276564188633	-3.09894358888175	-0.932704989158377	0.00082347059195343	0.00843275511443017
0.8	34.3413038145345	-1.37298561644686	780.192600744552	-48.9763390214423	2.12342089991042	-3.08699184487982	-0.926981164839362	0.000816321437181234	0.0081378851674282
0.81	34.4024131837012	-1.47957438135034	780.442803330013	-48.7420419139465	2.11818864344433	-3.07230189892343	-0.919217770881619	0.000808104430585329	0.00781462116926193
0.82	34.4673137297875	-1.60569097094579	780.6200634268	-48.4829638063669	2.11199050406468	-3.05503124691768	-0.909526843817964	0.000798899631594958	0.00746526835323061
0.83	34.5355100551862	-1.74937714715855	780.717745680287	-48.20100011227	2.10487961076652	-3.03541023135857	-0.898083238387635	0.000788806810829088	0.00709275410251823
0.84	34.6063524228962	-1.90821383238512	780.732122789789	-47.8986527806173	2.09692889378421	-3.01373358828151	-0.885116846864459	0.000777940508245664	0.00670055413853811
0.85	34.6790586934995	-2.07939886482273	780.662583343355	-47.5789674811106	2.08822781099693	-2.99034963349763	-0.870902747741315	0.000766424483115501	0.00629259799537999
0.86	34.7527418146231	-2.25983719856905	780.511707853849	-47.2454490501335	2.07887853286728	-2.96564753821674	-0.855749771457101	0.000754385999999068	0.00587315716437759
0.87	34.8264414706104	-2.44624018909715	780.285204911474	-46.9019582871448	2.06899187901999	-2.9400432285319	-0.83998802692201	0.000741950415828509	0.00544672031887446
0.88	34.8991583351396	-2.63523008951943	779.991706131076	-46.5525942822201	2.05868330461574	-2.91396450653759	-0.823955961755394	0.000729236505759179	0.005017860863029
0.89	34.9698892734742	-2.82344552305999	779.642425697821	-46.2015673502871	2.04806921092123	-2.88783602918458	-0.807987531320542	0.000716352891668541	0.0045911026200291
0.9	35.0376618230056	-3.00764353429049	779.250697456274	-45.8530682768805	2.03726380531386	-2.86206479144073	-0.792400028281234	0.00070339582475891	0.00417078972868318
0.91	35.1015663478138	-3.18479388929461	778.831409275937	-45.5111398898435	2.02637666739481	-2.83702674122772	-0.777483078148719	0.000690448435139005	0.003760966716784
0.92	35.1607844187056	-3.35216161258291	778.400360480304	-45.1795569274398	2.01551109773974	-2.81305510457712	-0.763489240476285	0.000677581412114814	0.00336527425199513
0.93	35.2146122130472	-3.50737431769354	777.973573071483	-44.8617197655458	2.00476324277347	-2.79043092154518	-0.750626573594362	0.000664854935843009	0.00298686524896379
0.94	35.2624780506745	-3.64847168940974	777.5665909698	-44.5605668101067	1.9942219118481	-2.769376189155	-0.739053426604883	0.00065232155945065	0.0026283448736037
0.95	35.3039535676651	-3.77393546718683	777.193803219011	-44.278509296209	1.98396893831941	-2.75004988098689	-0.728875619136689	0.000640029653042963	0.00229173659530654
0.96	35.3387584554832	-3.88269940070293	776.86782686055	-44.0173909255285	1.97407989098354	-2.73254696947413	-0.72014606038835	0.00062802697503293	0.00197847487991375
0.97	35.3667591285643	-3.97413982294635	776.598982833357	-43.7784733024479	1.96462491918361	-2.71690042332878	-0.712866747695369	0.000616363934609896	0.00168942349180014
0.98	35.3879620932731	-4.04804862837507	776.394893811806	-43.5624465925421	1.95566951538513	-2.70308599685483	-0.706992975132811	0.000605096149609669	0.0014249167936885
0.99	35.4025031376853	-4.10459146659246	776.260226494624	-43.3694633292917	1.94727500192219	-2.69102947905185	-0.702439478988826	0.00059428598009481	0.00118482001158879
1	35.4106337090125	-4.14425478583339	776.196592790724	-43.1991919392922	1.93949859079343	-2.68061593750018	-0.69908815439214	0.000584002820272198	0.000968603277247806
1.01	35.4127059643122	-4.16778592024872	776.202615043476	-43.050885438369	1.93239292210113	-2.67170038378871	-0.696796901341395	0.000574322049208617	0.000775423464558687
1.02	35.4091579517844	-4.17613066649874	776.274150447486	-42.9234599510659	1.92600505215895	-2.66411921131931	-0.695409104101022	0.000565322663307038	0.000604207469174098
1.03	35.4005002002867	-4.17037271975339	776.404659789149	-42.8155772826343	1.92037493010451	-2.65770171850655	-0.694763219857153	0.000557083730782208	0.000453730681498399
1.04	35.3873046760298	-4.15167894491773	776.585696282123	-42.72572575839	1.91553346576253	-2.65228103410088	-0.69470195372269	0.000549679912137234	0.000322684976557006
1.05	35.3701966366926	-4.12125377956533	776.807482266972	-42.6522939435825	1.91150034583492	-2.64770380722675	-0.695080528770735	0.000543176374482827	0.000209731556970474
1.06	35.3498494178164	-4.0803051566985	777.059535536826	-42.593632641469	1.90828179562221	-2.64383811044207	-0.695773620653501	0.000537623486890163	0.000113535368336436
1.07	35.3269816779694	-4.03002327090194	777.331303557525	-42.5481016835141	1.90586850615349	-2.6405791245599	-0.696680613154491	0.000533051715887157	3.27794590649771e-05
1.08	35.3023561660196	-3.97157237379086	777.612763224796	-42.5140993941287	1.9042339500944	-2.63785232152397	-0.697728938324721	0.000529467143132801	-3.38405457806432e-05
1.09	35.2767787119391	-3.90609466022219	777.894946191028	-42.4900741341126	1.90333329392596	-2.6356140267744	-0.698875385711939	0.000526848000872357	-8.76398842720241e-05
1.1	35.2510959290308	-3.83472427852518	778.170355122005	-42.4745188900492	1.9031030798766	-2.63384941454331	-0.700105391697212	0.000525142565804434	-0.00012998237354292
1.11	35.226190082554	-3.75860863987857	778.433244201088	-42.4659513642638	1.90346180143454	-2.63256815720246	-0.701430443887305	0.000524268670614964	-0.000162327372079996
1.12	35.2029697403746	-3.67893357409113	778.679747261776	-42.4628833176031	1.90431143451145	-2.63179810229559	-0.70288384893366	0.000524114988348515	-0.000186279955648565
1.13	35.1823551669904	-3.59694852466901	778.907848395884	-42.4637839226994	1.9055399168599	-2.63157747842476	-0.704515207891898	0.00052454412347891	-0.000203637748963342
1.14	35.1652579236155	-3.5139879194937	779.117201919167	-42.4670425152386	1.90702449618597	-2.63194622558264	-0.706384015301821	0.000525397412370842	-0.000216427860996994
1.15	35.1525547465797	-3.43148509926361	779.308820275027	-42.4709363276845	1.90863579794357	-2.63293710085229	-0.708552842060021	0.000526501203867196	-0.000226927921763237
1.16	35.1450564341092	-3.35097571910804	779.484658914488	-42.4736085275505	1.91024240253099	-2.63456722315785	-0.71108057517095	0.000527674268305259	-0.000237666284143366
1.17	35.1434731116435	-3.27408832609332	779.647135570988	-42.4730611681741	1.91171567374347	-2.63683069016705	-0.714016168945716	0.000528735881112808	-0.000251397967351227
