Time [s]	GRFml [N]	GRFap [N]	GRFv [N]	Mml [N.m]	Map [N.m]	Mv [N.m]	Mfree [N.m]	COPml [m]	COPap [m]
0.01	3.62252366693378	-1.2548293175018	712.121861432654	-6.11248643301191	39.5197683246155	1.13901023719623	-1.10048260741707	-0.00531688522345153	0.000215358378895358
0.02	3.7082243804249	-1.15768447297816	712.879209484735	-6.06345827227341	39.4837242342168	1.14225046405063	-1.10964023603475	-0.00523654317966149	0.000105410447422849
0.03	3.78426084658624	-1.07847681575573	713.556022627956	-6.0141052881075	39.4485200739815	1.1475765698535	-1.11980526881072	-0.00515682240579052	2.81833298332312e-06
0.04	3.84261097643281	-1.030742933897	714.090485202774	-5.96423823255921	39.4156553363189	1.1565872551502	-1.13175484526635	-0.00507828078447325	-8.55790735205808e-05
0.05	3.87705734197491	-1.02185970962507	714.450431748596	-5.91316339422403	39.3873535948996	1.16985259079889	-1.14559168735601	-0.00500036651374125	-0.00015421273403593
0.06	3.88385851123254	-1.05240710156036	714.637500340574	-5.8597052747252	39.3662640779951	1.18680451166937	-1.16067645052929	-0.00492139814140702	-0.000199518589655279
0.07	3.86223382723833	-1.11721507177504	714.682347374091	-5.80253429426587	39.354743716232	1.20594078645094	-1.17578026167952	-0.00483909455438469	-0.000220570230709705
0.08	3.81448720822845	-1.20751857154954	714.632959096583	-5.7406721770275	39.3540054564676	1.22523067780195	-1.18937510986339	-0.00475144543448103	-0.000219367670742043
0.09	3.7456533408592	-1.31336049126087	714.540082604686	-5.67399157196178	39.3634754931629	1.24257845004989	-1.19996367276076	-0.00465760734459431	-0.000200613725028609
0.1	3.66270237152899	-1.42546052134402	714.444286578196	-5.60354398324309	39.380610379621	1.25623118852628	-1.20637769948526	-0.00455853072248857	-0.000170974149776904
0.11	3.57351476487859	-1.53613122600056	714.368174816046	-5.53161025290253	39.401249088737	1.26507486535894	-1.20801343425894	-0.00445712419495192	-0.00013798694669126
0.12	3.48593444243229	-1.63928895890517	714.315361511252	-5.46143585123391	39.4204006555587	1.26880963809212	-1.20499515445907	-0.00435788700779927	-0.000108883003059668
0.13	3.40715356201277	-1.72997754748266	714.275685798452	-5.39667269470703	39.4332583339651	1.26801256810791	-1.19825455666553	-0.00426605353924159	-8.95704720659807e-05
0.14	3.34348558113723	-1.80395945319365	714.234384517642	-5.3406033607471	39.4362049735092	1.2640879639032	-1.18949680941125	-0.0041863911920007	-8.39374829706974e-05
0.15	3.30034230320104	-1.85779983586573	714.181929908928	-5.29527995504066	39.4276106776843	1.25909287920997	-1.18101674861944	-0.0041218803792733	-9.34990765110721e-05
0.16	3.28208507755815	-1.88954847118124	714.121153728764	-5.2607632138312	39.4082855131894	1.25542901395769	-1.17534901213362	-0.00407257511848258	-0.000117320317285174
0.17	3.29147388625118	-1.89976134335238	714.069136276062	-5.23467464074406	39.3815092895956	1.25542101695307	-1.17478507593913	-0.00403496545760718	-0.000152128781596983
0.18	3.32869266673129	-1.89236072685546	714.052965121066	-5.21224615839634	39.352612463536	1.26084634893618	-1.18085043793248	-0.00400210210339846	-0.000192580342984972
0.19	3.39027099176504	-1.87481939760149	714.100468016208	-5.18695232598487	39.3281404345808	1.27252212677748	-1.19387825822523	-0.00396458316909154	-0.000231714237320768
0.2	3.46847042199695	-1.8573797524098	714.228814782768	-5.15165393665467	39.3147109319995	1.29006659689796	-1.21281666982304	-0.00391226884101326	-0.000261664328897848
0.21	3.55170058349934	-1.85138473113295	714.434850317003	-5.10001455706665	39.3177647195631	1.31192379948687	-1.23535684904256	-0.00383635077783562	-0.000274644459133111
0.22	3.62622546496983	-1.86714557167894	714.690755309918	-5.0278358217197	39.3404827385465	1.33567330577957	-1.25838025367711	-0.00373124860256224	-0.000264107084819332
0.23	3.6789100081289	-1.91195395658238	714.947126468758	-4.93394684345467	39.3831557055259	1.35856287049093	-1.27862561175762	-0.00359580925577307	-0.000225843263236047
0.24	3.70025060096009	-1.98879251793419	715.143270734057	-4.82039748593025	39.4432150794393	1.37812962131898	-1.29340401629112	-0.00343346802316735	-0.000158723346413814
0.25	3.68666663440618	-2.09604161528925	715.222172289621	-4.69191569139799	39.5159703079558	1.39274191713821	-1.30117044259674	-0.00325134507086844	-6.48246930896601e-05
0.26	3.64115870670789	-2.22813782228446	715.145998300268	-4.55482403014508	39.5958883446402	1.40191344795549	-1.30180060706585	-0.00305859160243971	5.11425638430874e-05
0.27	3.57195773419746	-2.37685250592048	714.907680578947	-4.41578147371783	39.6780661408672	1.40630911940088	-1.29651048675039	-0.00286453770620021	0.000182972119148639
0.28	3.48952193006725	-2.53273288396089	714.535134595181	-4.28075378568995	39.7594555106209	1.40745651032022	-1.28746224671665	-0.00267723323478164	0.000324318048563643
0.29	3.40290053506231	-2.68631224572523	714.086710116133	-4.15450136112999	39.8394473829919	1.40726466973912	-1.27718853147472	-0.00250279203524328	0.000469839666770944
0.3	3.31679469746538	-2.82889819899979	713.638879173391	-4.04065011165413	39.919608417594	1.40750299812876	-1.2680076259077	-0.00234561541599487	0.000615774894377807
0.31	3.23045118894607	-2.95298160509314	713.269260630117	-3.94216806113331	40.0026354696993	1.4093902268665	-1.26158360757569	-0.00220921371700855	0.000759797410966434
0.32	3.13886636701689	-3.05246330800081	713.039298474177	-3.86190604507926	40.0908622539408	1.41339132782827	-1.25871965169302	-0.00209710741860158	0.000900289639174379
0.33	3.03589388391523	-3.12290657920107	712.980961818261	-3.80284279335621	40.1848194148154	1.41924178194703	-1.25938790621353	-0.0020132675502309	0.00103538865239511
0.34	2.91808741914772	-3.16190284803728	713.090733685346	-3.76781212052469	40.2823461709701	1.42614573382444	-1.26292913009754	-0.00196176106582702	0.00116224052664837
0.35	2.7877857217703	-3.16946670686973	713.332201137289	-3.75873015100214	40.3785722142763	1.43305322808358	-1.26832283411814	-0.00194562255275776	0.00127679884679033
0.36	2.6542090382918	-3.14825504520886	713.646270121707	-3.7755880169123	40.4667945374715	1.43892161996761	-1.27443826797925	-0.00196534008264826	0.00137427135690332
0.37	2.53208879204724	-3.10340177156955	713.966039246362	-3.81562820488117	40.5399729347346	1.44289859717011	-1.28021452176464	-0.00201757162939009	0.00145005570222839
0.38	2.4382905235049	-3.04187427541553	714.232263105385	-3.87311200985811	40.5923701325715	1.44440884927511	-1.28476180918441	-0.00209469880971169	0.00150081824384857
0.39	2.38762715560706	-2.97143196978458	714.405452337455	-3.93990538200898	40.6208363440259	1.4431630717249	-1.28740642390278	-0.00218556685921134	0.00152532766526198
0.4	2.38929948433539	-2.89942034551205	714.471925695574	-4.00682354307324	40.6253847117698	1.43912548664819	-1.2877108050778	-0.00227734361887977	0.00152476368581689
0.41	2.44506811002914	-2.83170290785102	714.443075006231	-4.06539041409135	40.6089603314786	1.43247438041008	-1.28549124378601	-0.00235801403479119	0.00150242863574257
0.42	2.54952796055202	-2.77199503203375	714.349027177189	-4.1094996892309	40.5765717629994	1.42357643911796	-1.28083901643433	-0.00241877420735703	0.00146301125418974
0.43	2.69205396940395	-2.72173655930582	714.229154743338	-4.13647877873943	40.5341347071179	1.41297825460888	-1.27413573841778	-0.00245560135713607	0.00141170411773195
0.44	2.85944828474182	-2.68047209817864	714.122191278854	-4.14724941896409	40.4874168466101	1.40140318113706	-1.26604564465292	-0.00246954745000172	0.00135350466345635
0.45	3.03823826646714	-2.64656010837749	714.058165875224	-4.1455731610673	40.4413710623049	1.38973217522463	-1.25746715065522	-0.00246572560364267	0.00129292685022092
0.46	3.21593378261042	-2.6179564097961	714.053402723134	-4.13665372580889	40.399952682282	1.37894591538606	-1.24943244303831	-0.00245136736276363	0.00123415567699164
0.47	3.38115510920223	-2.59283893108299	714.108907081009	-4.12554206202155	40.3663146730465	1.37001456576903	-1.24295618428384	-0.00243358125443904	0.0011814653527541
0.48	3.52311152501521	-2.56994290919272	714.211851700023	-4.1158064917568	40.3431399683814	1.36374107084367	-1.2388516872592	-0.00241746943821997	0.00113958107313056
0.49	3.63120576093117	-2.54861090196373	714.339575614014	-4.10880437026686	40.3328494694232	1.36058910368696	-1.23755167238536	-0.00240508099915315	0.00111366102712152
0.5	3.69544918130204	-2.52867125338459	714.465310577311	-4.1036823075771	40.3375181641279	1.36054752627232	-1.2389836238771	-0.0023953833985304	0.00110872530173145
0.51	3.70794721410265	-2.51030028688555	714.564584108642	-4.09801184861822	40.3584953061498	1.36308719512257	-1.24254758673224	-0.00238512310047778	0.00112861141261811
0.52	3.66513865660441	-2.49398869603672	714.620935406247	-4.08879774761131	40.3958855698913	1.36724552866903	-1.24722137878298	-0.00237020966293477	0.00117478818201538
0.53	3.56998985788688	-2.4806440649893	714.629456265208	-4.0735152572882	40.4481372290599	1.37183264545642	-1.25177834867765	-0.00234714745345022	0.00124549415164082
0.54	3.43316394897011	-2.47175945820879	714.597015691025	-4.05085588556612	40.5119637438662	1.37570539951205	-1.25506042922627	-0.0023140730804545	0.0013356096991009
0.55	3.27239894156061	-2.46950406606324	714.538936803806	-4.02097825903109	40.5827082316355	1.37802393905232	-1.25622406503829	-0.00227111854372175	0.00143743334844654
0.56	3.10987575760908	-2.47657678258594	714.473126336541	-3.98523714784169	40.655100084495	1.37840677720625	-1.25488341828501	-0.00222006095330329	0.00154220855616932
0.57	2.96804372289446	-2.49572065212441	714.41369669359	-3.94554320399735	40.724219151004	1.37693756997165	-1.25111440485399	-0.00216346355782859	0.00164197702151075
0.58	2.86494115040219	-2.52891687771929	714.366433355308	-3.90362622506646	40.7864268527354	1.37403482469927	-1.24533805339261	-0.00210367661130795	0.00173123314484425
0.59	2.81028451823817	-2.57642868233142	714.327794657342	-3.86049090149209	40.8400555625742	1.37024828298809	-1.23814647807433	-0.00204209048569004	0.00180795519749094
0.6	2.80340886516769	-2.63599366769677	714.287696647903	-3.81625954292263	40.885736777808	1.36606848026155	-1.23014789684395	-0.00197890833108816	0.00187383078576786
0.61	2.83359565576221	-2.70250744941391	714.234743300469	-3.77042914086016	40.9263457715488	1.36181964651329	-1.22188367917241	-0.00191348139402481	0.00193375803666768
0.62	2.88262743864495	-2.76845897629751	714.161542117715	-3.72239895476757	40.9666073921054	1.35766101109524	-1.21382489863551	-0.00184501809837534	0.00199487716295998
0.63	2.92881121512722	-2.82517210342817	714.067787757184	-3.67202033927374	41.012436149141	1.35367139787698	-1.20641367546113	-0.00177333330073037	0.00206541924447035
0.64	2.95140447475174	-2.86463752070673	713.9598989895	-3.61992461900535	41.0700921236027	1.34996035573673	-1.20009714476012	-0.00169930448709199	0.00215357786917947
0.65	2.93441868926423	-2.88148135232416	713.847644970588	-3.56749168704288	41.1452474759764	1.34674720932088	-1.1953149381681	-0.00162484169674737	0.00226649269341633
0.66	2.86908937508439	-2.87450769828212	713.739609741029	-3.51648122103477	41.2420858372677	1.34437237562664	-1.19243326462944	-0.00155239197952695	0.00240935973415235
0.67	2.75473537302534	-2.84732474279737	713.639839715789	-3.46848885502852	41.3625846243626	1.34323788921013	-1.19165047135569	-0.00148419226603447	0.00258468633017367
0.68	2.59812657771	-2.80780380970387	713.547362306801	-3.42445257248178	41.5061309637084	1.34370122451491	-1.19291489096026	-0.00142157628402073	0.0027917684027387
0.69	2.41173803935483	-2.76645284397866	713.458782816641	-3.38439938695807	41.6695745214947	1.3459603740231	-1.19589171394587	-0.00136460086580048	0.00302652590452102
0.7	2.21136227694598	-2.734103195373	713.372589373827	-3.34751296763308	41.8477265765696	1.34996866737247	-1.19999769818411	-0.00131211353890415	0.00328183038676755
0.71	2.01351507914683	-2.71951079344174	713.292887006087	-3.31247278905497	42.0342008012385	1.35540859885731	-1.20450063089875	-0.0012622066880339	0.00354837103875655
0.72	1.8329709034817	-2.72749904217743	713.230472116634	-3.27792045194478	42.2223986274446	1.36173836274437	-1.20866216437343	-0.00121286914404728	0.00381595580538591
0.73	1.68067312523517	-2.75811685218666	713.200348524077	-3.24288169070712	42.4064080538632	1.36830534186696	-1.21189122449812	-0.00116260012238367	0.00407499421391827
0.74	1.56222628826218	-2.80700062915583	713.21641517988	-3.20701179156162	42.5816248393033	1.37450056770743	-1.21387117545079	-0.00111079456081697	0.00431782765221983
0.75	1.477187359274	-2.8667977385585	713.285384063794	-3.17060966032927	42.7450041790975	1.37991217576905	-1.21462738865581	-0.00105780864694482	0.00453960162084466
0.76	1.41937369709763	-2.9292234728477	713.402442292293	-3.13442602671099	42.8949691007415	1.38443026945737	-1.21451322930463	-0.00100472364342752	0.00473850394492359
0.77	1.37831596139177	-2.98716104460107	713.550588691586	-3.09934873582649	43.0310926329504	1.38826508361735	-1.21411146119444	-0.000952910491474501	0.00491537133026282
0.78	1.34175375285256	-3.03621935292971	713.704223026842	-3.06607365541559	43.1537040293511	1.39186502686921	-1.21407181528272	-0.000903542738125651	0.00507282832139883
0.79	1.29873270287646	-3.07533818622354	713.835995669145	-3.03486548312628	43.2635435366842	1.39575462671223	-1.21492737764045	-0.000857210455172952	0.00521421934050076
0.8	1.24254255374903	-3.10633024346009	713.924723	-3.00548335881518	43.3615289991271	1.40034241908956	-1.21694341141396	-0.000813755578255804	0.00534260989601365
0.81	1.17261241725755	-3.13258725040463	713.96175078048	-2.97729592505381	43.4486332294879	1.40576202285121	-1.22004468712192	-0.000772382379387926	0.00546007783838626
0.82	1.09467993521415	-3.15744500028857	713.953624001565	-2.94954717244492	43.5258276259517	1.41179825430818	-1.22384067463904	-0.000732005339362352	0.00556741333533839
0.83	1.01906544793655	-3.18280409015476	713.920113995847	-2.92167467169213	43.5940338344599	1.41791746523573	-1.22773115842557	-0.000691704733098319	0.00566422504041808
0.84	0.957536955011598	-3.20849624460027	713.888152629595	-2.8935498029311	43.6540382244617	1.42338163758465	-1.23104429979319	-0.000651104441729888	0.00574934024318707
0.85	0.919776884948679	-3.23260227165867	713.883534764137	-2.86552680381474	43.7063549858808	1.42739768339357	-1.23315045836894	-0.000610500605714881	0.00582131889151016
0.86	0.91062152492085	-3.25256665133161	713.922956209392	-2.83825838065451	43.7510621400266	1.42924963940743	-1.23351393481374	-0.000570663325412002	0.00587889610863934
0.87	0.928957415171441	-3.26664692996748	714.008844742283	-2.81233905424508	43.787667802005	1.42838189903207	-1.23168273247079	-0.000532378751018747	0.00592122497417441
0.88	0.968543537545118	-3.27509734924726	714.128569097076	-2.78793076250284	43.815077341237	1.42443366714093	-1.22725434256711	-0.0004959356782267	0.00594788595963525
0.89	1.02034140546534	-3.28057006164891	714.258258970638	-2.76456243776711	43.8317152520797	1.41725078058558	-1.2198734698184	-0.000460822577876052	0.00595872208927239
0.9	1.07545084544387	-3.28749921735267	714.370054938016	-2.74124964397999	43.8358093179425	1.4069077557662	-1.20930500897477	-0.000425847362196641	0.00595361455888788
0.91	1.12763464125523	-3.30061646160751	714.44055437589	-2.71696007964157	43.8257841424605	1.3937579150064	-1.19558657830236	-0.000389731404570548	0.00593231704088421
0.92	1.17467032788806	-3.32309393747505	714.457841471606	-2.69129845099868	43.8006612035223	1.37850114262655	-1.17921635236662	-0.000352018779276375	0.00589442673433271
0.93	1.218247712685	-3.35499243445926	714.424908369393	-2.66516099960874	43.7603470894668	1.36223197387192	-1.16129596600723	-0.000313966184212755	0.00583951025072765
0.94	1.26263075081849	-3.39263179943127	714.358386823245	-2.64107158850221	43.7057217250214	1.34641960783128	-1.14354300394152	-0.000279017624553846	0.00576734829557191
0.95	1.31265161938406	-3.42920739859752	714.282999620642	-2.62298562023454	43.6385060140722	1.33278369899745	-1.1281194255744	-0.000252562186839778	0.00567823102341103
0.96	1.37172653181518	-3.45654649322877	714.223547158184	-2.6155209513714	43.5609671595624	1.32306290947139	-1.11728245938146	-0.000240906370533422	0.00557322846482872
0.97	1.44049469622923	-3.46748371741093	714.197085199701	-2.62278941476486	43.4755756892287	1.3187150015464	-1.11293155252618	-0.000249687635282103	0.00545436982482006
0.98	1.51645361148121	-3.45808812156926	714.207892546163	-2.64717592135642	43.3847345375467	1.32062044139732	-1.1161724509489	-0.00028219905874316	0.00532468191544977
0.99	1.59467054115661	-3.42899084603875	714.246846307663	-2.68846872168087	43.2906537113253	1.32887105268688	-1.12702678956988	-0.000338180124422771	0.00518805642771442
1	1.66935123447781	-3.38534298692314	714.295256109044	-2.74365102538616	43.1953676596155	1.34270560604639	-1.144377283274	-0.000413506952371745	0.00504894178345505
1.01	1.73579590249818	-3.3353829463256	714.331653284786	-2.80744940482779	43.1008264062318	1.36061252435622	-1.16616796882025	-0.000500923412580234	0.00491189324079672
1.02	1.79212868572297	-3.28805699571943	714.339092966226	-2.87347935059625	43.0089700899806	1.38057310133259	-1.18980276637704	-0.000591602864297158	0.0047810619985782
1.03	1.84020819892156	-3.25045647367011	714.31054372806	-2.93563150998084	42.9217281950176	1.40038507952928	-1.21263235934388	-0.000677054982148984	0.004659744385686
1.04	1.88533798432445	-3.22589926941222	714.250824387328	-2.98927671985197	42.8409466710818	1.41799646125236	-1.23240635405615	-0.000750796256063224	0.00455012235789898
1.05	1.93475714774475	-3.21326652123873	714.174851464375	-3.03195274280661	42.7682982258983	1.43179103430772	-1.24759427284186	-0.000809314895968027	0.00445328906312048
1.06	1.99529582878351	-3.20777796363565	714.103120378004	-3.06339137297136	42.7052400082595	1.440788978061	-1.25752901608108	-0.000852128864821555	0.00436956929993826
1.07	2.07088795476494	-3.20289710889797	714.055967208841	-3.08497411634856	42.6530418316201	1.4447455314876	-1.26237781037504	-0.000881053472402749	0.00429903711509655
1.08	2.1607294766979	-3.19267436349085	714.048177692847	-3.09888502051502	42.6128408384738	1.44414184085937	-1.26298088858216	-0.000899046633014877	0.00424203944895329
1.09	2.2587099176902	-3.17370090717077	714.085123339774	-3.10730169933764	42.5856267077092	1.4400672974295	-1.26061102351035	-0.000909102459845545	0.00419949600425906
1.1	2.35437355235437	-3.14600766860482	714.161084225412	-3.11191324936149	42.5720619117536	1.43399969506183	-1.25670250395977	-0.000913592507540306	0.00417278912944385
1.11	2.4352024377592	-3.11264028309197	714.259942899323	-3.11390302823214	42.572105307689	1.42750479102123	-1.25258690923486	-0.000914245026431559	0.00416318436657631
1.12	2.4896095318863	-3.07812351356205	714.358042666477	-3.11434302326743	42.5845120967595	1.42190000105744	-1.2492646038935	-0.000912686987288525	0.00417089903507695
1.13	2.50982216805231	-3.04641959319181	714.428666072181	-3.11478400933302	42.6063819964573	1.41794981968491	-1.24723862121234	-0.000911248397054698	0.00419410119390756
1.14	2.4938947537879	-3.01914592542071	714.44730416209	-3.11774975829542	42.6329703629167	1.41567062434971	-1.24643792662759	-0.000913624375835198	0.00422820570589028
1.15	2.44639036033669	-2.99469851513029	714.396716313025	-3.12688071794499	42.6579343737158	1.41430918795843	-1.24625238143415	-0.000925044105378303	0.00426579112098335
1.16	2.3776991692131	-2.96858017854047	714.270805873883	-3.14660712766805	42.6740639161575	1.41251983586505	-1.24568572405616	-0.000951784505651809	0.00429729060139644
1.17	2.3023548669875	-2.93478755552101	714.076585136302	-3.18141012262728	42.674385495252	1.40870833499052	-1.24360531183718	-0.00100011552567858	0.00431236560827569
1.18	2.23692226734835	-2.88772968119436	713.833908162432	-3.2348818804428	42.6533882947956	1.40145486410484	-1.23903608721374	-0.00107497559838354	0.00430164229727614
