Time [s]	GRFml [N]	GRFap [N]	GRFv [N]	Mml [N.m]	Map [N.m]	Mv [N.m]	Mfree [N.m]	COPml [m]	COPap [m]
0.01	8.44783310048764	3.28284210919061	529.449272161489	-40.528724670201	0.973537323018263	0.323467118514929	0.964120299485014	0.00125176957513246	-0.00122086495102994
0.02	8.18678432958019	3.49654692615261	529.008512459906	-40.4989270146151	0.886062517076617	0.297697786952177	0.918619880585042	0.001089281056757	-0.00121373319760909
0.03	7.92977994470277	3.70535020643417	528.57410535673	-40.4682888539698	0.800293108618018	0.272580371696241	0.874124269359466	0.000929642652727801	-0.00120884633961828
0.04	7.68140183815801	3.90472950685518	528.15373047252	-40.4363431399111	0.717814463693877	0.24872331076604	0.831569213238528	0.000775822840092394	-0.0012082561777207
0.05	7.44595919891303	4.09045393670445	527.754675910667	-40.4025987004078	0.64010946069552	0.226691586558621	0.791823455128546	0.000630621149718586	-0.00121402027040524
0.06	7.22733519514668	4.25875974679892	527.383584587612	-40.3665784197063	0.568502116721866	0.206981993643394	0.755653932761779	0.000496558613849509	-0.00122808782884527
0.07	7.02885713414626	4.40650205405624	527.046232527398	-40.3278598008678	0.504108511384278	0.190002617279023	0.723697074264931	0.00037578013107219	-0.00125218455204452
0.08	6.85319588262765	4.53127516028501	526.747348181545	-40.2861158885284	0.447797400187014	0.176057592043582	0.69643756167102	0.000269973983750487	-0.00128770224788566
0.09	6.70229823030817	4.63149609803165	526.490478984872	-40.2411544700516	0.400162382283249	0.165337773837371	0.674195351684063	0.000180312853312401	-0.00133559882737329
0.1	6.57735367620403	4.70644840446682	526.277908378721	-40.1929534776195	0.36150685064586	0.157917515555843	0.657121158572583	0.000107419460751672	-0.00139631375462651
0.11	6.47879498801506	4.75628550502813	526.110623669131	-40.1416905856642	0.331842244460464	0.153757324860717	0.645200064212718	5.13584943065871e-05	-0.00146970332725579
0.12	6.40632998229228	4.78199532408898	525.988332540994	-40.0877651448882	0.310899388395672	0.152711830279012	0.638262459442686	1.1654884081383e-05	-0.00155499929539181
0.13	6.35900041420672	4.78532970360675	525.909523966248	-40.0318108241441	0.298151988787222	0.15454220816853	0.636001161189769	-1.2663128254847e-05	-0.00165079334686556
0.14	6.33526272741625	4.76870381101326	525.871567708567	-39.9746976504848	0.292850709225455	0.158932037373405	0.637993302166038	-2.29991677990798e-05	-0.00175504893144571
0.15	6.33308473143593	4.73507189902002	525.870845660325	-39.9175225466091	0.294065709489388	0.165505451756095	0.643725455560056	-2.11064484204107e-05	-0.00186514080344045
0.16	6.3500520411056	4.6877865208776	525.90290781577	-39.8615879575851	0.300735136252619	0.173846447405505	0.652620429712849	-8.99325300697594e-06	-0.0019779215577362
0.17	6.3834782913753	4.63044861288111	525.962645709462	-39.808368720831	0.311716824963817	0.183518260118975	0.664064235264075	1.11780910721713e-05	-0.00208981334264238
0.18	6.43051366597732	4.56675576333786	526.044476524054	-39.7594679420605	0.325840420873021	0.194081845207754	0.677431873862843	3.71929045534789e-05	-0.00219692187483586
0.19	6.48824706915999	4.50035554312436	526.142531676375	-39.7165632646488	0.341957251257096	0.205112649500035	0.692110805107405	6.68809916657372e-05	-0.00229516888033186
0.2	6.55379823649037	4.43471003796993	526.250844408026	-39.6813455238379	0.358985565537875	0.216215048131434	0.707521197670302	9.82037697976388e-05	-0.00238043816973833
0.21	6.62439713545062	4.37297676303068	526.363531634042	-39.6554523198972	0.375949178742722	0.227034010944819	0.72313234229463	0.000129327812242617	-0.00244872976333056
0.22	6.69744906820428	4.31791002359857	526.474965963505	-39.6403994847741	0.392008071065554	0.237263751811223	0.738474880113611	0.000158682085762955	-0.0024963158572579
0.23	6.7705848886946	4.27178557707512	526.579934352445	-39.6375137169658	0.406480070593247	0.246653288469321	0.753148762917542	0.000184997417783133	-0.002519892017459
0.24	6.8416966302821	4.23635021122576	526.673780266922	-39.6478697879461	0.418853333603074	0.255008993235858	0.766827098525191	0.000207327965432164	-0.00251671685370999
0.25	6.90895957045817	4.21279663695268	526.752526537111	-39.6722356590159	0.428789894530219	0.262194341973914	0.779256233553036	0.000225055584103646	-0.00248473360677157
0.26	6.97084231325384	4.20176294861866	526.812976309672	-39.7110285808501	0.436121047797023	0.268127168666327	0.790252580618549	0.00023787892818151	-0.00242266760628827
0.27	7.02610683925107	4.20335487277569	526.852789709794	-39.7642847843464	0.44083571585815	0.272774806756524	0.799696804278449	0.000245789806414023	-0.00233009443381196
0.28	7.07380066100869	4.21718814151945	526.87053406693	-39.8316447303637	0.443063231445137	0.276147548574739	0.807526040383363	0.000249039731499441	-0.0022074748353904
0.29	7.11324324137013	4.24244761696775	526.865705897656	-39.9123551012508	0.44305210737808	0.27829088391304	0.813724840694163	0.000248099747430367	-0.002056153924339
0.3	7.14400870418249	4.27795927842786	526.838723322301	-40.0052878343743	0.441146385810935	0.27927699141021	0.818315514409931	0.000243616513319103	-0.00187832392276274
0.31	7.16590661759842	4.32227087561638	526.790888248576	-40.1089755716355	0.437761062054086	0.279195954537057	0.821348487741628	0.000236367312764638	-0.00167695151368809
0.32	7.17896228925367	4.3737369533322	526.724318493078	-40.2216619884141	0.433357886541277	0.278147159366508	0.822893229089912	0.000227216200514899	-0.00145567270362004
0.33	7.18339761228446	4.43060405991046	526.641851015704	-40.341364629818	0.428422588877869	0.276231304657027	0.823030197475913	0.000217072956545534	-0.00121865981255509
0.34	7.17961307418172	4.49109224924262	526.546918576401	-40.4659471763964	0.423444270726694	0.273543415874142	0.821844171365195	0.00020685595431705	-0.000970466704749887
0.35	7.16817111905633	4.55346945103975	526.443403334043	-40.5931975318212	0.418897410808043	0.270167202915323	0.819419208534333	0.000197459520867042	-0.000715859552744516
0.36	7.1497806681567	4.61611588539935	526.335472125122	-40.7209078058145	0.415226644600327	0.266171035789078	0.815835378810883	0.000189725916443745	-0.000459641214235626
0.37	7.12528228012187	4.6775763983561	526.227399307431	-40.8469521770261	0.412834247729812	0.261605733203478	0.811167303401008	0.00018442172159232	-0.000206477646978162
0.38	7.09563319333011	4.73659935356007	526.123384048049	-40.9693587677792	0.412070082956919	0.256504266892935	0.805484429899011	0.000182218205898383	3.92653307112328e-05
0.39	7.06189135372693	4.79216148860359	526.02736969213	-41.0863720356118	0.41322367528505	0.250883381927684	0.79885287382188	0.000183675166133294	0.000273667201003566
0.4	7.02519750189917	4.84347889114779	525.942873290106	-41.1965027612715	0.416518058465979	0.244747024119873	0.791338568736661	0.000189227750230435	0.000493373095881725
0.41	6.98675447508266	4.89000493215375	525.872833415895	-41.2985634528706	0.422105081133232	0.238091355286474	0.783011391066626	0.00019917590444458	0.000695683970016264
0.42	6.94780306841412	4.93141657968588	525.819484023082	-41.3916878449409	0.430061956965087	0.230911031943481	0.77394986583236	0.000213676263611176	0.000878612893902037
0.43	6.90959408344435	4.96759098328034	525.784261227159	-41.475334095806	0.440388970588621	0.223206329953047	0.764246019057392	0.000232736513886192	0.00104090562581965
0.44	6.87335655270972	4.99857455091343	525.767748566019	-41.549272219868	0.453008386749726	0.214990623689732	0.754009924031972	0.000256212458505386	0.00118202557902729
0.45	6.84026254318313	5.02454693228461	525.769664509086	-41.6135571756764	0.467764732107359	0.206297679801055	0.743373494086013	0.000283808177842466	0.00130210524299314
0.46	6.81138937993312	5.04578237598865	525.788893827837	-41.6684898118138	0.484426707143967	0.197188207807415	0.732493105122654	0.000315079769463232	0.00140186793164537
0.47	6.78768056190659	5.06261085400706	525.823562016689	-41.7145685032199	0.502691025338251	0.187755126124401	0.721550687062801	0.000349443164638	0.00148252530961758
0.48	6.76990703011352	5.07538116032112	525.871149408855	-41.7524347529162	0.522188459601011	0.178127053986795	0.710753003569283	0.000386186437527699	0.00154565739291576
0.49	6.75863076052915	5.08442791076878	525.928639139566	-41.7828162629131	0.542492300867451	0.168469626184453	0.700328941675689	0.000424486854945357	0.0015930825551506
0.5	6.75417285817641	5.09004402009115	525.992690856036	-41.8064709823227	0.563129306534854	0.158984344921397	0.690524753472093	0.00046343267074344	0.00162672544062635
0.51	6.75658839847908	5.09245983155599	526.05983024453	-41.8241354243765	0.583593049137338	0.149904825457106	0.681597325384782	0.000502049370036428	0.00164849056663298
0.52	6.76565017769591	5.09182964607457	526.126643204527	-41.8364801260711	0.603359384913649	0.141490451302538	0.673805689717988	0.000539329741014756	0.00166014879721792
0.53	6.78084328598175	5.08822596140323	526.189962975429	-41.8440745370903	0.621903567162075	0.134017620803327	0.66740112933374	0.000574266825704139	0.00166324283080987
0.54	6.80137200527291	5.08164130611279	526.247038787185	-41.8473629123581	0.638718350582508	0.127768929183328	0.66261634982151	0.00060588850597404	0.00165901643708821
0.55	6.82617997270922	5.07199715390401	526.295675675497	-41.8466519970667	0.653332288895484	0.123020777635004	0.659654294014805	0.000633292245754629	0.00164837050396403
0.56	6.85398386395623	5.05915904608353	526.334336921328	-41.8421104905065	0.665327334419118	0.120030023604704	0.658677241554159	0.000655678358872498	0.00163184713250386
0.57	6.88332007648512	5.04295674631266	526.362203026434	-41.8337795116975	0.674354815869563	0.119020375254384	0.659796863344008	0.000672380122046332	0.00160964117536988
0.58	6.91260307741096	5.02320801293354	526.379184050182	-41.821592617525	0.68014890481582	0.120169281491248	0.663065881939334	0.000682889114647034	0.00158163688198176
0.59	6.94019327781366	4.99974440898381	526.38588529613	-41.8054033864182	0.682536781542918	0.123596072794987	0.668471922540591	0.000686874342593221	0.0015474658094955
0.6	6.96447156299651	4.97243748467136	526.383529515414	-41.7850182096302	0.681444871590859	0.129352066030852	0.675934028026221	0.000684193986274072	0.00150658098084461
0.61	6.9839170025517	4.94122366491297	526.373841750677	-41.7602317460895	0.676900734154007	0.137413260173188	0.6853021622897	0.000674898986347988	0.00145834148935406
0.62	6.99718383680513	4.90612625554718	526.35890545841	-41.7308624988039	0.66903042829842	0.147676123959263	0.6963598499202	0.000659228123901244	0.00140210140047926
0.63	7.00317362889513	4.86727314247849	526.34100043272	-41.6967861492707	0.658051445530162	0.159956818234691	0.708829910706173	0.000637594734041535	0.00133729688662344
0.64	7.00109851236977	4.82490899124577	526.322434171426	-41.6579646162524	0.644261559396774	0.17399401472914	0.722383059761707	0.000610565681818158	0.00126352601878547
0.65	6.99053176385158	4.77940105002939	526.305378595959	-41.6144692509037	0.628024186439006	0.189455280513858	0.736648973322715	0.000578833692054738	0.00118061646815555
0.66	6.97144248124945	4.73123800381313	526.291723442831	-41.5664970988136	0.609751061228113	0.205946805686541	0.751229279668979	0.000543184526952794	0.00108867745918466
0.67	6.9442119231497	4.68102170594543	526.282956233433	-41.5143797054184	0.58988318722464	0.223026073199144	0.765711834219337	0.000504460817659709	0.000988133567549343
0.68	6.90963001937315	4.62945200867322	526.280076607293	-41.458584470221	0.568871124040538	0.240216915565985	0.779685583459681	0.000463524555223931	0.000879739272232116
0.69	6.86887163633981	4.57730530821058	526.283550131001	-41.399709028324	0.547155703833234	0.257026282959496	0.792755315241432	0.000421220317727037	0.000764574455305631
0.7	6.82345330372379	4.52540779380362	526.293303671015	-41.338469524208	0.525150233111823	0.272961967696257	0.804555629952386	0.000378341248845596	0.000644022211593792
0.71	6.77517220637586	4.47460472521129	526.308761271285	-41.2756839219672	0.503225134049341	0.287550494793606	0.814763541210552	0.000335599613675197	0.000519731314649108
0.72	6.72603024495175	4.42572734061932	526.328916444223	-41.2122516588327	0.481695818816178	0.300354397030575	0.823109216550463	0.000293603454755198	0.000393566435512707
0.73	6.67814680523187	4.37955919991502	526.352434097784	-41.1491309959402	0.460814382688554	0.31098814228772	0.829384487279764	0.000252840477124699	0.000267549696309072
0.74	6.63366449767568	4.33680388104008	526.377773188965	-41.0873153625025	0.440765460914168	0.319132064596605	0.833448881612409	0.000213669833855168	0.00014379735104017
0.75	6.59465249959899	4.29805595722299	526.403319780678	-41.0278098447873	0.421666336575402	0.324543760165673	0.835233056982033	0.000176321994032085	2.44553282169879e-05
0.76	6.56301223501235	4.26377708160681	526.427519595574	-40.9716087625121	0.403571128738395	0.327066536738724	0.834739618938597	0.000140906385630448	-8.83629324708174e-05
0.77	6.54038996265576	4.23427878950191	526.448999452779	-40.9196750278562	0.386478648344941	0.326634640306892	0.83204141068064	0.00010742604688221	-0.000192633427321093
0.78	6.52810042951137	4.20971329971904	526.466668117926	-40.8729217216824	0.370343298450454	0.323275119836209	0.827277437115661	7.5798119183709e-05	-0.00028647106690792
0.79	6.52706511852894	4.19007316480981	526.479788999535	-40.8321960713249	0.3550882279856	0.317106322290157	0.820646650607007	4.58786953549242e-05	-0.000368170204772214
0.8	6.53776782078311	4.17520010304235	526.48801962876	-40.7982657945304	0.340619833518538	0.308333132585305	0.812399874036293	1.74903163922801e-05	-0.00043623554816552
0.81	6.56022934722816	4.16480276814839	526.491415755562	-40.7718076005725	0.326842647135063	0.297239183603715	0.80283017306508	-9.54970160803846e-06	-0.000489403571115835
0.82	6.59400222111446	4.15848260951843	526.490400938103	-40.753397522948	0.313673652220789	0.284176358635165	0.792262016206544	-3.54019273865367e-05	-0.000526655252909014
0.83	6.63818521649934	4.15576638510058	526.485705433881	-40.7435027040496	0.301055130422501	0.269551992049987	0.78103958078758	-6.01801678801857e-05	-0.000547221526615765
0.84	6.69145668494766	4.1561433552424	526.478280768604	-40.7424742613332	0.288965256617967	0.253814243339711	0.769514576638094	-8.39310122490726e-05	-0.000550583198215618
0.85	6.75212478841106	4.15910475233467	526.469198339305	-40.7505409325062	0.277425815536315	0.237436174589401	0.758033968106637	-0.000106618771868348	-0.000536467258247908
0.86	6.81819206896789	4.1641828295842	526.459541629718	-40.7678033154461	0.266506602601954	0.220899101377961	0.746927978721736	-0.000128116667937325	-0.000504841444586943
0.87	6.88743126213294	4.17098667675212	526.450301973059	-40.7942286743353	0.256326279924281	0.204675811126444	0.736498760817767	-0.000148204727089045	-0.000455908637342683
0.88	6.9574689145331	4.17923207460179	526.442287262525	-40.8296464610687	0.247049672726995	0.189214249859	0.727010103571135	-0.000166574441953786	-0.000390102206055454
0.89	7.02587320196634	4.18876295239441	526.436051636372	-40.8737448822327	0.238881698713527	0.174922266955574	0.718678535669618	-0.000182839862970008	-0.000308082834749562
0.9	7.09024235267087	4.19956250699311	526.431852082492	-40.9260690074726	0.232058310817958	0.162153976665385	0.711666151602803	-0.000196554432407273	-0.00021073668577519
0.91	7.14829024663135	4.21175271359156	526.42963531178	-40.9860210455419	0.226834992356537	0.15119824423519	0.706075451626391	-0.000207232570166668	-9.91741009656322e-05
0.92	7.19792606192386	4.22558176562313	526.429055382116	-41.0528634918792	0.223473465252088	0.142269733465192	0.701946433307931	-0.000214374786976443	2.52725475269056e-05
0.93	7.23732524619363	4.24139986940904	526.429519681074	-41.1257258614043	0.222227352261918	0.135502862188354	0.699256106148609	-0.000217494942021712	0.000161053685568915
0.94	7.26498957610132	4.25962472142283	526.430258260332	-41.2036156521095	0.22332757163068	0.130948904468508	0.697920519831675	-0.000216148181266392	0.000306412112912643
0.95	7.27979460058465	4.28069884131237	526.430409397283	-41.2854340346481	0.226968238810034	0.12857635628494	0.697799302087633	-0.000209958087353111	0.000459399393538243
0.96	7.28102331708013	4.30504165160381	526.429112830151	-41.369996533091	0.233293808643289	0.128274549388263	0.698702596438303	-0.000198641635854587	0.000617900867513052
0.97	7.26838547802257	4.33299972222718	526.425601497039	-41.4560586623564	0.242388118057193	0.129860361315282	0.700400177404116	-0.000182030677142125	0.000779670579301742
0.98	7.24202244607141	4.36479888483595	526.419282854411	-41.5423461357447	0.254265889908432	0.133087734663039	0.702632407127202	-0.000160088838301091	0.000942376683492369
0.99	7.20249799290202	4.40050193666438	526.409801923738	-41.6275888751683	0.268867139263367	0.137659592710679	0.705122590265495	-0.000132922955191758	0.00110365698572062
1	7.15077585508262	4.4399753861469	526.397080007104	-41.7105576756048	0.28605478959113	0.143241628569295	0.707590191835908	-0.000100788391253755	0.00126118327552534
1.01	7.08818521353165	4.48286815537837	526.381325349534	-41.7901020255563	0.305615662950736	0.149477358045816	0.709764313858562	-6.40878681866802e-05	0.00141273209387166
1.02	7.01637554715342	4.528604382744	526.363014686737	-41.8651872990297	0.327264859473889	0.156003768120203	0.711396788653168	-2.33637162611507e-05	0.00155625864325777
1.03	6.93726252764038	4.57639151753612	526.342847355339	-41.9349293420896	0.350653391260462	0.162466867574118	0.712274244976557	2.07162587237744e-05	0.00168996978478417
1.04	6.85296677574211	4.62524383743247	526.321676209708	-41.9986244042807	0.375378788406849	0.168536456077092	0.712228540572562	6.73788064982812e-05	0.00181239155869299
1.05	6.76574739657034	4.6740204293176	526.300421756266	-42.0557724312053	0.40099825512138	0.173919472850812	0.711145030484951	0.000115770397156757	0.00192242648162669
1.06	6.67793226101689	4.72147563689196	526.279977493644	-42.106091949214	0.42704382745795	0.178371363459228	0.708968250524349	0.00016498649616616	0.00201939606154221
1.07	6.59184701050741	4.76631907329224	526.261115301244	-42.1495251356274	0.4530388776286	0.181705008678308	0.705704732272803	0.000214103698283132	0.00210306454764164
1.08	6.50974474060104	4.80728159088887	526.24439978131	-42.1862321653205	0.478515230039353	0.183796886312197	0.701422820220923	0.000262213287321217	0.00217364088311975
1.09	6.43373827110569	4.8431831441436	526.230119732031	-42.2165745319653	0.503030107744816	0.184590277467197	0.696249521979555	0.000308454668143191	0.00223175710446201
1.1	6.36573683967112	4.87299830490466	526.218243482007	-42.2410877236356	0.526182120422629	0.184095474744208	0.690364577802334	0.000352047072914194	0.0022784229519503
1.11	6.30738896258681	4.89591530045193	526.208402781339	-42.2604443426217	0.547625539734842	0.182387092673839	0.683992075819391	0.000392317987928947	0.00231495811458289
1.12	6.26003308806927	4.91138482876897	526.199907503173	-42.2754094469033	0.56708218586283	0.179598712785682	0.677390056437571	0.000428726887377008	0.00234290520264599
1.13	6.22465751837604	4.91915552929969	526.191790775805	-42.2867905023892	0.584350367667945	0.175915210459041	0.670838638034133	0.000460883095645284	0.00236392808811146
1.14	6.2018708906739	4.91929380181581	526.182881567153	-42.2953848195261	0.599310472559893	0.17156320315998	0.664627253917032	0.000488556920044462	0.00237970154548189
1.15	6.19188427559853	4.91218661145	526.171899401166	-42.301927660589	0.611926981791619	0.166800126494636	0.659041617593695	0.000511683581035681	0.00239179904708393
1.16	6.1945056714103	4.89852692964403	526.157563993501	-42.3070443108416	0.622246880973705	0.161902483957794	0.65435103151322	0.000530359888158838	0.0024015860259689
1.17	6.20914733863118	4.87928247365892	526.138711301835	-42.311209287702	0.630394630828757	0.157153827985286	0.650796626357755	0.000544834032095496	0.00241012585934933
