Time [s]	GRFml [N]	GRFap [N]	GRFv [N]	Mml [N.m]	Map [N.m]	Mv [N.m]	Mfree [N.m]	COPml [m]	COPap [m]
0.01	-1.11401650494336	2.45512131485734	630.38741760834	-2.78613046025607	19.2838896901831	-0.0188151004850494	-0.0514146270734125	-0.00144747315712868	0.0038937662205078
0.02	0.0362292361204175	2.34970288834632	638.724141327838	-2.37903966273706	19.3909730572988	0.16695994346766	-0.236891500625021	-0.000775038573270992	0.00366870200038255
0.03	1.10587318373805	2.21397860479582	646.655988659713	-1.99864367946644	19.48239535254	0.349854130357891	-0.418318293819488	-0.000147109590369232	0.00343829222003067
0.04	2.00828075162626	2.02038393390081	653.779385195438	-1.67005959246841	19.545360722598	0.526294694096937	-0.591022661939572	0.000394615647907659	0.00320147545151661
0.05	2.65182695617517	1.75581057318193	659.663922531478	-1.41325057127213	19.5758809844385	0.689361670692442	-0.747450964270863	0.000817093216933573	0.00297198073307653
0.06	2.94975981107612	1.42472897236207	663.88671689565	-1.2403720829408	19.5802700165761	0.828836400824946	-0.87734539410268	0.00110027671493862	0.0027791123652452
0.07	2.83888945978143	1.04850791915691	666.105251520181	-1.15369893605939	19.5736400530958	0.932872782583589	-0.969436441854086	0.00124045323128874	0.00266214413906823
0.08	2.30102201453419	0.661809721044799	666.1453112877	-1.14481658517382	19.5759306661108	0.990742681201772	-1.01411550657931	0.00125148893369165	0.00266016780279255
0.09	1.37908715053076	0.307212630225536	664.073504476362	-1.19556823068357	19.6066649000057	0.995785922808368	-1.00623684595312	0.00116322138253033	0.00280060135351828
0.1	0.181099278130658	0.0289571007947564	660.228374721693	-1.28079873334687	19.6798920687536	0.947688997552886	-0.947187523447619	0.00101695548228353	0.00308980161593492
0.11	-1.13129916465182	-0.133653263450567	655.196649762348	-1.37241215401023	19.8006116844866	0.853469520840261	-0.845615028866514	0.000858845958302212	0.00350844388057064
0.12	-2.36835425856599	-0.152774507779413	649.736604664051	-1.44385969954421	19.9634722725221	0.726935476333402	-0.716603089871257	0.000732575893702458	0.00401288712465592
0.13	-3.34632518685525	-0.0178057199762997	644.664034036765	-1.47404199399743	20.1538769528578	0.586783975921344	-0.579500436445725	0.000672951424058321	0.00454210453165321
0.14	-3.92234571553131	0.260613283844275	640.724650504358	-1.44978874268604	20.351002568199	0.453796631816728	-0.454917334601885	0.000701760105972893	0.00502837365568198
0.15	-4.02194588964085	0.64960116165169	638.478550494782	-1.36650622547762	20.5318173855189	0.347724652116946	-0.361543756317228	0.00082658046478068	0.00540911689176182
0.16	-3.65303472787617	1.0969120712293	638.218245211443	-1.22711183061565	20.675057364667	0.284439934289453	-0.313405848946515	0.00104240332778127	0.00563720769114112
0.17	-2.90344000713922	1.53773024620563	639.933477082261	-1.0398295644992	20.7642927836073	0.273800598743683	-0.318008055264008	0.00133519805342941	0.00568765867443166
0.18	-1.92287530880778	1.90434475110272	643.326053571573	-0.815659741982272	20.7895991672773	0.318494536984544	-0.375574318389377	0.00168614862728567	0.00555966138663638
0.19	-0.89353523942551	2.13679070543164	647.868569378004	-0.566298870955497	20.747798135204	0.413929014022681	-0.479368682456791	0.00207529927334194	0.00527413103405922
0.2	0.00427837891841445	2.19224736420033	652.893918689497	-0.303005273852618	20.6416076544061	0.549061536670225	-0.616892239787036	0.00248374951039032	0.00486789565284773
0.21	0.624380872642442	2.05139549339379	657.698869513372	-0.0364898686048388	20.4782313784283	0.707942309606003	-0.771649542271536	0.00289417125083702	0.00438621860290145
0.22	0.878475096879806	1.72086238009829	661.644795478872	0.222498669029527	20.2678904069409	0.871681932488048	-0.925164613303041	0.00329007309493423	0.00387536796090432
0.23	0.7472849474998	1.23190501381055	664.241353805325	0.462498208098976	20.0226031001691	1.02057788503511	-1.05899468382851	0.00365470294000314	0.00337652303258662
0.24	0.277840783738589	0.636177214987329	665.203418755162	0.671221044926009	19.7552509981115	1.13621313275769	-1.15660342283004	0.00397061434015011	0.00292164037747261
0.25	-0.431140187112354	-0.000413317841537456	664.476719891083	0.836467164977083	19.4787494711777	1.20343339128812	-1.2050581602644	0.0042206771960609	0.00253124368008484
0.26	-1.25128537274921	-0.605020942930595	662.232320782277	0.948141030725857	19.2050620362174	1.21215571816437	-1.19654963332215	0.00439075354084018	0.00221367067877315
0.27	-2.04827842716801	-1.10597450300826	658.83360940127	1.00098777271531	18.9438905609899	1.15891946608726	-1.1296702988878	0.00447355067000754	0.0019652163113888
0.28	-2.70196006798773	-1.44140874751586	654.781654357573	0.997272721506891	18.7011035827134	1.04797247427483	-1.01025452578588	0.00447253781733137	0.00177082671580014
0.29	-3.11947599720912	-1.56782596499463	650.645867499704	0.948451013288749	18.477237876302	0.891560725314165	-0.851459554421971	0.00440450040967522	0.00160537506405473
0.3	-3.24086969852801	-1.46743026116266	646.987431490812	0.875002510241172	18.2666042877846	0.709058896992086	-0.672747772255826	0.00429945970268497	0.00143587511240539
0.31	-3.03901743932336	-1.15262252575262	644.283412979303	0.804038511259983	18.05754412577	0.524720291243805	-0.49758493790474	0.00419731109100718	0.00122506746052475
0.32	-2.51711467506122	-0.666085046188977	642.860084556738	0.764911067057998	17.8341712093705	0.364143597300334	-0.349987897697285	0.00414146890028388	0.000936550914417689
0.33	-1.7065839305551	-0.0755925910734346	642.844414878224	0.783683617242049	17.5795344441472	0.249966219469352	-0.25044694655963	0.00417075891490026	0.000541079843115799
0.34	-0.666527197091378	0.536085432932212	644.142194906894	0.877744489376062	17.2796646781837	0.197648969682242	-0.212065294302103	0.00431145040513903	2.30052114045809e-05
0.35	0.516433182534314	1.08449128844138	646.448974874719	1.05190908436752	16.9275913040089	0.212358707476542	-0.237858586270136	0.00457143001616389	-0.000614623039307038
0.36	1.73074676991805	1.49734216543957	649.295440162206	1.29702353233244	16.5262791638894	0.287792180059773	-0.319966723494362	0.00493803089209766	-0.00134780916399807
0.37	2.84793201699729	1.72608740833484	652.122501446752	1.59144764482482	16.0896206708148	0.407335639248163	-0.441081196023267	0.00538008818194413	-0.00213324792821401
0.38	3.73735722318487	1.75289249953403	654.37466314837	1.90505648542372	15.6410853483958	0.547353318350165	-0.577818757640886	0.00585369839934857	-0.00291396330970423
0.39	4.28643535628593	1.59195286287739	655.595192250795	2.20478697048011	15.2102375184433	0.681839890863863	-0.705263351761448	0.00631025940958707	-0.00362802188627998
0.4	4.42211300548014	1.28536943698551	655.505049315135	2.46044493960629	14.8278877863945	0.787339592740018	-0.80161736254085	0.00670491954520969	-0.00421855485632977
0.41	4.1279971938959	0.894889117647139	654.050279157786	2.64954342108207	14.520973059511	0.847024358442368	-0.851929376653732	0.0070036558398775	-0.00464296635637873
0.42	3.45186895818532	0.491369162547796	651.409029414991	2.7603054310522	14.3082771388321	0.853115363663945	-0.850168147561055	0.00718773593521294	-0.00487942712911554
0.43	2.50061395350374	0.143836050669765	647.957838954742	2.79248962758619	14.197832711168	0.807310847284778	-0.799375268786091	0.00725507640109135	-0.00492944879638207
0.44	1.42295186832469	-0.0903616676967203	644.205062182161	2.75621666678069	14.1863951088016	0.719390003385388	-0.710103640791648	0.00721874721160676	-0.00481626593400386
0.45	0.383591455616591	-0.173313631951619	640.705270430955	2.66935593567309	14.2608918118625	0.604556244655881	-0.597707423357874	0.00710340359556227	-0.00457965003692223
0.46	-0.465476713542077	-0.0916579240918674	637.971021616487	2.55421145494745	14.4013537008075	0.480276546308779	-0.479217638624536	0.00694067033040968	-0.00426843212382366
0.47	-1.01045112934575	0.141268597546514	636.397351471886	2.43422452564359	14.5845980227525	0.363347987021804	-0.370503241109993	0.00676447331210961	-0.00393231751914058
0.48	-1.19306076828328	0.486442975492901	636.210408312762	2.3312381786022	14.7878772557825	0.267719021428079	-0.284219694201775	0.00660708233139884	-0.00361453750589236
0.49	-1.01708138843542	0.883452458342472	637.446034820878	2.26361438766662	14.9918111784629	0.203292763704073	-0.22875968574158	0.00649629141319541	-0.00334656368654257
0.5	-0.543752135230622	1.25799373958098	639.958148680803	2.24522989087479	15.1821407772299	0.175639013596219	-0.208130674697488	0.00645380788152683	-0.00314560426068594
0.51	0.122150631464067	1.53208696256385	643.451700217187	2.28516134586915	15.350135148393	0.18632574350689	-0.222469694712613	0.00649462398724576	-0.00301500401896687
0.52	0.852473317727146	1.63592930801614	647.53165979016	2.38775185392028	15.4917952634718	0.233500097607846	-0.268816980252451	0.00662696653249462	-0.00294708024125107
0.53	1.51829835533412	1.5197029909736	651.758322208864	2.55275426453764	15.6062735873528	0.312408360572725	-0.341815939517161	0.00685240121485764	-0.00292744837309389
0.54	2.01111857849589	1.16326336193545	655.70012453861	2.77536744212718	15.6941034732752	0.415704777060908	-0.434156702184975	0.00716581426707408	-0.00293962678467097
0.55	2.25905097239237	0.581697171503883	658.977628256971	3.04617767266276	15.7558526681335	0.533593602540868	-0.536774198313398	0.00755525721767181	-0.00296873717322693
0.56	2.2354369933726	-0.174638683697929	661.295488126477	3.35121440960165	15.7916567741731	0.654006178290359	-0.638980963949436	0.00800192336600003	-0.00300345576246036
0.57	1.95857153537131	-1.02591891960182	662.462203747394	3.67244468455858	15.8017766003518	0.763082619028381	-0.728803547965805	0.0084807080356496	-0.00303595401243223
0.58	1.48311469810991	-1.87359932267099	662.399460552025	3.98900578716567	15.7879390310926	0.846185946570295	-0.79377142580269	0.00896179801354235	-0.00306024212693146
0.59	0.885627066281314	-2.61424358326544	661.14350211362	4.27930519584014	15.7548850726306	0.889538863555826	-0.822283810129118	0.00941351848827898	-0.00306988606689018
0.6	0.248090422177516	-3.15410558599499	658.840292642358	4.52385064123926	15.7113857759839	0.882377423288089	-0.805485942784645	0.00980629979683223	-0.00305630968919096
0.61	-0.356319844340056	-3.42228451433197	655.734748079323	4.70839754519201	15.6700799439957	0.819309650350485	-0.739372734602582	0.0101172281136245	-0.0030087013435664
0.62	-0.871857403176545	-3.38082004661412	652.152863831449	4.82680304584106	15.6458394269839	0.702399076636698	-0.626659964691342	0.0103343380540573	-0.00291594248586124
0.63	-1.26193594122983	-3.03074022089095	648.47499653087	4.88291464392038	15.6528845074211	0.542407687819528	-0.477874215723128	0.0104596807064247	-0.00277014363155531
0.64	-1.50523483372414	-2.41354799530536	645.099412513949	4.89091714121306	15.7013822861427	0.35866858307604	-0.311153872233857	0.0105102954698997	-0.00257060173089263
0.65	-1.58951579386311	-1.60786757963783	642.397503203719	4.87380050709882	15.7945711138557	0.177242266111691	-0.150446210248672	0.0105165201581126	-0.00232659104451588
0.66	-1.50718517237033	-0.721132131140688	640.665205861337	4.85995815124329	15.9274208253271	0.0273420857101595	-0.0221187839321027	0.0105175509818439	-0.00205757240878662
0.67	-1.25557341632717	0.1234440317251	640.078146117174	4.87832758901934	16.0874347907824	-0.0635504050799558	0.0495782366703678	0.0105547445098827	-0.00179015837502855
0.68	-0.842429536480915	0.803618533224284	640.659693461678	4.9528719756319	16.257540788258	-0.0750192301148538	0.0473600109707892	0.0106637359858051	-0.00155227823276505
0.69	-0.294257186472823	1.21655208350698	642.270569787118	5.0974795688074	16.4203290321228	0.00166898061739986	-0.0350285130403147	0.0108668953755121	-0.00136605467523587
0.7	0.336880914083889	1.29586634944488	644.625504613456	5.312431168809	16.5624297802113	0.160861282392324	-0.190613679539484	0.0111678034263295	-0.0012415187419953
0.71	0.972635900104236	1.02383150006856	647.337101114181	5.5833828547779	16.6777559446305	0.38260464333484	-0.399608178110663	0.0115491908034573	-0.0011731883725889
0.72	1.51642971589674	0.435691877915414	649.980769111999	5.88333021143624	16.7686926352029	0.635766764286988	-0.632583884228896	0.011975127465563	-0.00114072565010659
0.73	1.86984711351812	-0.38535566606621	652.169003976135	6.17734908049751	16.8449588813039	0.8836559442064	-0.855830572245152	0.0123972950129432	-0.00111365072406205
0.74	1.95370207453045	-1.32188391875845	653.620126430358	6.42921509615887	16.9205602797718	1.09091756375281	-1.03772346857826	0.0127641613211746	-0.00105886619434226
0.75	1.72810160530199	-2.24192432878707	654.206929525454	6.60849100307918	17.0097602229288	1.23012064472914	-1.15462973883932	0.0130310978411203	-0.000948948811912043
0.76	1.205716241653	-3.02054005958169	653.974611688643	6.69650376050526	17.1231800040808	1.28653236523274	-1.19500516221053	0.0131691851071544	-0.000769025952042535
0.77	0.454192990307534	-3.55900608461173	653.124006664604	6.68988337494785	17.264985189269	1.26008357937434	-1.16082922286967	0.0131707552879287	-0.000520554550397845
0.78	-0.413477947014662	-3.79825551103591	651.963823415868	6.60094339635142	17.4317286243262	1.16428554717369	-1.06623722091332	0.0130505488618008	-0.000221237993111745
0.79	-1.25875764920816	-3.72488883367574	650.842490083894	6.45497055408811	17.6129511797697	1.02262371723551	-0.933907159722775	0.0128424667191614	9.86622882986898e-05
0.8	-1.94320351029374	-3.36976543102056	650.074597902872	6.28521570985145	17.7932286081239	0.863499333632164	-0.790240507369848	0.0125929334068231	0.000402526024208261
0.81	-2.35440579675436	-2.80048126980228	649.877844411638	6.1268207725099	17.9550825546708	0.714975821247985	-0.660518675553747	0.0123525351518342	0.000654515815139811
0.82	-2.42674979317139	-2.10965560405482	650.333625217933	6.01096518463046	18.0820705535372	0.600406434623625	-0.565019873073919	0.0121676949500958	0.000826033577688678
0.83	-2.15282031540034	-1.40100108897309	651.378727605159	5.96021212909297	18.1614137764059	0.535585342490587	-0.516652615910153	0.0120737532948045	0.00090016300956014
0.84	-1.58335868643937	-0.774928435104389	652.828305426279	5.98555045970066	18.1856741321059	0.527558060732254	-0.520174390260757	0.0120901825655436	0.000873312617415078
0.85	-0.816089946114758	-0.315217464677607	654.423163801143	6.0851834923432	18.1532183883218	0.574826565688183	-0.572684549403462	0.0122180884640655	0.000753933732650036
0.86	0.0240354259139135	-0.0781765125781825	655.889020818047	6.24487314795488	18.0674777779423	0.668497086812993	-0.664912190158235	0.0124398678159515	0.000558846311292827
0.87	0.808994057715776	-0.0856135237197331	656.993122650491	6.43963771769655	17.9352940241936	0.793950051044589	-0.782868927685564	0.0127209244116456	0.000308251858618436
0.88	1.43123655065425	-0.322658463390846	657.584960787316	6.6367148718162	17.7648841519989	0.932778164382757	-0.909622733830915	0.0130135149840604	2.08364012694306e-05
0.89	1.82178623906971	-0.740879065098367	657.612579325745	6.79975930304165	17.5640835455406	1.0649153161543	-1.02714836487835	0.0132628315677884	-0.000289636248077152
0.9	1.95918517365806	-1.26627822327744	657.112865055504	6.89410544722603	17.3394690582709	1.17095965487135	-1.1183116383016	0.0134151208421148	-0.000615227625560877
0.91	1.86757946904073	-1.8108884770814	656.18141421057	6.89257651195507	17.096694757834	1.23463633508691	-1.16899792381637	0.0134269981999737	-0.000951942555864671
0.92	1.60477916188728	-2.28607554255027	654.933015032468	6.78089691039008	16.8419432620606	1.24518419696426	-1.17022752361846	0.0132743703233877	-0.00129568821759202
0.93	1.24367727536562	-2.61550502726665	653.465857387121	6.56148988659146	16.5839374075458	1.19927842577043	-1.11990422339712	0.0129589043000424	-0.00163750984697802
0.94	0.852264559761625	-2.74598728782404	651.840643893938	6.25451626698431	16.3356435028686	1.10202340029586	-1.02373238619676	0.0125100973657118	-0.00195995143969702
0.95	0.477957314301047	-2.6549042962037	650.080433037788	5.89550506939993	16.1147749211226	0.966635259002619	-0.894895848441515	0.0119818184273965	-0.00223620254421536
0.96	0.140705311763576	-2.35342164875061	648.189971109373	5.52973488880451	15.9425245098561	0.81268119927918	-0.752330304677452	0.0114435295048322	-0.00243289354201531
0.97	-0.163443341366426	-1.88509114139601	646.186678444126	5.204393454316	15.8405374152905	0.663079878099795	-0.61777119238066	0.0109678352518968	-0.00251620536059488
0.98	-0.450177857121248	-1.3198066900099	644.131378333536	4.96017213269095	15.8267903572627	0.540381734658875	-0.512100390826514	0.0106170603038032	-0.00245974971143337
0.99	-0.731107204844523	-0.743532917025593	642.146528981191	4.82411927078735	15.911529766428	0.463034610733514	-0.451726000830122	0.01043184860349	-0.00225188080817612
1	-1.00071320084802	-0.244881626584574	640.413252286973	4.80522607289556	16.0945436440977	0.442343526819304	-0.44573858976939	0.0104242187344833	-0.00190003604834293
1.01	-1.23168698575016	0.0995948087710366	639.14485584143	4.89348550554856	16.3647281199451	0.48066538838435	-0.494398383493259	0.0105763052437277	-0.00143045128547137
1.02	-1.38129259764941	0.238840094790126	638.542007107497	5.06231353422837	16.7022462460037	0.571105321913051	-0.589192164014303	0.010844596205188	-0.000882951695036216
1.03	-1.40724323018219	0.156675433417368	638.741070383138	5.27353474550511	17.0827837305889	0.698688629417487	-0.714360795457136	0.0111683081235893	-0.000302048747874761
1.04	-1.28773263008582	-0.125170876871461	639.770374373184	5.48379218819623	17.4827580498553	0.842744898164301	-0.849533999514391	0.0114799353199087	0.000273239092964617
1.05	-1.03822290629302	-0.551437491750086	641.528118754237	5.65125833047494	17.8840583003783	0.980095624941295	-0.972971467914971	0.0117160223074952	0.000817993396807382
1.06	-0.718220778551407	-1.04442858425577	643.790260852967	5.74176552486027	18.2770731010473	1.08857990116711	-1.06489729100019	0.011826636598573	0.00132606097936394
1.07	-0.424436883047137	-1.51945108355944	646.24846116033	5.73374723809901	18.6613252427897	1.15045391609039	-1.11048420729329	0.0117825543458308	0.00180962709057231
1.08	-0.27127642537862	-1.9010894598248	648.569525618111	5.62154657933551	19.0437631591086	1.15522698888028	-1.10213847947306	0.0115795625669587	0.00229407337364662
1.09	-0.363858015798291	-2.13668636629438	650.461590924451	5.4166925655034	19.4354012854988	1.10153685134345	-1.04081727767708	0.011239462851255	0.00280980267767539
1.1	-0.77115123792861	-2.20429656200162	651.730645020934	5.14677145048783	19.8473489419818	0.997733676427896	-0.936177172958897	0.0108074549374018	0.003383375785321
1.11	-1.50660172435249	-2.1139746903774	652.314337875579	4.85167598580525	20.2872453532318	0.860964077313066	-0.805435122980851	0.0103457925763197	0.00403017309741222
1.12	-2.52108288046843	-1.90296485420729	652.287036020574	4.57738754688386	20.7567994036617	0.71474222252126	-0.670959109268244	0.00992408582908932	0.0047500259547012
1.13	-3.70933483840231	-1.62660971360061	651.83802548289	4.36799938006426	21.2506909658173	0.585254687609118	-0.556807742898772	0.00960735294858894	0.00552623569102512
1.14	-4.92764353948301	-1.34727393738162	651.230846205496	4.25726613856634	21.7567150475353	0.496922122735878	-0.484678488501832	0.00944369940980805	0.00632752794901886
1.15	-6.01840208528226	-1.12333985379725	650.754196183198	4.26134789193673	22.2568580995752	0.467963859968391	-0.469936794350041	0.00945401811679902	0.00711203907533114
1.16	-6.83663304174789	-0.999735952777353	650.673674598923	4.37441961550333	22.7289909412389	0.506810106298185	-0.518503097498069	0.00962608848146629	0.0078324165343423
1.17	-7.27408168811065	-1.00091870086612	651.190383342935	4.56836350544228	23.1489549026702	0.610131447334319	-0.625307919485669	0.00991477831958731	0.00844134331283503
1.18	-7.2774035181129	-1.12697431731487	652.409214353774	4.79692268158558	23.4928925301591	0.762995777310427	-0.774766967162841	0.01024881357378	0.00889701087048717
