Time [s]	GRFml [N]	GRFap [N]	GRFv [N]	Mml [N.m]	Map [N.m]	Mv [N.m]	Mfree [N.m]	COPml [m]	COPap [m]
0.01	-1.86512575898999	1.35382125506472	873.327749315485	-2.53607458526759	-7.42622893800905	1.2594487537373	-1.2425591251661	-0.00648971652997132	-0.00056925893669002
0.02	-1.87312361405062	1.49417848567762	872.486588607683	-2.78034529238427	-7.243923158438	1.22626829208719	-1.20799897941171	-0.00677600795548916	-0.000370839162032177
0.03	-1.90079377655114	1.62752644373476	871.699522296713	-3.03329982467425	-7.04802179933729	1.19431646993713	-1.17464234137249	-0.00707224991560496	-0.000156152801173037
0.04	-1.96583182718624	1.7495688606464	871.006212016539	-3.29959580040199	-6.8287038672165	1.16483863039224	-1.14369657291729	-0.00738380520299287	8.65981036783925e-05
0.05	-2.08074293563508	1.86187558327067	870.453335051209	-3.5790815132119	-6.58055176277219	1.13885720642888	-1.11613054680287	-0.00771032569140739	0.000364071110968145
0.06	-2.25098010605707	1.97235300283312	870.096785340386	-3.86674935481081	-6.30339649545642	1.11700316510917	-1.09251134508687	-0.00804565921779166	0.000676798404237344
0.07	-2.47379701872514	2.09319981137371	869.99813883352	-4.1541314725579	-6.00229089909758	1.09938197773207	-1.07288828467939	-0.00837949397641302	0.00101920451579179
0.08	-2.73798939191255	2.23688917061632	870.21547802807	-4.43149781161058	-5.68669190854168	1.08553426285739	-1.05678014193566	-0.00869999676254218	0.00138052977944897
0.09	-3.02473998793757	2.41142427994118	870.790217893842	-4.69003690360767	-5.36900309066274	1.07453274878338	-1.04329820213038	-0.00899647575685791	0.0017464837757416
0.1	-3.30975397331971	2.61642693348325	871.733008243454	-4.92335405908828	-5.06267700429658	1.06521501946999	-1.03139370512201	-0.00926126355088353	0.00210140265445025
0.11	-3.56669047511655	2.84142875061382	873.012709773222	-5.12799391893753	-4.78014215884173	1.05650002770078	-1.02016887833625	-0.00949044086201034	0.00243061597965782
0.12	-3.77154805959849	3.06709356439346	874.552358141825	-5.30310453885716	-4.53089494126419	1.04769463124305	-1.00915482820086	-0.00968350018100184	0.00272264597574562
0.13	-3.90723318038046	3.26920107096166	876.234668060728	-5.44963991018823	-4.3201367590709	1.03868339444893	-0.998454411158734	-0.00984238707727036	0.00297081422842027
0.14	-3.96720478529941	3.42434677185369	877.917177707655	-5.56955628941368	-4.14828625078326	1.02992185783357	-0.988682453050176	-0.00997044726232366	0.00317387988316742
0.15	-3.95704069127195	3.51574432240875	879.454265340799	-5.66531078913664	-4.01152888160736	1.02221664060769	-0.980702771322804	-0.0100716622297548	0.00333551265706278
0.16	-3.89313678024706	3.53744774868924	880.720921791011	-5.7397205070169	-3.90330516996588	1.01635457812966	-0.975238939689158	-0.0101502860218359	0.00346269145668365
0.17	-3.79850199175739	3.49577717203119	881.632190559989	-5.79601825126303	-3.81635803036778	1.01270716190727	-0.972493023093114	-0.0102107456333241	0.00356343561235911
0.18	-3.69654748394275	3.40758506544666	882.153043803536	-5.83784458421586	-3.74475982405679	1.01095842136586	-0.971918098656206	-0.0102575477635055	0.00364450867618415
0.19	-3.60456162352128	3.29595398509873	882.296016978447	-5.86897292807464	-3.68530867276293	1.0100721225658	-0.972247796563813	-0.0102949783116753	0.00370978338602657
0.2	-3.52888508784462	3.18464681068817	882.107478130619	-5.89273171041365	-3.63785644949854	1.00853677591383	-0.971802153747601	-0.0103265443610879	0.0037597768840244
0.21	-3.4634594259503	3.09289807524907	881.646885975303	-5.91127962331345	-3.60446639533049	1.00483055892426	-0.968992520259475	-0.0103543018222099	0.00379249865541448
0.22	-3.39245796618504	3.03187905151599	880.965665998956	-5.92501842954956	-3.58768693395103	0.997965810694937	-0.96287239214102	-0.0103783423756524	0.00380531901254039
0.23	-3.29640219207796	3.00352473593275	880.092587258049	-5.9324342533265	-3.58853186795853	0.987932551832152	-0.953552020788653	-0.0103967202545341	0.0037972171483206
0.24	-3.1599557775112	3.00164358922434	879.030545643946	-5.9305349385452	-3.60486429831784	0.975877635302116	-0.942323658477928	-0.0104059746749697	0.00377063202556088
0.25	-2.97890777264068	3.0146201819738	877.765978437435	-5.91584148984392	-3.63075236603487	0.963928449621993	-0.931424934524928	-0.0104021927060901	0.00373226621849049
0.26	-2.76397878006206	3.02874495058375	876.287891696371	-5.88567456105393	-3.65704522393765	0.954678370713503	-0.923477980601955	-0.0103823410083812	0.00369253653027846
0.27	-2.54001208771623	3.03128274240934	874.610080064617	-5.83933695936553	-3.67301889642936	0.950463517698548	-0.920749099553179	-0.0103454591869749	0.00366380581163545
0.28	-2.34056465814235	3.01270235089914	872.788743963784	-5.77878900201949	-3.66859774941586	0.952640463814317	-0.924443621808133	-0.0102933113017698	0.00365792028814882
0.29	-2.19941362057022	2.967854604699	870.928893661652	-5.70855576384338	-3.63647850194496	0.961092649526922	-0.934257088222594	-0.0102302441487395	0.00368379127990381
0.3	-2.14153131109097	2.89616373819853	869.17632803121	-5.63484994036676	-3.57352348914092	0.974137368942219	-0.948339106899636	-0.0101622545020181	0.00374573536592493
0.31	-2.17629279935711	2.80103361038654	867.696460928354	-5.56415668263801	-3.48103131063533	0.988887976175623	-0.963705687593861	-0.0100955346978583	0.00384303545575987
0.32	-2.29498485703424	2.68870241140825	866.645329246426	-5.50171230853392	-3.36385559153265	1.00198306304157	-0.976996041741205	-0.0100349491537767	0.00397079077920531
0.33	-2.47332246448542	2.56678056698141	866.140416791094	-5.45034861050874	-3.22870689212968	1.01047351935526	-0.985357023799768	-0.00998292448345306	0.00412171641830988
0.34	-2.67811696484586	2.44272846325868	866.238794391446	-5.41005452434243	-3.0822180474618	1.01260238866164	-0.987192343454486	-0.00993910103705931	0.00428826798905263
0.35	-2.87600286141089	2.32256835993003	866.927715743908	-5.3783735929436	-2.9293985201411	1.00824278931896	-0.982552520295667	-0.00990084504483268	0.00446439889432149
0.36	-3.04160581095539	2.21012445650683	868.129163360796	-5.35149533516264	-2.77293784555172	0.998867149070055	-0.973054003828136	-0.00986444985630375	0.00464642448348829
0.37	-3.16284591127365	2.10698731912691	869.716168936763	-5.32570030822728	-2.61350610179357	0.987069885694527	-0.961364283758802	-0.00982665486305678	0.0048328034776437
0.38	-3.24205750699372	2.01319130552827	871.536121471924	-5.29873849756139	-2.45085516499419	0.975803789077335	-0.95042322542706	-0.00978603823188373	0.00502302728925985
0.39	-3.29291025920681	1.92833687943043	873.435286161299	-5.27076579918888	-2.28526831157073	0.967570412703907	-0.942643846057554	-0.00974389875614512	0.00521609818725444
0.4	-3.33431986325922	1.85269771259445	875.279343528935	-5.2446001021845	-2.11881728500433	0.963802033755633	-0.939325799431401	-0.009704394542697	0.0054091856840453
0.41	-3.38330512842464	1.78783335804521	876.96643800773	-5.22523628722954	-1.95597890724104	0.964594311146221	-0.940430967927831	-0.00967389709699484	0.00559695787833525
0.42	-3.4489136899753	1.73641941961847	878.431361344913	-5.21873400996865	-1.80338847422499	0.968829243297786	-0.944748490868635	-0.00965970212799372	0.00577184238906908
0.43	-3.52891915333196	1.70134390251147	879.641547444004	-5.23073482419541	-1.66877993883367	0.974612953426875	-0.950362145091614	-0.00966838425723071	0.00592517264138676
0.44	-3.6101506234212	1.68445685097752	880.587182913597	-5.26495814429981	-1.55939888906546	0.979878549346472	-0.955262199060944	-0.00970417441922944	0.00604891361116278
0.45	-3.67229215791042	1.68554358233774	881.268769937364	-5.32205197306428	-1.48031587948467	0.982984701029813	-0.957929706787397	-0.00976775925603235	0.0061375018630111
0.46	-3.69404094836436	1.70202556174273	881.685815504857	-5.39911666322047	-1.43309210877257	0.983166916827747	-0.957753761652483	-0.00985583300370541	0.00618930411913471
0.47	-3.65986489450734	1.72959279198589	881.829885003611	-5.490071012845	-1.41516253703489	0.98075027939698	-0.955199577987057	-0.00996156713421548	0.00620729111548762
0.48	-3.56541354038634	1.76356061517786	881.684035776645	-5.58681022544023	-1.42012701536837	0.977090636744061	-0.951706958789663	-0.0100759245432702	0.00619871350330892
0.49	-3.41997377976031	1.80040222027386	881.228800975254	-5.68087180141352	-1.43891402632192	0.974265671966963	-0.949353297619165	-0.0101894961774666	0.00617381458934479
0.5	-3.24515969237718	1.8387952773086	880.452846146113	-5.76515963160441	-1.46155239732945	0.974584863403353	-0.950359257151161	-0.0102943668648816	0.00614386797828992
0.51	-3.07008876071559	1.87970192178378	879.364796001933	-5.8352504457676	-1.47911155491306	0.980025677835508	-0.956546886028632	-0.010385500033556	0.00611902303278666
0.52	-2.92433201301249	1.92540989194143	878.002145526352	-5.8899443680713	-1.48530622960217	0.991725436786222	-0.968873993364606	-0.0104612904681668	0.0061065154313748
0.53	-2.83062194629306	1.97792398352012	876.433949019716	-5.93097854069103	-1.47734013076851	1.00965373671548	-0.987157196280423	-0.0105232183381992	0.0061097162060551
0.54	-2.79942869533288	2.03740300490686	874.755937008873	-5.96210072673651	-1.45577523749767	1.03255240843797	-1.01005493824471	-0.0105748365639555	0.00612825987325982
0.55	-2.82700628958047	2.10134470920779	873.079165568955	-5.98788792513512	-1.42349994983341	1.05816379767164	-1.03531736665092	-0.0106205176395258	0.0061591749817137
0.56	-2.8975011193694	2.16492150855506	871.515344565354	-6.01272153082388	-1.38413821262258	1.08369222980138	-1.06024056347455	-0.0106644010224305	0.00619864058108399
0.57	-2.98850402142482	2.22239421062547	870.162866986992	-6.04019406585666	-1.34040234884674	1.10638288262752	-1.08221124194197	-0.0107098219444138	0.00624381092181558
0.58	-3.07838824290337	2.26908586915143	869.096998995921	-6.07299044439662	-1.29289273868906	1.12407637948149	-1.09921104073321	-0.0107592449401851	0.00629414722878791
0.59	-3.15323153558257	2.30316747137304	868.365998074944	-6.11306380626547	-1.23969395871281	1.1356114083993	-1.11016909425547	-0.0108144863966146	0.006351864127144
0.6	-3.21124067351923	2.3265742554214	867.99282999024	-6.16180875580291	-1.17686797648444	1.14099228693053	-1.11509640729627	-0.0108768938490781	0.00642137529994202
0.61	-3.26334194526724	2.34469109153373	867.980462495618	-6.21997225919039	-1.09968440824306	1.14129707093111	-1.11498900929253	-0.0109472049689614	0.00650791501318643
0.62	-3.32974023816994	2.36487830320117	868.317980171662	-6.28721628677988	-1.0042328709265	1.1383591302401	-1.11153517925142	-0.011025011421288	0.00661573252351749
0.63	-3.43343413260792	2.39429093793342	868.985106531224	-6.36147842526182	-0.888979706238597	1.13430093437363	-1.10669801629765	-0.0111080124773617	0.00674635162442866
0.64	-3.59255064487497	2.4376527653306	869.953836205918	-6.43846002190979	-0.755868187139936	1.13102742766708	-1.10226581464929	-0.0111914411255474	0.00689734780988654
0.65	-3.81368021105547	2.49563758960632	871.187243324116	-6.51161398623411	-0.61069150465992	1.12979413602662	-1.09946779403671	-0.0112680812623475	0.00706194897123691
0.66	-4.08807797999686	2.56431556209644	872.636628884817	-6.57287039082052	-0.462646006279834	1.1309495862734	-1.09874007321922	-0.0113291322934534	0.00722956303236272
0.67	-4.39177331190024	2.63581659871006	874.238689443441	-6.61406843514917	-0.323150483314999	1.13391324025948	-1.09969578886291	-0.0113658668843331	0.00738713234257132
0.68	-4.68956272498302	2.70003501076753	875.914294364501	-6.62876411847898	-0.204158935644155	1.13739467861361	-1.10130715430079	-0.0113716899418895	0.00752105320953783
0.69	-4.94186916066687	2.74692918554055	877.569935668054	-6.61388227912583	-0.116280040810035	1.13979866808616	-1.10225441958077	-0.0113439862539724	0.00761930264528338
0.7	-5.11279275504128	2.76881890072844	879.102244421568	-6.57067317560384	-0.067043856513154	1.13970920004658	-1.10134984372148	-0.0112851438464179	0.00767338646151061
0.71	-5.17748477305536	2.76208550004468	880.405380891237	-6.50463227953219	-0.0596315455978776	1.13631878524283	-1.09791804788809	-0.0112023735404373	0.0076797548830187
0.72	-5.12722935557032	2.7278379792894	881.380685396242	-6.42437357448032	-0.0923144088758783	1.12967806935961	-1.09201889624388	-0.0111063265210652	0.00764041374730084
0.73	-4.97119321230057	2.67138512521387	881.947659893052	-6.33978067190936	-0.158738900449336	1.12068752483101	-1.0844394321458	-0.011008892361847	0.00756258422820671
0.74	-4.73453761557036	2.60068150026601	882.055021521203	-6.2599675748897	-0.249050400163606	1.11082835116778	-1.07645023250827	-0.0109207948348445	0.00745742474249245
0.75	-4.45333052354717	2.5242056346208	881.690190374532	-6.1915920786861	-0.351685140283109	1.10171280543545	-1.06939946628318	-0.0108496141722574	0.0073380093120109
0.76	-4.1673337302871	2.44889672561723	880.885263476875	-6.13789597879707	-0.455505712465271	1.09459698370957	-1.06427771450923	-0.0107986714416287	0.00721692621073577
0.77	-3.91217974386772	2.37876212524702	879.71753433702	-6.098584595499	-0.551850706834849	1.09001644542706	-1.0614031277338	-0.0107669115626081	0.00710397618905628
0.78	-3.71261629093707	2.31456111895425	878.303191337414	-6.07041425732805	-0.636051742081184	1.0876663496077	-1.06033879323275	-0.0107496403888928	0.00700446862434967
0.79	-3.57832034753597	2.25462181387615	876.78404816264	-6.04821239148713	-0.708062759950626	1.08656391823556	-1.06007291470046	-0.0107398003874306	0.00691851258180187
0.8	-3.50325191381509	2.19646427369329	875.308822160022	-6.02603399908974	-0.772038461642332	1.08543228461069	-1.05939754736615	-0.0107294357000826	0.00684148659884098
0.81	-3.46869846612538	2.13861709427474	874.012111509919	-5.99822805769282	-0.834949535039537	1.08316857567007	-1.05735024246439	-0.0107110662937046	0.00676559139776178
0.82	-3.44922656950408	2.08193623336171	872.995247521431	-5.9602878865921	-0.904565881633829	1.0792340882253	-1.05356292727135	-0.0106787981222386	0.0066821166328892
0.83	-3.41996051285085	2.02990352978815	872.313155429966	-5.90943792899956	-0.987304319744486	1.07383852392488	-1.04840034985241	-0.0106290852546377	0.00658386566995128
0.84	-3.36321028787173	1.98774522936285	871.970118740096	-5.84494309636173	-1.08647208260936	1.06786799961352	-1.04284967935983	-0.0105611067153318	0.00646714047265856
0.85	-3.27264270141996	1.96064036403667	871.925201003108	-5.76812668174503	-1.20132861633803	1.06259670993187	-1.03821124809787	-0.0104767364473383	0.00633280812519244
0.86	-3.15392326702149	1.95163123664403	872.105671093848	-5.68207985340725	-1.32716811021978	1.0592910977209	-1.03570446008836	-0.0103801002370817	0.00618621632994076
0.87	-3.02184296896698	1.95998114382267	872.424863593318	-5.59106990857594	-1.45636077268266	1.05884043110942	-1.03612112230959	-0.0102767567158507	0.0060360229938472
0.88	-2.89502634081715	1.98059981430413	872.800083919063	-5.49971663589346	-1.58005876433184	1.06152449323927	-1.03962877941704	-0.0101726175257801	0.00589226848169982
0.89	-2.7900199275333	2.0048161697234	873.166641825492	-5.41208993713241	-1.69013237577278	1.06697139260852	-1.04576508867313	-0.0100728132915447	0.00576418050378724
0.9	-2.71663826577852	2.02233666866552	873.485600292316	-5.33094894779925	-1.78087907067828	1.07429080175792	-1.05359681447436	-0.00998077523020346	0.00565823080885636
0.91	-2.67588743635782	2.02383679499306	873.744755262172	-5.25735000076948	-1.85013341783719	1.08231518910081	-1.06196853619998	-0.00989779297304494	0.00557686870137825
0.92	-2.66082315344601	2.00342759517304	873.954048291	-5.1907724830927	-1.8995672265517	1.08986019773268	-1.06975139443285	-0.009823204827483	0.00551817466972948
0.93	-2.65970146589598	1.96028713084245	874.137604609483	-5.12975854946959	-1.93416403323939	1.09592824082158	-1.07602163198856	-0.00975519405651259	0.00547645573655059
0.94	-2.66010201459267	1.899024050392	874.324776805837	-5.07288402796547	-1.961037748529	1.09981663913174	-1.08013998850372	-0.00969196130074823	0.00544359134179945
0.95	-2.6525521104074	1.82873940663471	874.542148563853	-5.01974406307045	-1.98790357104194	1.10113518879301	-1.08174689756907	-0.00963289732379013	0.00541077888021602
0.96	-2.63254756930326	1.76112650981815	874.807729805671	-4.97160868552445	-2.02157073230993	1.09976943928058	-1.08071667035047	-0.00957935716433178	0.00537025595601354
0.97	-2.60056230879947	1.70817196288491	875.127831546928	-4.93150204461995	-2.06679693230974	1.09583381249264	-1.0771165250767	-0.00953475730922348	0.00531660909878556
0.98	-2.56038120439274	1.68003914835255	875.496504588482	-4.90365377699271	-2.12573113779295	1.08964323658257	-1.07119567919445	-0.00950394434723367	0.00524740775239341
0.99	-2.51661768327196	1.68355706180186	875.89701519385	-4.89248924823346	-2.19800626789082	1.0817043505374	-1.06339867604981	-0.00949203333613036	0.00516309182131847
1	-2.47243477200342	1.72149126433453	876.304619461839	-4.90148214541714	-2.2813739353448	1.07270377735538	-1.0543728384492	-0.00950309066408184	0.00506623608853768
1.01	-2.42826826540217	1.79254330195645	876.689881914353	-4.93222724483888	-2.3726477513792	1.06346437551392	-1.04493505131178	-0.00953907156771516	0.00496046019002316
1.02	-2.381877280537	1.89188442078628	877.021940140545	-4.98399351586084	-2.4686706061204	1.05485378955913	-1.03598004213467	-0.00959930729924297	0.00484931271258299
1.03	-2.32951896769013	2.01199982279604	877.271375240289	-5.05383377048709	-2.56704930103504	1.04765507668166	-1.02834158469497	-0.00968062474058839	0.00473542667655136
1.04	-2.2676578248931	2.14367203434126	877.412587479469	-5.13713599779527	-2.66648778853814	1.04243261451644	-1.02264418553361	-0.00977796327675173	0.00462014261309457
1.05	-2.19450376030644	2.27701142293812	877.425685748513	-5.22837873688541	-2.76666701370511	1.03943555286275	-1.01919266170423	-0.00988521611706972	0.00450366003060398
1.06	-2.1108433860142	2.40249801430665	877.297854733024	-5.32183707569721	-2.86773490807612	1.03857141211359	-1.01793618776797	-0.00999600924424049	0.00438564306932965
1.07	-2.01998915404236	2.51200571383927	877.024065552408	-5.41206698524021	-2.9695628982077	1.03945914789967	-1.01851767569352	-0.0101042273618996	0.00426609720424453
1.08	-1.92705237279064	2.5997411679477	876.607008251712	-5.49412623453175	-3.07098281978404	1.0415450652241	-1.020390868254	-0.0102042464343064	0.00414626651144862
1.09	-1.83798311946958	2.66296993808073	876.056346881878	-5.56361082774016	-3.16923326796715	1.04424713425291	-1.02296811987795	-0.0102909680347195	0.00402928420074483
1.1	-1.75882402675453	2.70235787622433	875.387758834125	-5.6166509803806	-3.25981234694301	1.04708905787038	-1.02575758202713	-0.0103598202352188	0.00392034827159971
1.11	-1.6954202896874	2.72176027862001	874.622487894781	-5.65000238644978	-3.33685278377977	1.0497937501199	-1.02845808178984	-0.0104068752719744	0.00382629018743474
1.12	-1.653530904153	2.72736827524041	873.788057376552	-5.66129864255922	-3.39401211210108	1.05232111980957	-1.03099700470791	-0.0104291518144566	0.00375454816591952
1.13	-1.63904002119239	2.72627030198931	872.920251005819	-5.64943175714186	-3.42572650200308	1.05485078802509	-1.03351359159166	-0.0104250581593553	0.00371172223937682
1.14	-1.65787794275009	2.72467466592297	872.065628624946	-5.61493986057972	-3.42854920800528	1.05772201659057	-1.03630199534213	-0.0103948374655949	0.00370203251965301
1.15	-1.71536005319268	2.72620709294069	871.283069664315	-5.5602388518699	-3.40222827540735	1.06134873455094	-1.03973314501424	-0.0103408340030636	0.00372607483252047
1.16	-1.81489779389088	2.73077353538156	870.642541446597	-5.48955529850347	-3.35020739522599	1.06612740519586	-1.04417260078789	-0.0102674271332085	0.00378023163549157
1.17	-1.95634007754201	2.73440950413347	870.219721395594	-5.40849624369552	-3.27936338245513	1.07235151580257	-1.04990578456031	-0.0101805690201013	0.0038569472717554
1.18	-2.13446023015846	2.73031394746665	870.086220179713	-5.32330108522613	-3.19899014847562	1.08014164834645	-1.05707592896074	-0.0100869820123888	0.00394585432531858
