Time [s]	GRFml [N]	GRFap [N]	GRFv [N]	Mml [N.m]	Map [N.m]	Mv [N.m]	Mfree [N.m]	COPml [m]	COPap [m]
0.01	4.90615743359687	-2.22092658176943	714.170552619957	-4.6893890783322	45.6984436951463	1.33765858350142	-1.22775064369722	-0.0031426668338479	-0.00181928849788643
0.02	4.72782430153275	-2.18930157090135	713.869899819401	-4.69102203337141	45.8018896111037	1.32429801254178	-1.21490647360483	-0.00314846877473129	-0.00164602490202659
0.03	4.55849281763998	-2.16195479524755	713.602512078135	-4.69539362415409	45.9013949695075	1.31216663938109	-1.20310765346055	-0.00315772245308343	-0.00148126394046771
0.04	4.4062180828139	-2.14271443154055	713.394858451277	-4.70419196312783	45.9930314625028	1.30223032151215	-1.19315034246576	-0.00317248525048308	-0.00133287987445901
0.05	4.27844399409996	-2.13334200887777	713.260891847799	-4.71874789226068	46.0738614469771	1.29474852937881	-1.18524699763795	-0.00319445710159494	-0.00120623532539549
0.06	4.18118875920766	-2.13314193018936	713.19915398803	-4.73997442370429	46.142375137818	1.28922866619456	-1.17899890396634	-0.00322492934869389	-0.00110330867893033
0.07	4.1180334442654	-2.13918459121306	713.193631257314	-4.76832771260294	46.1987092048931	1.28462901520701	-1.17357781288616	-0.00326472094107688	-0.00102246557316593
0.08	4.08937431305087	-2.14698545949041	713.218324234223	-4.80383346086667	46.2445777109751	1.27970717280622	-1.16802707750675	-0.00331416352350067	-0.000958968226655754
0.09	4.09234039069638	-2.15141267493376	713.244555525589	-4.84620834861101	46.2829122551784	1.2733774331504	-1.16156293609307	-0.00337318820246157	-0.000906139113042159
0.1	4.12150119670279	-2.14762049788894	713.249239893362	-4.89506476397751	46.317290694404	1.26496943067225	-1.15378144386545	-0.00344151838249429	-0.000856907417046637
0.11	4.17014533117589	-2.13186381023257	713.221909480839	-4.95013467324733	46.3513048234382	1.25434407200339	-1.14473379490363	-0.00351890425538892	-0.000805328180428666
0.12	4.23166615823891	-2.10208689004016	713.168422600138	-5.01141049329951	46.3880484488851	1.24188296698043	-1.13488873064026	-0.00360527903809738	-0.0007476326517451
0.13	4.30055192819268	-2.05819125870698	713.110043062547	-5.07910231413006	46.4298773242751	1.22839659517044	-1.12502908349732	-0.00370070990384486	-0.000682478590240398
0.14	4.37264958896922	-2.00190731967238	713.077806568632	-5.15336424737439	46.4784997038311	1.21498993548794	-1.11612367456668	-0.0038050774635956	-0.000610309993718472
0.15	4.44467268691269	-1.93626035913332	713.103459430655	-5.23383881272638	46.5353269716932	1.20289910749504	-1.10918947890223	-0.00391753750787127	-0.000532040696214375
0.16	4.51323134376788	-1.86473451212361	713.209357398183	-5.31917426277239	46.6018978781873	1.19329369569577	-1.1051358832558	-0.00403595563396131	-0.000447539200868707
0.17	4.57386098417908	-1.79035408980575	713.400199335074	-5.40673766077213	46.6801418818628	1.18704412022696	-1.10458189148066	-0.00415659557220782	-0.000354504918878895
0.18	4.62054349792932	-1.71495625660644	713.65915274701	-5.49273212592345	46.7722992445005	1.18448153506481	-1.10766141851705	-0.00427432532893846	-0.000248225619332465
0.19	4.646038757511	-1.63888101055266	713.949831854199	-5.57281251207308	46.880457752731	1.18521260373547	-1.1138672154675	-0.00438345712004196	-0.000122407842058858
0.2	4.64303113940225	-1.561164043969	714.223963719293	-5.64310583341769	47.0058446395109	1.1880696918757	-1.12200711031847	-0.00447909148104519	2.91267647088977e-05
0.21	4.60575413437675	-1.48014488852373	714.432860146739	-5.70134933697862	47.1481513967704	1.19126109250606	-1.13033730171859	-0.00455858413333743	0.000210439579278743
0.22	4.5315164784362	-1.39427341497177	714.539533397	-5.74774773196953	47.3052040700046	1.19273366412271	-1.13689097872346	-0.00462261277103759	0.000421896196114824
0.23	4.42151868958937	-1.30286340494904	714.527923098487	-5.78518878596866	47.4731990971347	1.19068657888283	-1.13994942897235	-0.00467537822654718	0.00065964541064778
0.24	4.28055141778342	-1.20660080827311	714.406464468384	-5.81865168236782	47.6475343267501	1.18410621140832	-1.13853388307252	-0.004723739312543	0.000916454507688069
0.25	4.11554895455095	-1.10771706024758	714.204960747892	-5.85393033810227	47.8240462200978	1.1731567948593	-1.1327600320184	-0.00477546385848893	0.00118373285178447
0.26	3.93340292590698	-1.00982273560603	713.965871368712	-5.89605853516344	48.0002980160663	1.15927890870212	-1.12391498477679	-0.00483712435436567	0.00145414324764814
0.27	3.7387663098134	-0.917432682239498	713.732923510808	-5.94795047464124	48.1765098437572	1.14492093835971	-1.11419092964791	-0.0049123235254882	0.00172395789024488
0.28	3.5326668723902	-0.835219990195361	713.540717191982	-6.00969989927659	48.3557996449066	1.13293973876245	-1.10612037750894	-0.00500082803571233	0.00199435394703357
0.29	3.31254278032471	-0.767063024099845	713.408422862374	-6.07873741205994	48.5435891667614	1.1258207088273	-1.1018658098973	-0.00509885467976567	0.00227115747883233
0.3	3.07384912692415	-0.715031792885334	713.33899496848	-6.15072629961594	48.7462668459665	1.12494244854794	-1.10257882779008	-0.00520032630353351	0.00256303448974288
0.31	2.81279970408323	-0.678576364534883	713.323227682758	-6.22081114388115	48.969421593336	1.13011499516169	-1.10803213494463	-0.00529856692752118	0.00287863541733646
0.32	2.52931056607391	-0.654254447797071	713.346316455089	-6.28472862022969	49.2161066306643	1.13954622135892	-1.11664274864801	-0.00538777795390843	0.00322355706819255
0.33	2.22900979219655	-0.636280093968178	713.394019090892	-6.33938826701216	49.4856179023102	1.15026163253141	-1.1258782013526	-0.00546378106761547	0.00359807215790292
0.34	1.92339397788113	-0.617954300499055	713.456192622924	-6.38278973294073	49.7731621339725	1.15886364752835	-1.13291757769383	-0.00552386655511383	0.00399635581285007
0.35	1.62781320726011	-0.59370542490072	713.527007752362	-6.41344910040609	50.070563914588	1.16241563079474	-1.13536933518342	-0.00556599524033385	0.00440747652800155
0.36	1.35775521393208	-0.561157146208087	713.602742660963	-6.42972400731996	50.3678733151325	1.1592052229551	-1.13184776740514	-0.00558788674961896	0.00481786553613656
0.37	1.12458181409866	-0.52250896696299	713.679000012961	-6.42945675290636	50.6554676223756	1.14918557321054	-1.12227031127042	-0.00558655723275869	0.00521451769091474
0.38	0.932171698496919	-0.484654285165295	713.74913712415	-6.4101828816127	50.9260811128355	1.13399122056705	-1.10782865502553	-0.00555863107514065	0.00558796341207923
0.39	0.775701840887397	-0.457852051168644	713.804826379694	-6.3698605851298	51.176206991035	1.11654292068208	-1.09067358718963	-0.00550135390613626	0.00593415258358909
0.4	0.643109338831573	-0.453268344018795	713.838499051946	-6.30780180764372	51.4065004505305	1.10035821785435	-1.07341322431089	-0.00541386475208183	0.00625476250138407
0.41	0.518852479846011	-0.480111934301641	713.846531801119	-6.22535900075947	51.6211105871029	1.08874819206663	-1.05854969807952	-0.00529811801764457	0.00655594421811861
0.42	0.388769123275562	-0.543234516601881	713.831734595755	-6.12600185918263	51.8261767457651	1.08409587156169	-1.04797609671717	-0.00515896099098689	0.00684597814282534
0.43	0.244423855992177	-0.641895720467779	713.803989736976	-6.01466933459372	52.0279361740301	1.08738056396573	-1.04263253289902	-0.00500321894692146	0.00713257427546909
0.44	0.0855115681838712	-0.769984133980575	713.778543220926	-5.8965903467999	52.2309423473931	1.09804508906239	-1.04238370014457	-0.00483806253054264	0.00742056113343698
0.45	-0.0804052733823976	-0.917508693862658	713.772180421971	-5.77599605191784	52.436791455156	1.11421521192651	-1.04613308267234	-0.0046692448366179	0.0077104936847841
0.46	-0.240569207278568	-1.07281078032655	713.798134956156	-5.65520025417281	52.6435610247049	1.13319239780823	-1.0521356942648	-0.00449986502596245	0.0079983801938438
0.47	-0.380989784011859	-1.22481343171445	713.861006001728	-5.53438440872152	52.8459655733521	1.15207487534109	-1.0584226006912	-0.00433011636991076	0.00827640780877148
0.48	-0.490174781442486	-1.36473676969296	713.953167856023	-5.41215348629421	53.0360962225472	1.1683382120411	-1.06322261647702	-0.00415809797431899	0.00853433276771126
0.49	-0.561332970653965	-1.4869903860607	714.054084195499	-5.28664215379265	53.2045546082267	1.18023511744734	-1.06527356071008	-0.00398136958347217	0.00876112828594267
0.5	-0.592485677947778	-1.58927207568482	714.1334785663	-5.15675942438835	53.341792077866	1.18694689801401	-1.06395952703428	-0.00379866547624874	0.00894652979490557
0.51	-0.584839959210525	-1.67212799796513	714.158392730235	-5.02312946849724	53.4394817895279	1.18850869017193	-1.0592765764879	-0.00361114876886703	0.00908223327022473
0.52	-0.540470869722977	-1.73828824695803	714.102893911859	-4.88841379012562	53.491757140559	1.18560047017011	-1.05168884660842	-0.0034227767937175	0.00916263972889297
0.53	-0.460545800626134	-1.79199562519094	713.957933433973	-4.7569237144098	53.4961478113022	1.1793168519535	-1.041962788261	-0.00323967220341403	0.00918516442184397
0.54	-0.344950284452792	-1.83838033782884	713.73815179361	-4.63366327248381	53.4540587129988	1.17099541294256	-1.03104798588334	-0.00306872398767999	0.00915022100900975
0.55	-0.19344108990851	-1.88281078433155	713.482746925083	-4.5231029070785	53.3706902930755	1.1621178597144	-1.02002150991366	-0.00291586397801802	0.00906103205545905
0.56	-0.00770602657890573	-1.93014554048159	713.249007322818	-4.42803345812437	53.2543936948427	1.15423906807834	-1.01005940194172	-0.00278451979402561	0.0089233976480535
0.57	0.206714496030847	-1.98392213368617	713.099392744787	-4.34879194862601	53.1155693245151	1.1488794928232	-1.00237497958715	-0.0026746439005727	0.00874548122223673
0.58	0.439616820976728	-2.0456685949428	713.085339191112	-4.28302329681452	52.9653164660842	1.147346852004	-0.998083476117847	-0.00258251995193148	0.00853757618263762
0.59	0.676895473857687	-2.11460827270858	713.232384057369	-4.22599466693799	52.8140914424489	1.15051436740827	-0.998004942196084	-0.00250132892529886	0.00831174310137905
0.6	0.90264268672589	-2.18797166242714	713.531146707261	-4.17135349424919	52.6706158031877	1.15863740035497	-1.0024715197436	-0.00242228251446897	0.00808119332293306
0.61	1.10180239593611	-2.26193096857182	713.937106486978	-4.11214011828296	52.5411998103069	1.1713026649992	-1.01122785095628	-0.00233603381289915	0.00785935300245427
0.62	1.26243691602466	-2.33291488048781	714.379523116941	-4.0418376476678	52.4295352325528	1.1875617701041	-1.02348777087639	-0.00223405959555667	0.00765865201264615
0.63	1.37694574083269	-2.39886760647885	714.777139462094	-3.95526020723561	52.3369005475913	1.20622205577539	-1.03814649753523	-0.00210975952241721	0.00748920227573602
0.64	1.44212858911952	-2.45999353766113	715.056405531759	-3.84913599429379	52.2626445141609	1.22619273596103	-1.05407708640401	-0.00195911259508297	0.00735761401532958
0.65	1.45851287936166	-2.51870635082979	715.167451557269	-3.72232004559965	52.2047904639317	1.2467531737591	-1.07039922772704	-0.0017808451834761	0.00726621509934455
0.66	1.42959680934047	-2.57880992824313	715.093978628577	-3.57565540574177	52.160632185883	1.26764027174765	-1.08661850854096	-0.00157617162124146	0.00721288106050594
0.67	1.3614856113978	-2.64423988692696	714.855178536526	-3.4115699547654	52.1272504469569	1.28892937710777	-1.10259011469395	-0.00134824307215275	0.00719156651246372
0.68	1.26293691696805	-2.71784913682709	714.499996695903	-3.23353295581636	52.1019325421024	1.31077042756068	-1.11833561901342	-0.00110146779011666	0.00719347986739127
0.69	1.14536370293217	-2.80065994755389	714.095798233036	-3.04549575973475	52.0824955745467	1.33309784123779	-1.13380066105219	-0.000840847991433691	0.0072086922512955
0.7	1.0221670984005	-2.89176676095662	713.714379859655	-2.85141432784737	52.0674883091097	1.35543534255591	-1.14866003005806	-0.000571434002722415	0.00722784618758288
0.71	0.907031349892036	-2.98878239261377	713.418290226367	-2.6549137400426	52.0561969744002	1.37686858658928	-1.16224980982276	-0.000297948941147097	0.00724355823195638
0.72	0.811409313284957	-3.08851851898254	713.249875088212	-2.45911974730879	52.0483510918817	1.39618485299683	-1.17364898560834	-2.46014245716131e-05	0.00725112369489983
0.73	0.742050446638594	-3.18756788437901	713.224700518322	-2.26665367860453	52.0434616392291	1.41211458861538	-1.1818720630936	0.00024492088743755	0.00724825946915597
0.74	0.699710880850999	-3.28260227092972	713.330228404837	-2.07976202842389	52.0398443604806	1.42358052793865	-1.18609534043634	0.000507306860976775	0.00723386922971953
0.75	0.679912447658909	-3.37042223370129	713.529835494246	-1.90052882962707	52.0335576450303	1.42987373998978	-1.18583575466298	0.00075938290189137	0.00720614337512215
0.76	0.67583333417173	-3.44796381279435	713.771419932699	-1.73110067071854	52.017643072236	1.43071956672971	-1.18102956697521	0.000997861157660096	0.00716061600040158
0.77	0.682438731436874	-3.51248950872831	713.998955371481	-1.57384792742845	51.9821048202714	1.42624624737818	-1.17200293606961	0.00121916921205834	0.00708895948032096
0.78	0.700249656468076	-3.56205306529825	714.164623750052	-1.4313972126886	51.9149352476301	1.41690272604564	-1.15936798910678	0.00141944471169564	0.00697919059264052
0.79	0.737074266169241	-3.59610570364888	714.238872075293	-1.30649985752379	51.8041900893639	1.40337829416826	-1.1439007270164	0.00159474128199544	0.00681756381905052
0.8	0.806692371625591	-3.61593205589413	714.216116155969	-1.20174401099173	51.6407245405881	1.38655751280755	-1.12645414275091	0.00174143552284356	0.00659183709829197
0.81	0.924659748677972	-3.6245803613142	714.114852015793	-1.11916330594863	51.4208684572888	1.36751164483552	-1.10793427000052	0.00185676337688823	0.00629502084509093
0.82	1.10260647175221	-3.62612189158343	713.972358025071	-1.05982964349141	51.1481948771399	1.34749867744257	-1.08932981543281	0.00193936684472706	0.005928401583919
0.83	1.34312319305342	-3.62437548387874	713.835523344374	-1.02352861310227	50.8337052847556	1.32793124921473	-1.07175354588088	0.00198971737297182	0.00550273180554256
0.84	1.63722997495286	-3.62152326833827	713.75017870816	-1.00859640476899	50.4941904991112	1.31028114868954	-1.05644066135332	0.00201031026395404	0.00503700451548006
0.85	1.96551337892703	-3.61717273487331	713.751396566956	-1.01195149036975	50.1490902190192	1.29591656023229	-1.04466331351435	0.00200558853448862	0.00455501509002038
0.86	2.30265273684349	-3.60830761183717	713.856635900194	-1.02930073238711	49.8166685248703	1.28590170126874	-1.03755651472806	0.00198162958568293	0.00408066863811307
0.87	2.62378482174251	-3.59025102159125	714.062655707177	-1.05546239275121	49.5105653578752	1.28081257258952	-1.03589321147766	0.00194567939009571	0.00363343021375145
0.88	2.91048651229638	-3.55837523193072	714.346216432423	-1.08474574975184	49.2376831330003	1.28062573257997	-1.03987571038356	0.00190562136915529	0.00322526740004941
0.89	3.1543420795314	-3.51000036735175	714.66801121101	-1.11135766925401	48.9979565487779	1.28471734582893	-1.04901350754093	0.00186942215266639	0.00285991787480017
0.9	3.35700740466757	-3.44584555652785	714.979050910502	-1.12984733450589	48.7859762854428	1.2919759239978	-1.06213341443033	0.0018445365943407	0.00253452645099739
0.91	3.52699434664469	-3.37054674181463	715.228687233712	-1.13561700629567	48.5938907738486	1.30099899190883	-1.0775285761312	0.00183722830519106	0.00224293082967247
0.92	3.67456138636262	-3.29206072639413	715.373364777731	-1.12549478084539	48.4146704344844	1.31032469881475	-1.09321540396478	0.00185180431659093	0.00197940282851228
0.93	3.80668708118504	-3.22011648794892	715.384940259658	-1.09829011394369	48.2447792205577	1.31864955515134	-1.10724435662995	0.0018898666929994	0.0017416149126197
0.94	3.92393879052849	-3.16414390722703	715.25709470024	-1.05517318854519	48.0855447767238	1.3249986650201	-1.11800528435304	0.00194979632903503	0.00153197263550037
0.95	4.02023861375881	-3.1312400773945	715.008241902179	-0.999689257732152	47.9429459332083	1.32883429685737	-1.12447561676262	0.00202672904560208	0.00135706215367648
0.96	4.08540833930701	-3.12470459402303	714.679661227256	-0.937277038988277	47.8259957540387	1.33010153963628	-1.12637184606985	0.00211320751183275	0.00122557579395854
0.97	4.10937392221574	-3.14350608781726	714.328466096745	-0.874301758113691	47.7442532229451	1.32921118742699	-1.12417630077411	0.00220049929348287	0.00114549527702951
0.98	4.08638631977833	-3.18277907291143	714.016328943511	-0.816787558942088	47.7051644575444	1.32695377378367	-1.11902312086639	0.00228033132617544	0.00112142768836543
0.99	4.01772921470428	-3.23516066072318	713.796241455374	-0.76916553373786	47.711901969769	1.32433572691735	-1.112445482144	0.00234660829326105	0.00115281938254153
1	3.91204594163222	-3.29254239631829	713.700493892967	-0.733380667806777	47.7621822158743	1.32234028082576	-1.10601546154063	0.00239664288841768	0.00123342568355456
1.01	3.78333758151484	-3.34771182622831	713.733089935792	-0.708606322878691	47.8482717564956	1.32164534080051	-1.10094567763184	0.00243155429666597	0.00135203228654684
1.02	3.64749576351432	-3.39543739603063	713.868840851257	-0.691634028672575	47.9581168768651	1.3223678468023	-1.09775433883432	0.00245573904693019	0.00149412712601105
1.03	3.51864425670659	-3.43279121514637	714.05964557667	-0.677808748878936	48.0773093767989	1.32392822650233	-1.09610275222678	0.0024755902303546	0.00164407025418939
1.04	3.40646225139589	-3.45881506732412	714.24649474745	-0.662235677736393	48.1914660068677	1.32511778083373	-1.09488178605933	0.00249784011862153	0.00178730256720877
1.05	3.31514775336178	-3.47387855375105	714.374152322361	-0.640936122635637	48.2885593651602	1.32439798327509	-1.09255266146838	0.00252796916463083	0.00191222763750981
1.06	3.24399989731981	-3.47913671483124	714.404738322973	-0.611679091081901	48.3607834485241	1.32037719411386	-1.08765955880738	0.00256905811257513	0.00201153581578006
1.07	3.18903843032535	-3.47633749721693	714.326743912764	-0.574330433898845	48.4056459787279	1.31232984716003	-1.0793616705611	0.0026213022945013	0.00208286777355488
1.08	3.14484037024425	-3.46794135122946	714.157234423765	-0.530696682276919	48.4261273767569	1.30058345234255	-1.06781238892575	0.00268222138857155	0.00212881056845982
1.09	3.10590663619959	-3.45725796650883	713.936785143559	-0.48395530690428	48.4299096877195	1.28662352992928	-1.05425584917263	0.00274744004860261	0.00215628174250859
1.1	3.0672644461759	-3.44823222476884	713.718576831605	-0.437834535267823	48.4278371949522	1.27285216730218	-1.04080175229573	0.0028118160121875	0.00217540020530232
1.11	3.02445481175511	-3.44468033820804	713.554571487448	-0.39573159401107	48.4319038441667	1.2620510803709	-1.02994305253268	0.00287065617483595	0.00219798430016904
1.12	2.97333788392479	-3.44911067654187	713.482405603209	-0.359948320863706	48.4531497305519	1.25670002992218	-1.02395812017359	0.00292077396548296	0.00223586615689347
1.13	2.9101534337888	-3.46158546257808	713.516379022311	-0.33118946754745	48.4998691953443	1.25834831858289	-1.02436361490909	0.00296118674503554	0.00229925953379567
1.14	2.83202106084915	-3.4792050298837	713.644743680942	-0.308418535244681	48.5764731282143	1.26721648472402	-1.03155484662241	0.00299332058680879	0.00239544330157565
1.15	2.73770114057512	-3.49663229609006	713.833737795949	-0.289100455822626	48.6832103430572	1.28213035295969	-1.04470652041	0.00302067956458696	0.00252799758611644
1.16	2.628162500528	-3.50767206826738	714.036983856352	-0.269782617486069	48.8167607975151	1.3007916768191	-1.0619364953704	0.00304804425481309	0.00269673766862727
1.17	2.50647424695245	-3.50745184745548	714.207512287062	-0.246886395992284	48.9715084846305	1.32030218756152	-1.08068012737006	0.00308037497331437	0.00289833748662166
1.18	2.37679753653935	-3.49443369253246	714.30916331607	-0.217521470920806	49.1411339290654	1.33780309753215	-1.09819023093585	0.00312168004528934	0.00312745226543587
