Time [s]	GRFml [N]	GRFap [N]	GRFv [N]	Mml [N.m]	Map [N.m]	Mv [N.m]	Mfree [N.m]	COPml [m]	COPap [m]
0.01	-0.476423797748781	0.362257588672969	705.770461269116	3.25024742868716	31.5481727650834	0.659059604187701	-0.677435811386896	-0.000476090757279612	-0.0050034820035928
0.02	-0.329916353618963	0.424048879669031	706.004139281273	3.2748123508976	31.6276177952008	0.674013315073394	-0.694542386561348	-0.00044259746623343	-0.00490932376990211
0.03	-0.196511637682455	0.481788330368165	706.199353232149	3.29593782296057	31.6996011591093	0.687995177271664	-0.710550502203173	-0.000413808825007966	-0.00482330902483319
0.04	-0.0848557236272634	0.531196486218388	706.319184739976	3.31099493177163	31.7563807154188	0.700460824931586	-0.724758195418022	-0.000393275100232793	-0.00475407211924039
0.05	0.00306054195261547	0.568992816537214	706.336633230926	3.31859482869751	31.7910681986402	0.711318182958213	-0.736930563417102	-0.000382823170918534	-0.00470965972710463
0.06	0.0718688117533911	0.593769858593859	706.239043428178	3.31872302341624	31.7988357753749	0.72089285838874	-0.747305422443292	-0.000382392904049067	-0.00469610216895494
0.07	0.13035090813048	0.606694779964435	706.03116320289	3.31251263164528	31.7783179765966	0.729713455765619	-0.756422511272297	-0.000390385272000859	-0.00471562374197132
0.08	0.187573238748699	0.611642656301209	705.736079742531	3.30176691140311	31.7326246189766	0.738196055048979	-0.764832467390027	-0.000404356410192985	-0.00476527123056425
0.09	0.249211187894016	0.614503171129088	705.393253129368	3.28842880204071	31.6694059774826	0.746358351858473	-0.772796770736981	-0.000421767210024848	-0.00483670103304112
0.1	0.315521528756311	0.621713469543718	705.053197689034	3.27419964191737	31.5997132777005	0.753692359542869	-0.78010300327838	-0.000440495894665327	-0.00491745895074303
0.11	0.381700261625034	0.638407941592218	704.769117136326	3.26042417868935	31.5358354854958	0.759266069982214	-0.786080097960827	-0.000458949503881367	-0.00499351496093914
0.12	0.440362361721457	0.666781049256808	704.586807809661	3.24822328547632	31.4886831014361	0.762031153426383	-0.789819083632189	-0.000475811226100964	-0.00505232793891747
0.13	0.48501813263083	0.705234786306669	704.535030153552	3.23873512495248	31.4654786437444	0.761224627867592	-0.790518734356939	-0.000489637514615726	-0.00508550424758086
0.14	0.513043643341588	0.748633889241083	704.618881415348	3.23327863154319	31.468434394572	0.756706160436197	-0.787819814015977	-0.000498586054432759	-0.00509024733151542
0.15	0.526885222822198	0.789619806689876	704.818199538775	3.23330209801898	31.4947864027545	0.749090584765967	-0.781991456416089	-0.000500481087969296	-0.00506920475366263
0.16	0.532982987985368	0.82058414648593	705.091725834921	3.24009913228019	31.5381272783463	0.739611711897313	-0.773890164936698	-0.000493243665570464	-0.00502884051456087
0.17	0.538837106665174	0.835700470764828	705.386053079694	3.25440522123628	31.5905893278645	0.729758277570987	-0.764702885871488	-0.000475518077509451	-0.00497690661053407
0.18	0.549401516854978	0.832418992421431	705.646921009307	3.27606659587747	31.6452006424871	0.720813730529839	-0.755572929796724	-0.00044720666171072	-0.00491981951511206
0.19	0.564281261410111	0.812019936441937	705.829788459246	3.30396006760362	31.6977310435772	0.713472073929039	-0.747255193087127	-0.000409641584824039	-0.00486071550339862
0.2	0.576924029535869	0.779116809549573	705.907076351225	3.33624180456972	31.747545040012	0.707676060575676	-0.739935987091507	-0.000365269405742552	-0.00479870454686909
0.21	0.576245926595848	0.740300649823676	705.870823041593	3.37085935219169	31.7973054729595	0.70274177404817	-0.733287837058577	-0.000316936839819593	-0.00472946494095189
0.22	0.550202852548286	0.702338291314181	705.731114353343	3.40613973275983	31.8517159226398	0.697726398677349	-0.726737144114636	-0.000267047755202587	-0.00464693481156081
0.23	0.490064755121189	0.670434730835122	705.511840595135	3.44122276013019	31.9157511552432	0.691903887696954	-0.719838819124682	-0.00021692910067872	-0.00454556087747748
0.24	0.393854283932139	0.647029791917179	705.245643469434	3.47616331520516	31.99293601313	0.685169996309843	-0.712608605675228	-0.000166665833148505	-0.00442242600860404
0.25	0.267682038142974	0.631438685008601	704.969364344312	3.5116562298035	32.084174685429	0.678219266297349	-0.705676433072007	-0.000115475438205115	-0.00427862445649879
0.26	0.124443383338413	0.620404462237186	704.720331005763	3.54848789990818	32.1874322948085	0.672414664927367	-0.700187640818045	-6.24723091403601e-05	-0.00411947566858756
0.27	-0.0197329774487317	0.609367366495632	704.533018652	3.58692859311735	32.2982944254266	0.669378910901901	-0.697470511232661	-7.51197133963544e-06	-0.0039535098326709
0.28	-0.150106496328244	0.594042772510902	704.435421215809	3.62630648850105	32.4111616918632	0.670438392537702	-0.698576471192355	4.82326710352643e-05	-0.00379052843326816
0.29	-0.25745910320808	0.57180184517332	704.444929545808	3.66494040792734	32.5206558335337	0.67611130059295	-0.703853358513534	0.000102214461034422	-0.003639330571785
0.3	-0.340341651656586	0.542407055666479	704.564328374031	3.70047838190513	32.6227747183299	0.685828980375709	-0.712712728734366	0.000151034011204754	-0.00350580441770626
0.31	-0.404671693414823	0.507863735250874	704.779209096146	3.73054112608886	32.7154466023432	0.69801069320707	-0.723696116496638	0.000191384164038411	-0.00339196653882451
0.32	-0.460834136466654	0.471452291786119	705.058233096932	3.75345540189767	32.7983612418457	0.710495381927638	-0.73484728282085	0.000221097724231178	-0.00329621694581461
0.33	-0.519314817543346	0.436304473981188	705.357115371888	3.76882206498526	32.8722200770485	0.721205874698951	-0.7442878382108	0.000239927694215658	-0.00321466408247462
0.34	-0.58643333242356	0.404069003726362	705.626101108505	3.77771269158181	32.9377566147927	0.728825917035066	-0.750810039748973	0.000249768892992552	-0.00314300533959039
0.35	-0.661729499127178	0.374195296508368	705.819495326802	3.78241242607359	32.9949535142493	0.733247210623	-0.754276739976371	0.000254216345228819	-0.00307826268598338
0.36	-0.737976990954577	0.344138324609281	705.904960468883	3.7857839843535	33.042792476548	0.735609179320699	-0.755670615177876	0.000257586558859768	-0.00301974677455003
0.37	-0.803838270997935	0.310429525512383	705.87016729058	3.79046326822675	33.0796473250626	0.737892935033514	-0.756751866254025	0.000263721201612444	-0.00296893549873523
0.38	-0.848183453392624	0.270208189807252	705.725045078449	3.79816026804436	33.1041566982463	0.742195941714722	-0.759426978488362	0.000274976437248831	-0.00292838533571066
0.39	-0.86445047564161	0.222610809511804	705.49910473044	3.8093035921874	33.1162024549338	0.749942047112656	-0.765046570679315	0.000291740146881936	-0.00290017225571915
0.4	-0.853386683120011	0.169458425673372	705.234676236719	3.82314290740864	33.1175631029418	0.761318416770203	-0.773888886463855	0.000312631359686066	-0.002884528098691
0.41	-0.823115193513686	0.114950628668331	704.977951542682	3.83825488348727	33.1119350934622	0.77515518895541	-0.785025426362227	0.000335288155109748	-0.00287923047298527
0.42	-0.786490860856198	0.0644622264724836	704.770135641372	3.85324752201615	33.1042680676116	0.789299824649457	-0.796624887414147	0.000357433661445028	-0.00287997097984444
0.43	-0.756752606219241	0.0228899061088695	704.64070877121	3.86738249906977	33.0996364111024	0.801349281919523	-0.80658474589508	0.000377806538204073	-0.00288151499467137
0.44	-0.743126579808333	-0.00682721513442687	704.603962873644	3.88086544017835	33.102052883697	0.809465721207863	-0.813254182399762	0.000396593313082505	-0.00287915221145357
0.45	-0.748028689743736	-0.0244564103989501	704.658926233722	3.89468044989364	33.1136456200742	0.812972051229769	-0.81597955329631	0.000415188570630498	-0.00286984838471477
0.46	-0.766862286091379	-0.0322180873015455	704.791891861673	3.9100217898489	33.1344643043311	0.812513837650365	-0.815277033391839	0.000435366751720179	-0.0028526724796461
0.47	-0.790378141075039	-0.0336525570024883	704.980289795722	3.92753699389562	33.1629233919367	0.809745571957126	-0.812584612646895	0.000458181201613117	-0.0028284094615223
0.48	-0.808579252367683	-0.0320771005597684	705.196692353926	3.94668152745707	33.1966403948269	0.806681140970557	-0.809705870124186	0.000483025829618899	-0.00279862657868152
0.49	-0.814603615053165	-0.0292663278540174	705.412212985505	3.96546169869388	33.2332907234665	0.804968030009288	-0.808167025283986	0.000507255922941097	-0.00276468423198289
0.5	-0.807105383431502	-0.0248951495435887	705.599187792939	3.98071455834187	33.2711321595207	0.80535813150104	-0.808726905205618	0.000526576655832223	-0.00272717670095168
0.51	-0.790316030675798	-0.0169650254135273	705.733496612396	3.98888239477151	33.3090321996457	0.807555426370464	-0.811205291179764	0.000536132483114238	-0.00268606068373112
0.52	-0.771913971020007	-0.00301828306977361	705.796966201533	3.9870505166547	33.3460754868594	0.810464611996696	-0.814663454547033	0.000531962663625651	-0.00264138724859669
0.53	-0.759677615992618	0.0183931067325515	705.77998174232	3.97389916810443	33.381024873231	0.812710140095432	-0.817836481111025	0.000512325294144134	-0.00259425272653041
0.54	-0.758316884524844	0.0466326966471766	705.683901144089	3.95022238444442	33.4119706378522	0.81320288213292	-0.819632399105965	0.00047840158225676	-0.00254746317243326
0.55	-0.767729248434743	0.0787873019751593	705.522415481002	3.91879706510925	33.43640318739	0.811533750924777	-0.819507006614268	0.000434082915454992	-0.00250551980416885
0.56	-0.783295175214391	0.110479751698373	705.320891424809	3.88360529334503	33.4517335063165	0.808061651852219	-0.817590869681917	0.000384857206566447	-0.00247382758928272
0.57	-0.797985406748381	0.137391808845353	705.113082027693	3.84864514884746	33.4560611662384	0.803694426627986	-0.814552262224593	0.000336137698498162	-0.00245737308826999
0.58	-0.805340610976205	0.156906598258855	704.93532131271	3.81672276765894	33.4488549634544	0.799479640557789	-0.811280390179182	0.000291593750746943	-0.00245935864707841
0.59	-0.802078315211596	0.16922206107655	704.819186171358	3.78863832038381	33.4312268531777	0.796181979551195	-0.808528821975078	0.000252062046322998	-0.00248031578474861
0.6	-0.789286387494284	0.177483173567569	704.784305564006	3.76304955924195	33.4056372167736	0.794009060028677	-0.806654312244622	0.000215425143246017	-0.00251804257635996
0.61	-0.771773266485417	0.186846282045982	704.833252222853	3.73706536154895	33.3750972194084	0.79257274845654	-0.805531767694224	0.000177511728058688	-0.00256840154678911
0.62	-0.755899899836355	0.202778564963302	704.95013367836	3.70737442620893	33.3421329418176	0.791075310726125	-0.804650445329904	0.000133723572815714	-0.00262670841236484
0.63	-0.746805828504455	0.229164495179077	705.103660341431	3.67154044141133	33.3078648664984	0.788629641965535	-0.803331971720117	8.08551789924783e-05	-0.00268925748983467
0.64	-0.746131378815519	0.266850701210884	705.254327196966	3.62905141881465	33.2715059700456	0.784588555375367	-0.80098020120535	1.85220580152246e-05	-0.00275452365319662
0.65	-0.75107272137867	0.313105668241087	705.364211785918	3.58180265440495	33.2304230356929	0.778775393100445	-0.797281561958264	-5.02435816071012e-05	-0.00282373086251292
0.66	-0.755022986985804	0.362169997974175	705.407071716259	3.53387809039984	33.1807109572124	0.771561040447618	-0.792310323307656	-0.000119398550170069	-0.00290070184042135
0.67	-0.749416474973726	0.406733384245366	705.376148675948	3.49070690903021	33.1180769819311	0.763792630374804	-0.786534414852791	-0.000181160419913118	-0.0029911059959859
0.68	-0.725979618658823	0.439900200680461	705.287455019134	3.45784556657684	33.038771333162	0.756620566835078	-0.780744058615122	-0.000227768040085063	-0.00310133721621175
0.69	-0.678562436763513	0.457068711071089	705.177285796102	3.43972542236203	32.9403371564212	0.75128059546967	-0.775929282257608	-0.000253236578993121	-0.00323726819018377
0.7	-0.604051834155557	0.457177250177687	705.094067875524	3.43869652237849	32.822050344199	0.74887242349968	-0.773120331673432	-0.000254640805830153	-0.00340308024234537
0.71	-0.502358637849418	0.442949396930285	705.086118709935	3.45460018867603	32.6850249057868	0.750154747589417	-0.773194198054364	-0.000232613407304183	-0.00360031245303699
0.72	-0.375862418382098	0.420050227701939	705.188082657842	3.48494910794218	32.5320289783409	0.755368037352036	-0.776656786303122	-0.000190973672053452	-0.00382724944403828
0.73	-0.22880205108141	0.395375350387228	705.409421346151	3.52562830594948	32.3670770514254	0.764108368052039	-0.783436718778504	-0.00013563964591734	-0.0040787726599783
0.74	-0.066897498650426	0.374951627346152	705.72814983837	3.57190024949105	32.1948540323549	0.775297319835994	-0.792758936508929	-7.31569148247901e-05	-0.00434679714290115
0.75	0.102861643157741	0.362057784379318	706.091994799075	3.61943804530143	32.0200207802521	0.787301447264151	-0.803178603964595	-9.24992883888365e-06	-0.00462135511359291
0.76	0.272582636059341	0.356126766317031	706.427461295397	3.66513527580904	31.8464744365131	0.798229544803959	-0.812827000167942	5.22483775593496e-05	-0.00489224406051314
0.77	0.43430107647402	0.352771184756401	706.65527923488	3.70753384492133	31.6766887673917	0.806374410448906	-0.819849659037121	0.000109880123170591	-0.00515095569626778
0.78	0.581301185906799	0.344938965160505	706.708856003974	3.74683365528065	31.5113090597524	0.810689877050841	-0.822927615789849	0.000164436184291405	-0.00539241834206305
0.79	0.709559630431258	0.324864775157746	706.551236157601	3.78455509183707	31.3491787721606	0.811141524172039	-0.821707081923406	0.000218354144293498	-0.00561601543215867
0.8	0.818701651184649	0.286249613623983	706.186096153665	3.82298626546698	31.187898777078	0.808775855479881	-0.816960212675936	0.000274857794237748	-0.00582545868288442
0.81	0.911929720972041	0.226054272989611	705.659614795509	3.86455692012594	31.0248658247854	0.80543032749878	-0.81037487287895	0.000337058581026728	-0.00602740089349424
0.82	0.994771673173087	0.145440187147591	705.052370264568	3.91125725754339	30.8585479301361	0.803135012368192	-0.804004323234157	0.000407189884993886	-0.00622908941359579
0.83	1.07301723866501	0.0496698667976443	704.463058211795	3.96418624170123	30.6896054397678	0.803387431058588	-0.799548177726192	0.000486080616029394	-0.00643573825955873
0.84	1.15060823641992	-0.0529163304092821	703.987986427067	4.0232839878313	30.5214357901969	0.80655765605498	-0.797722978555727	0.000572919341073064	-0.00664847239636523
0.85	1.2283142699388	-0.152501956810855	703.701324877399	4.08727629626879	30.3598517568998	0.81166020435426	-0.797969925111948	0.000665316658161608	-0.00686356875957655
0.86	1.30371903515559	-0.239538822891377	703.640724049862	4.15382959064718	30.2118772306905	0.816609582496963	-0.798633279372076	0.000759633251514069	-0.00707329979029298
0.87	1.37249765532592	-0.3062487423609	703.801367469499	4.21987931000321	30.0839711240875	0.818898665893767	-0.797565930629058	0.000851499703506953	-0.00726811977018549
0.88	1.43042870898578	-0.347642611947237	704.139328648302	4.28206116886433	29.9802379531706	0.816473788087247	-0.792949686688238	0.000936419031224767	-0.00743944318845435
0.89	1.47529441151913	-0.361983268666695	704.582888671821	4.33715480521975	29.9012376459309	0.808496842461691	-0.784028346731591	0.00101032835303216	-0.00758205166905696
0.9	1.50790026760438	-0.350741755826427	705.048767392573	4.3824527755428	29.8438254356825	0.795719567501377	-0.771480409390456	0.00107001296152798	-0.0076953233525357
0.91	1.53184410342218	-0.318148528589161	705.459355791627	4.41599588802775	29.8020950096834	0.780335613357052	-0.757294031891039	0.00111331394217618	-0.00778293977061589
0.92	1.55219531779368	-0.270438252703973	705.757118436058	4.43666000296764	29.7691051997474	0.765365364229317	-0.744193362197965	0.00113913570302471	-0.00785129447138655
0.93	1.57367116225515	-0.214872633192841	705.913275071418	4.4441240372962	29.7388023961068	0.753791733669594	-0.734827006841057	0.00114731953768032	-0.00790727004522657
0.94	1.59904269741557	-0.15863864633223	705.929412054961	4.43877691886579	29.7075136248151	0.747740758552503	-0.731003973387755	0.00113848008297723	-0.00795619800629582
0.95	1.62833242695749	-0.10776668886287	705.832432749726	4.4216215022617	29.6745838208424	0.74796535833526	-0.733226327312283	0.0011138895633509	-0.00800063865672368
0.96	1.65898788220143	-0.0662647042437856	705.664794151561	4.39420672487181	29.6420706292256	0.753765966793933	-0.740643437241897	0.0010754442590476	-0.00804022458929782
0.97	1.68682148549852	-0.0356721782667774	705.472914438769	4.35857909905937	29.6137447945042	0.763322969200693	-0.751395992355249	0.00102568125741598	-0.00807238835169843
0.98	1.7072692027798	-0.0151668502216197	705.29675794777	4.31721169495154	29.5938439704575	0.774285930245256	-0.763192348481688	0.00096776308176616	-0.00809351519225493
0.99	1.71651087391471	-0.00221083977941302	705.162926780013	4.27286084716827	29.5860329034017	0.784407343274196	-0.773908493878648	0.000905339296415564	-0.00810001258442583
1	1.71216467031278	0.00644994501113532	705.082354760273	4.22832362485362	29.5928598644476	0.792032877565099	-0.782033138635885	0.000842234643570361	-0.00808894661668574
1.01	1.69349351127505	0.0137450727326668	705.052302054166	4.18611324170741	29.6157565510576	0.796341335675412	-0.786864327547597	0.000781986598948903	-0.00805815840596852
1.02	1.66122477356364	0.0215253336356548	705.061204677045	4.14811529260326	29.6554112119555	0.797324364909819	-0.788460304340653	0.000727329905942486	-0.00800601659135358
1.03	1.61713671708071	0.0303113529369	705.094355498517	4.11531441005797	29.7122296483434	0.795571093651142	-0.78741744535666	0.000679769425954935	-0.00793109275479476
1.04	1.56353517675548	0.0395652022080245	705.138502378621	4.08767620692711	29.7866115288292	0.791957616188334	-0.784574889551504	0.000639376360296873	-0.00783203558198703
1.05	1.50270117601556	0.048308862145343	705.184150698619	4.06423332588301	29.8788845599717	0.787338002588894	-0.780734507942155	0.000604887167984014	-0.00770779737057581
1.06	1.43638565552494	0.0558026393711716	705.225384934947	4.04336879994646	29.9888991018035	0.782307789606569	-0.776454809670726	0.000574098138932166	-0.00755819918520445
1.07	1.36546035357646	0.062014051450969	705.258018636132	4.02323317446062	30.1154282992133	0.777079809353396	-0.771947063115685	0.000544460749873688	-0.00738467667220971
1.08	1.28985738792729	0.067732534484696	705.277494788848	4.00219215302493	30.2555986816282	0.771485868241384	-0.767080773262184	0.000513722298033814	-0.0071909709290508
1.09	1.208892606572	0.0743482595379127	705.27795756005	3.97919070769203	30.4045769681056	0.765097314932459	-0.761492177413493	0.000480441302366907	-0.00698352754476206
1.1	1.12195558591784	0.0834366915345344	705.253285467693	3.95394020599294	30.5556709360512	0.757438723077313	-0.754776244518705	0.000444241258242939	-0.00677142580692192
1.11	1.02940134757167	0.0963291971216131	705.199856364252	3.92688154047071	30.7008929342332	0.748248406125865	-0.746724395430904	0.000405739395480942	-0.00656575428599399
1.12	0.933365390858995	0.113808871234384	705.119842103733	3.8989383999825	30.8319158455752	0.737719631408147	-0.737549046641898	0.000366179910749387	-0.00637845908718987
1.13	0.838203566197203	0.135990556267594	705.023360604796	3.87113611758002	30.941250540371	0.726645973936471	-0.728022311016641	0.000326889798055618	-0.0062208054354892
1.14	0.750346980932728	0.162369822920196	704.928101869035	3.84420637156374	31.0234105739882	0.716404230208952	-0.719462555669569	0.000288735002292762	-0.00610170027071621
1.15	0.677526474206101	0.191981647386415	704.856006805648	3.8183105773416	31.0758159660312	0.708744710348033	-0.713536197582456	0.000251764178870628	-0.00602620173916957
1.16	0.627501137560533	0.223595637716837	704.827805812534	3.79298521065536	31.0992285906156	0.705416400376374	-0.711898268606918	0.000215176573577169	-0.00599455910156332
