Time [s]	GRFml [N]	GRFap [N]	GRFv [N]	Mml [N.m]	Map [N.m]	Mv [N.m]	Mfree [N.m]	COPml [m]	COPap [m]
0.01	13.5873765976648	3.41103108693656	693.252431596145	-42.3483093368826	3.02867858109973	-1.12400101980736	-0.308846874059443	-0.00135182723294019	-0.00255765662524259
0.02	13.3356787911918	3.88656748398013	693.370047158077	-42.3684500405696	3.11368429338026	-1.08798076099679	-0.290498288555141	-0.00123194098833497	-0.00254062147740198
0.03	13.0871254267224	4.35127322095593	693.483419781209	-42.38664830415	3.1967620974346	-1.05221868167984	-0.272310346099378	-0.00111452938067356	-0.00252592355466974
0.04	12.8455259179752	4.79568433960191	693.589900613179	-42.4012842484812	3.27624351077136	-1.01711854364796	-0.254415653877218	-0.00100199266150106	-0.0025156787905784
0.05	12.6145094453987	5.21102526895608	693.687218735576	-42.4108038961425	3.35058802718425	-0.98306602619381	-0.236932993406271	-0.000896563355798435	-0.00251194422692354
0.06	12.3974149801006	5.58957045656403	693.773606032999	-42.4137983263205	3.41844788517974	-0.950420471843708	-0.219969098320469	-0.000800210935582666	-0.00251661388117669
0.07	12.1971928655705	5.92495201877318	693.847890119319	-42.409074086846	3.47872297254813	-0.919507138613177	-0.203620831988683	-0.000714559714090079	-0.00253132434412795
0.08	12.0163217756795	6.21239735041266	693.909548818693	-42.3957108603855	3.53060304451383	-0.890610097641622	-0.187977178961004	-0.000640824383748913	-0.0025573753662374
0.09	11.8567442856741	6.44888513763679	693.958722629867	-42.3731034171334	3.5735952833139	-0.863965966802729	-0.173120535621534	-0.000579766428168093	-0.00259566944874499
0.1	11.719823495803	6.6332133220723	693.996184749749	-42.3409860660281	3.60753616069288	-0.839758706026291	-0.159126932652319	-0.000531673275715114	-0.00264667302482675
0.11	11.6063221646798	6.76597790375335	694.023271331611	-42.2994390458449	3.63258751106514	-0.818115711464439	-0.1460650222448	-0.000496360638879624	-0.00271040031140746
0.12	11.516404700151	6.84946668140781	694.041777458691	-42.2488774862601	3.64921761803647	-0.799105431080436	-0.133993885917855	-0.00047319710465254	-0.00278641944201412
0.13	11.4496611967942	6.88747677635196	694.053826615437	-42.1900246363127	3.65816890701008	-0.782736685197597	-0.122959930741886	-0.000461148799938207	-0.00287387915214439
0.14	11.4051515872986	6.88506878526684	694.061723076996	-42.1238719366394	3.66041448097479	-0.768959815951257	-0.112993311599021	-0.000458840927569351	-0.00297155316161583
0.15	11.3814669746693	6.84827343859466	694.067797514547	-42.0516291530617	3.65710620853801	-0.757669714794103	-0.104104421196723	-0.000464632204997998	-0.00307789854381131
0.16	11.3768044082716	6.78376856346512	694.074256197569	-41.9746681632291	3.64951736003056	-0.748710693185921	-0.0962810152904919	-0.000476697766586493	-0.00319112382772719
0.17	11.3890508169887	6.69854490292966	694.083043497669	-41.8944640869055	3.63898288918702	-0.741883074361173	-0.0894864877585848	-0.000493115914801258	-0.0033092623598442
0.18	11.4158715530314	6.59957894726547	694.095726055331	-41.8125372866011	3.62684038568201	-0.736951299275145	-0.0836596900986909	-0.000511954207339037	-0.00343024655059661
0.19	11.454799041415	6.4935294823547	694.113405103086	-41.7303993697395	3.61437449765129	-0.733653262560102	-0.0787165225442806	-0.000531350711316662	-0.00355197901482847
0.2	11.5033173591625	6.38647221122243	694.136661222472	-41.6495057428445	3.60276726948887	-0.731710528922183	-0.0745533339505695	-0.000549586795853825	-0.00367239723900491
0.21	11.5589391484847	6.28368376185468	694.165533440955	-41.5712165597408	3.59305638873125	-0.730839030395271	-0.0710519798581095	-0.000565148518708129	-0.00378952920764015
0.22	11.6192720444858	6.18948289187999	694.199532240822	-41.4967671327989	3.58610281830918	-0.730759812867133	-0.0680862242750346	-0.000576774438416788	-0.00390153832545437
0.23	11.682072702253	6.10713298522699	694.237683928433	-41.4272481027995	3.58256873811377	-0.731209387998815	-0.065529046256942	-0.000583488501136223	-0.00400675690414623
0.24	11.7452874659181	6.038806248626	694.278602040074	-41.3635949486016	3.58290616211499	-0.731949254801909	-0.0632603356062952	-0.000584617467129849	-0.00410370836911903
0.25	11.8070796588747	5.98560657667877	694.320580137469	-41.3065858130334	3.58735606072496	-0.732774183479582	-0.0611744342433792	-0.000579793118473966	-0.00419111911539127
0.26	11.8658443214577	5.94764504893936	694.361699521185	-41.2568461642825	3.59595732566578	-0.733518901489283	-0.0591869966049614	-0.000568940196741096	-0.00426792154959589
0.27	11.9202119230625	5.92415959360188	694.399945064644	-41.2148585255383	3.60856448524123	-0.734062886086832	-0.0572406956751956	-0.000552251633262303	-0.00433325026003947
0.28	11.969043088228	5.91366859436495	694.433322503491	-41.1809753967317	3.62487272639987	-0.734333046063183	-0.055309381241154	-0.000530153136799375	-0.00438643344286339
0.29	12.0114166767852	5.91414717506141	694.459971028939	-41.1554335523509	3.6444485168805	-0.734304164634159	-0.0534003942784169	-0.000503259580848646	-0.00442698168377414
0.3	12.046613641768	5.92321456932353	694.478265832321	-41.1383681061839	3.66676395247439	-0.733997071800655	-0.0515548481721315	-0.000472325876811831	-0.00445457597531479
0.31	12.0740989685891	5.93832132728605	694.486906225798	-41.1298250543163	3.69123288343709	-0.733474614135996	-0.0498457980720688	-0.000438195126007822	-0.00446905647895194
0.32	12.0935037041928	5.9569260515532	694.484986019524	-41.1297714017028	3.71724689890983	-0.732835589062812	-0.0483743303996409	-0.000401746813868074	-0.00447041307013659
0.33	12.1046086571147	5.97665278817612	694.472043882414	-41.1381024022375	3.7442093637761	-0.732206905519333	-0.0472637130938274	-0.000363847649618899	-0.00445877818891274
0.34	12.1073308379766	5.99542200591509	694.44809238828	-41.1546458560553	3.77156590010981	-0.731734319834335	-0.0466518518140289	-0.000325307375510177	-0.00443442201364055
0.35	12.1017131670118	6.01155015037914	694.41362531493	-41.1791637746225	3.79882997341674	-0.73157217104029	-0.0466823958265376	-0.000286841487632838	-0.00439774952959484
0.36	12.0879174506093	6.02381492896894	694.369603510782	-41.211352016081	3.82560256738504	-0.731872600220397	-0.047494926475432	-0.000249042346918052	-0.00434929871547986
0.37	12.0662201659312	6.03148564293294	694.317420284003	-41.2508386924943	3.85158529243628	-0.732774780388166	-0.049214736514194	-0.000212359639546127	-0.00428973884371937
0.38	12.0370102250292	6.0343199194327	694.258847831312	-41.2971822501098	3.87658665368393	-0.734394703676782	-0.0519427646567596	-0.000177090599256107	-0.00421986779481477
0.39	12.0007876395955	6.03253000890529	694.195966741101	-41.3498701267751	3.90052158263797	-0.736816068580189	-0.0557462805709053	-0.000143379859945785	-0.00414060731857297
0.4	11.958161884375	6.02672331873546	694.131081108903	-41.4083188091725	3.92340469394249	-0.74008277968099	-0.0606509156648349	-0.000111228295108676	-0.00405299532050338
0.41	11.9098487597153	6.01782299144635	694.066622309933	-41.4718759648147	3.9453380447967	-0.74419351477142	-0.066634600203298	-8.05097483370385e-05	-0.00395817448654913
0.42	11.8566646702836	6.00697506492301	694.005044982481	-41.539825131483	3.96649443434712	-0.749098729842049	-0.0736238954493209	-5.09941893776112e-05	-0.00385737685481395
0.43	11.7995174486749	5.99544905772797	693.948719264657	-41.611393232358	3.98709747086397	-0.754700362893108	-0.0814931012924883	-2.2375560359277e-05	-0.00375190426860835
0.44	11.7393931356304	5.98453871194357	693.899823753069	-41.6857609689351	4.00739974807999	-0.760854366386275	-0.0900663788299591	5.69758265904149e-06	-0.00364310497174402
0.45	11.6773384567193	5.97546912908355	693.860243958642	-41.762075942632	4.02766050575591	-0.76737605059133	-0.099122960208854	3.35905734244147e-05	-0.00353234690886935
0.46	11.6144390824478	5.96931570137463	693.831481159388	-41.8394681816116	4.04812410532915	-0.774048062936695	-0.108405333914839	6.16521608538673e-05	-0.00342098855011297
0.47	11.5517941004376	5.96693913767553	693.814576433905	-41.9170676085312	4.06900053589768	-0.780630670022386	-0.117630103774798	9.01867681383289e-05	-0.00331034825553857
0.48	11.4904874431058	5.96893958938815	693.810054258416	-41.9940228798897	4.09044898911018	-0.78687385852728	-0.126501036580223	0.000119430948773602	-0.00320167332200178
0.49	11.4315572842774	5.97563148322998	693.817889342708	-42.0695209570659	4.11256531701466	-0.792530638695286	-0.134723649072222	0.000149535188241189	-0.00309610990971354
0.5	11.3759646292616	5.9870392531086	693.837499373269	-42.1428067294867	4.13537392969366	-0.797370829160924	-0.142020552100662	0.000180551841565161	-0.00299467503004486
0.51	11.3245624648595	6.00291281789548	693.867765063295	-42.2132019972243	4.15882441552431	-0.801194533492284	-0.148146678684155	0.000212429616762165	-0.00289823169615555
0.52	11.2780669020806	6.02276045306829	693.907077446299	-42.2801231295161	4.18279289186917	-0.803844494337378	-0.152903481868444	0.000245014633966925	-0.00280746820369449
0.53	11.2370317323851	6.04589571743197	693.953410784749	-42.3430967440792	4.20708783250915	-0.805216535518453	-0.156151203283131	0.00027805772957093	-0.00272288233240473
0.54	11.2018277291025	6.07149437176244	694.004417906041	-42.4017727978473	4.23145988290172	-0.805267377967923	-0.157818386353264	0.000311227351082003	-0.00264477105462933
0.55	11.1726278638915	6.09865679726928	694.057543340334	-42.4559345423645	4.25561497577536	-0.804019240788649	-0.157907937755351	0.000344127115257296	-0.00257322611728512
0.56	11.1493993814162	6.12647130283256	694.110148430162	-42.5055048768242	4.27922990547319	-0.801560809059836	-0.15649922158703	0.000376316889461981	-0.00250813564268808
0.57	11.1319033941893	6.15407389695829	694.159641707692	-42.55054872914	4.30196941504939	-0.798044356786778	-0.153745893736034	0.00040733611073175	-0.00244919168153227
0.58	11.1197023362735	6.18070057125122	694.203607367123	-42.5912712104474	4.32350379813523	-0.793679044795476	-0.14986943651843	0.000436727981984468	-0.0023959034565366
0.59	11.1121752633989	6.20572885832222	694.23992464227	-42.6280114198816	4.34352601845444	-0.788720654913804	-0.145148620374169	0.000464063180610165	-0.00234761586302852
0.6	11.1085406234891	6.22870633550483	694.266871345082	-42.6612319216447	4.36176740188761	-0.783458257213396	-0.139905382830967	0.000488961778992401	-0.00230353264550814
0.61	11.1078857619921	6.249364782213	694.283205707191	-42.6915040708941	4.37801105547499	-0.778198519563353	-0.134487856782753	0.000511112204627963	-0.00226274354725866
0.62	11.1092020877699	6.26761979106001	694.288221938757	-42.7194895230691	4.39210230911717	-0.773248542139958	-0.12925148255811	0.000530286252303549	-0.00222425463208006
0.63	11.111424524821	6.2835567051901	694.281776493802	-42.7459184162062	4.40395565157406	-0.768898219816608	-0.124539285392841	0.000546349392835724	-0.00218702090132121
0.64	11.1134736296208	6.29740473197087	694.264283804427	-42.7715648605143	4.41355783359009	-0.76540319191104	-0.120662479270758	0.000559265890597135	-0.00214998027378166
0.65	11.1142985791923	6.30950189771322	694.236682099383	-42.7972204971909	4.4209670271057	-0.762969425503122	-0.117882561831688	0.000569098531971809	-0.00211208795965419
0.66	11.1129191450869	6.32025410202086	694.200371731958	-42.8236669930218	4.42630814911402	-0.761740394648903	-0.116395990956734	0.000576003064171269	-0.00207235024240135
0.67	11.1084647742188	6.33009186199789	694.157130087237	-42.8516484135113	4.42976466999392	-0.761787668065608	-0.116322385588743	0.000580217733017695	-0.00202985668526345
0.68	11.100209005623	6.33942838346013	694.109008510249	-42.8818444608432	4.43156741765575	-0.763105512316026	-0.117696981120934	0.00058204857409039	-0.00198380980378883
0.69	11.0875976636105	6.34862235771479	694.058217703252	-42.9148455704756	4.43198105021898	-0.76560987075252	-0.120467808259592	0.000581851339898939	-0.00193355129460399
0.7	11.0702695762293	6.35794837983754	694.007008616465	-42.9511308290361	4.43128899258455	-0.769141808303937	-0.12449777250184	0.000580011124325613	-0.00187858398580572
0.71	11.0480689590551	6.36757716012679	693.957555965912	-42.9910496047489	4.42977770979515	-0.773475238074908	-0.129571510349601	0.000576920864964648	-0.00181858877747906
0.72	11.0210490554832	6.37756681494004	693.911851151892	-43.034807669392	4.42772121865488	-0.778328487095963	-0.13540660954315	0.000572959957811768	-0.00175343597248561
0.73	10.9894671059093	6.38786555011046	693.871610553134	-43.0824584388851	4.42536671750934	-0.783379033130312	-0.141668523892536	0.000568474204058212	-0.00168319055693765
0.74	10.9537711943417	6.39832507070722	693.838203998304	-43.1338997712824	4.42292214374521	-0.788280566797993	-0.147988305554808	0.000563758226063934	-0.00160811117410051
0.75	10.9145799550859	6.40872314687986	693.812606759265	-43.18887654196	4.42054635324942	-0.792681413815568	-0.15398213133073	0.000559041342924353	-0.00152864274050178
0.76	10.8726564792432	6.41879301252069	693.795376780324	-43.2469889746401	4.41834246175752	-0.796243296437979	-0.159271522073616	0.000554477692738105	-0.00144540287274086
0.77	10.8288780120995	6.42825673419346	693.786657176888	-43.3077064546092	4.41635470266921	-0.798659421801973	-0.163503147526829	0.000550141139146846	-0.00135916252035542
0.78	10.7842031590665	6.43685940622272	693.786202427705	-43.3703863001063	4.41456894915681	-0.799670953666405	-0.1663671695293	0.000546025217104084	-0.0012708214253698
0.79	10.7396383129433	6.44440102505604	693.793425259268	-43.4342967335015	4.41291683127016	-0.799081044843158	-0.167613196660025	0.000542048072520914	-0.00118137924316661
0.8	10.6962048854469	6.45076316781938	693.807460071321	-43.4986430896595	4.41128316325358	-0.796765769174969	-0.167063091526506	0.000538062049351675	-0.0010919033518423
0.81	10.6549086902207	6.4559281171655	693.827237944053	-43.5625961376829	4.40951619488541	-0.792681481115128	-0.16462007409704	0.000533867293419141	-0.00100349453777021
0.82	10.6167125119727	6.45998878554177	693.851567834968	-43.6253212846155	4.40744002556652	-0.786868333999339	-0.160273785619446	0.000529228492116207	-0.000917251863494617
0.83	10.5825125424731	6.46314862812267	693.879218519347	-43.6860073829856	4.40486838239671	-0.779449891635213	-0.154101202691656	0.00052389366896807	-0.000834238091004857
0.84	10.5531190063359	6.46571161578878	693.908996126553	-43.7438938817627	4.40161887312408	-0.770628959939569	-0.146263506002953	0.000517613815418112	-0.000755447041279417
0.85	10.5292409728704	6.46806318624381	693.939812725278	-43.7982951417435	4.39752678868781	-0.760679936198436	-0.136999201182737	0.000510162079324656	-0.000681774214769962
0.86	10.5114750836655	6.47064382690154	693.970742247909	-43.8486208769029	4.39245755204945	-0.749938115808811	-0.126613950729912	0.000501351246677457	-0.00061399187580842
0.87	10.5002977387937	6.4739175047995	694.001061042253	-43.8943918745675	4.38631699050778	-0.738786505492435	-0.115467699823196	0.000491048351468387	-0.000552729619655898
0.88	10.4960601869506	6.47833750250213	694.030271422139	-43.9352503782371	4.37905874430878	-0.727640766025585	-0.103959761789035	0.00047918542498835	-0.000498461201620129
0.89	10.4989859552331	6.48431232317781	694.058107686207	-43.9709647743988	4.37068830789988	-0.716932947023085	-0.0925125711053161	0.00046576564144877	-0.000451498125332475
0.9	10.5091701218293	6.49217419501553	694.084525126488	-44.0014284947935	4.36126342092942	-0.707094683837208	-0.0815548158433708	0.000450864418131245	-0.000411990177489774
0.91	10.5265800614117	6.50215235997573	694.109673507598	-44.0266533145339	4.35089077038291	-0.698540506363213	-0.0715046325138956	0.000434625367152015	-0.00037993277692136
0.92	10.5510574554751	6.51435281930476	694.133857328927	-44.0467574816215	4.33971921720768	-0.691651866718817	-0.062753491150121	0.000417251350632951	-0.000355180694964763
0.93	10.5823215333838	6.52874558762919	694.157485862519	-44.0619493439331	4.32793000335364	-0.686762433125464	-0.0556513247760679	0.000398991237460703	-0.000337467418644696
0.94	10.6199736705913	6.54515984617364	694.181016472597	-44.0725073370358	4.31572461125199	-0.684145126575158	-0.050493372882272	0.000380123272969372	-0.000326429181917928
0.95	10.6635035977186	6.56328675175512	694.20489505754	-44.0787573537838	4.30331112147524	-0.684001300200457	-0.0475091201801971	0.000360936229001024	-0.000321632493147359
0.96	10.7122975521683	6.58268911295025	694.229497601952	-44.0810486301197	4.29089003221722	-0.686452382885186	-0.0468536253757848	0.00034170968020966	-0.000322603844612648
0.97	10.76564872268	6.602816736063	694.255076775926	-44.0797293479616	4.27864055642517	-0.691534231427359	-0.0486014537656379	0.000322694837564371	-0.000328860203983358
0.98	10.822770292637	6.62302600076287	694.2817172631	-44.075123173838	4.26670839351505	-0.699194360793773	-0.0527433537480298	0.000304097352812863	-0.00033993885714946
0.99	10.8828112816505	6.64260215711489	694.309303035142	-44.0675079202227	4.2551958822985	-0.709292149400188	-0.0591857503724283	0.00028606338693358	-0.000355425193947365
1	10.9448752237916	6.66078292991163	694.337499123274	-44.0570974353027	4.24415528501288	-0.721602044278944	-0.0677530665777859	0.000268670018145381	-0.0003749771002204
1.01	11.0080415160787	6.67678224221808	694.365749585449	-44.0440276970237	4.23358573919255	-0.735819716989293	-0.0781928214223449	0.000251920765347162	-0.000398344739076087
1.02	11.0713890374965	6.68981318379972	694.393292365619	-44.0283479107702	4.22343415896708	-0.751571042607824	-0.0901833907463663	0.000235746641993839	-0.000425384669932985
1.03	11.1340213948456	6.69910970016648	694.419190640973	-44.0100171907019	4.21360008802701	-0.768423689257507	-0.103344246350157	0.000220012759353371	-0.000456067465397267
1.04	11.1950929171501	6.70394681217741	694.442379122109	-43.988907148497	4.20394422286266	-0.785901014071613	-0.117248413435486	0.000204530095651976	-0.000490478242226935
1.05	11.2538343163129	6.70365944812222	694.461722689161	-43.9648104285375	4.19430005748585	-0.803497865055889	-0.131436803401964	0.000189071668233501	-0.000528809820986631
1.06	11.3095767792767	6.69766014476656	694.476083798528	-43.9374549265331	4.18448786933102	-0.820697791228298	-0.145433993173152	0.000173392017365517	-0.000571348563778579
1.07	11.3617731756737	6.68545593095237	694.48439436148	-43.9065231228811	4.17433008768201	-0.836991072150502	-0.158764938388194	0.000157248656940731	-0.000618453300887375
1.08	11.4100150710949	6.66666464386373	694.485727347724	-43.8716756682616	4.16366697441077	-0.851892900640231	-0.170972033109652	0.000140423987962754	-0.000670528130989625
1.09	11.4540443407266	6.64103075752496	694.479363254534	-43.8325780937673	4.15237151094158	-0.864960997867297	-0.181631871117405	0.00012274611764124	-0.000727990247144428
1.1	11.4937583850099	6.6084405533183	694.464846830014	-43.7889292979781	4.1403624285922	-0.875811916469794	-0.19037103115669	0.000104107084901758	-0.000791234280151043
1.11	11.5292082532002	6.56893617145916	694.442030041802	-43.7404903043074	4.12761443936564	-0.884135301328619	-0.196880207221664	8.44771589223045e-05	-0.000860594938324147
1.12	11.5605893675286	6.52272779392855	694.411098202996	-43.6871116967325	4.11416491266301	-0.889705432996102	-0.20092603947306	6.39141398575769e-05	-0.00093630993484918
1.13	11.5882249859651	6.4702029667286	694.372577337938	-43.6287581400748	4.10011648678309	-0.892389475847759	-0.202360073326441	4.25669318898448e-05	-0.00101848530967813
1.14	11.6125430132615	6.41193191069574	694.327322199553	-43.565528477119	4.08563538468986	-0.892151988526555	-0.20112438217041	2.06730538021751e-05	-0.00110706525611037
1.15	11.634047230831	6.34866762424242	694.276485727014	-43.4976700685404	4.07094550062692	-0.889055421471612	-0.197253528659019	-1.44982727590809e-06	-0.00120180844298695
1.16	11.6532844274563	6.28133966472745	694.22147203989	-43.4255862967674	4.05631861565699	-0.883256515768602	-0.190872703523549	-2.34178383581802e-05	-0.0013022725798798
