Time [s]	GRFml [N]	GRFap [N]	GRFv [N]	Mml [N.m]	Map [N.m]	Mv [N.m]	Mfree [N.m]	COPml [m]	COPap [m]
0.01	3.08401794295725	-5.69334705026627	913.90642292295	-2.22679513709831	28.0316638608035	-1.6342214051688	1.80129231684352	0.00083370947704009	-0.00217870670578557
0.02	3.35300042454573	-5.81104798533988	913.73208019712	-2.20734141827453	27.9572573251785	-1.64735755325671	1.81707160273461	0.000854496070844868	-0.00225443266945541
0.03	3.58316731783073	-5.93989316653626	913.58934635249	-2.17746300262797	27.9019326723456	-1.66027700006505	1.83322020237284	0.000886836931701107	-0.00231026364202608
0.04	3.73546797988372	-6.08626397618956	913.491346921829	-2.13079790674811	27.8821052623474	-1.67294808340956	1.85011324017987	0.00093780467604665	-0.00232861625871145
0.05	3.78085963695042	-6.24924670208509	913.437089285956	-2.06554207236402	27.9076281919295	-1.68526527800405	1.86774761346982	0.00100943311900603	-0.00229864224789911
0.06	3.70738797646946	-6.42042403094551	913.414168025339	-1.98470896003592	27.9794742476162	-1.69688015867834	1.88553700317622	0.00109842743997057	-0.00221885688456808
0.07	3.5258012417765	-6.58627324959598	913.406981003478	-1.89488772971778	28.0890599641865	-1.70705906252507	1.90223287486421	0.00119753241891529	-0.00209814778528722
0.08	3.27102621358993	-6.73223546938253	913.407350430734	-1.80390571397827	28.219669309254	-1.71467349172734	1.9160550495026	0.00129811058308327	-0.00195456416206352
0.09	2.99734734351564	-6.84702650523749	913.422888071623	-1.71815450504491	28.3499631317074	-1.718395939157	1.92506150619805	0.00139309150495293	-0.00181175019519064
0.1	2.76693715176138	-6.92581783168021	913.478729673913	-1.64044122998237	28.4589311673236	-1.71708681819561	1.92769408017746	0.00147934112403136	-0.00169358166552602
0.11	2.63391355888993	-6.97143237735606	913.610509855695	-1.56905007272037	28.5310866265971	-1.71025731886777	1.92334430911857	0.00155869604267034	-0.00161824606707245
0.12	2.62834625741276	-6.99343449830452	913.84993926135	-1.49830208345861	28.5604618800082	-1.69842882160208	1.91273819152993	0.00163734713592723	-0.00159338563107619
0.13	2.74556289249894	-7.00566141669492	914.207746542149	-1.42041181836178	28.5521832309818	-1.68321828426671	1.89796982035704	0.0017237971558044	-0.00161379695783476
0.14	2.94509813163886	-7.02312278646977	914.660612427618	-1.32801803817388	28.5210605449364	-1.66706541731871	1.88211968744969	0.00182608044803478	-0.00166252629710101
0.15	3.16080251541667	-7.0592014338941	915.148102556318	-1.2165538154782	28.4875285472264	-1.65265130271991	1.86853889954333	0.00194916399941358	-0.00171519609280735
0.16	3.3198655386944	-7.12378780150704	915.582497311704	-1.08569092571807	28.4721192046702	-1.64218631968899	1.86001065846662	0.0020933696742923	-0.00174637448178466
0.17	3.36515702800199	-7.22254006414086	915.869841184595	-0.939419604954611	28.4901306657492	-1.63681372989671	1.85806211619392	0.00225429644117381	-0.00173611413327479
0.18	3.27365634574164	-7.35706680679401	915.93618168836	-0.784793586639584	28.5481053099968	-1.63635169328475	1.86266386100891	0.00242420534233312	-0.00167469623525662
0.19	3.06456389876624	-7.52561020055658	915.75054507976	-0.629818562154754	28.643141199415	-1.63948433117756	1.87242825777572	0.00259433873260762	-0.00156417373025541
0.2	2.79384376249422	-7.72380342732712	915.336736262622	-0.481235043245091	28.7651296607869	-1.64435086221117	1.88524449260119	0.00275734837409924	-0.0014163413086416
0.21	2.53643722646359	-7.94523813675853	914.769477273305	-0.342951709987205	28.9010507661446	-1.64933117040864	1.89913048194059	0.00290900440346264	-0.0012479239442682
0.22	2.36168699522928	-8.18180507398641	914.155532054736	-0.215624993126285	29.0397945526816	-1.65374508611503	1.91299957804656	0.00304864503905966	-0.00107467526051025
0.23	2.31008471227	-8.42395682495822	913.605471307258	-0.0974510948753006	29.175835466204	-1.65820523745112	1.92706675406915	0.00317829857991403	-0.000906402324714728
0.24	2.37930318654111	-8.66111350063528	913.204831229898	0.0142054781969517	29.310519753158	-1.66448467635946	1.94274787599429	0.00330089278128309	-0.000744569958606778
0.25	2.52452408555239	-8.88237437913687	912.993554770495	0.121016138980483	29.4505836253994	-1.67493694771723	1.96209047398795	0.00341828580242498	-0.000583208223300935
0.26	2.67325046034459	-9.07755051435712	912.959791555228	0.222431681685657	29.604508065786	-1.6916712238453	1.98694592870897	0.00352989121545688	-0.000412673654049178
0.27	2.74975727314671	-9.23836735021604	913.049403885963	0.315440423548724	29.7780876564983	-1.71577515071562	2.01818600145973	0.00363241507034007	-0.000224810553388854
0.28	2.70089600747833	-9.35957440216587	913.187512121982	0.395408006191545	29.9708692593172	-1.74685881045923	2.05524626221477	0.00372077597588794	-1.75807871259925e-05
0.29	2.5144259054441	-9.43968356949393	913.304766301737	0.457641905808072	30.1747969199997	-1.78307345795615	2.09615467934417	0.00378981673279488	0.000202548966129479
0.3	2.22364641901515	-9.48113878682942	913.359882918085	0.499054063799766	30.3755931271263	-1.82158616111695	2.13802489934367	0.00383612303310665	0.000421335659500421
0.31	1.89692636961967	-9.48986220569182	913.351596029762	0.519285427087828	30.5564060230157	-1.85933271814295	2.17782940017273	0.00385925548897037	0.000620330759678656
0.32	1.6159921917608	-9.47427422907886	913.316874118798	0.520900370519062	30.7024264365563	-1.89378485782936	2.2131784811221	0.00386196809338313	0.000781990471788729
0.33	1.45061553048369	-9.4439983305069	913.316718488416	0.508641260688704	30.8048353310838	-1.92348222543269	2.24284661405044	0.00384940261944788	0.000894490847281604
0.34	1.43828512807084	-9.40850603141987	913.414586332496	0.488083698974659	30.8627092701559	-1.94818376659008	2.26689651442364	0.00382762928183078	0.000954572796406317
0.35	1.57531215670148	-9.37592726804333	913.65434449013	0.464208121969209	30.8822858131002	-1.96864178119326	2.28640669436773	0.00380209392723718	0.000967520304370584
0.36	1.82151159275522	-9.35216812678521	914.044268902979	0.440352211501867	30.8739764306319	-1.98613496310502	2.30294774050837	0.00377647596597552	0.000944463802200812
0.37	2.11579733834503	-9.34038272507974	914.551353185331	0.417786555770305	30.8483364250656	-2.00196335685997	2.3180232274088	0.00375222009260534	0.00089817700450967
0.38	2.3964938600444	-9.34078177911481	915.106994337949	0.395886845299576	30.8125501538534	-2.01708757072749	2.3326711174637	0.00372871308861566	0.000839029876942343
0.39	2.61909923421819	-9.35074934812662	915.622020820693	0.37268403742945	30.7687411391973	-2.03200416019837	2.34732804433161	0.00370386966348402	0.000772599993596246
0.4	2.76584464219239	-9.36526923536818	916.006824532306	0.345526097201574	30.7146764839783	-2.04683553604181	2.36193953915302	0.00367484036712018	0.000699715964514791
0.41	2.84488909351067	-9.37769237431937	916.191459584075	0.311667611658969	30.6464944676775	-2.06152930627	2.37620857767036	0.00363864488325116	0.000618712415573375
0.42	2.88092763542875	-9.38085909963189	916.140988285336	0.268741749203372	30.5623028919631	-2.0760425345544	2.38984819331746	0.00359268364321153	0.000528807872734682
0.43	2.90188252711149	-9.36850184262939	915.862810303533	0.215171744704162	30.4651628853266	-2.09043000344022	2.40274186998896	0.00353519090450571	0.000433100505075001
0.44	2.92721117740891	-9.33671430197912	915.40476128191	0.150587821876663	30.364201369629	-2.10482949218328	2.41498675978857	0.00346570004774283	0.000339851690572324
0.45	2.96207026621924	-9.28514376702127	914.84490900865	0.0762324406865933	30.2732885389337	-2.11939688357377	2.42685620760504	0.00338549987519265	0.000261407027073224
0.46	2.99881598129609	-9.21752081551647	914.275732570861	-0.00477918587162785	30.207614200127	-2.13425877855849	2.43873920356407	0.00329793361788111	0.000211022115028325
0.47	3.02427611351252	-9.14123855050161	913.786377969263	-0.087543408272401	30.1792759349811	-2.14951918424261	2.45109334189074	0.00320831936259702	0.00019867676341967
0.48	3.02907601882077	-9.06592929279216	913.446767307927	-0.165956249397051	30.1933820592071	-2.1653064899281	2.46440902509978	0.00312331609197536	0.000227386073908153
0.49	3.01476854581877	-9.00129267719367	913.296559985175	-0.233811811268027	30.2460427042252	-2.18181328696085	2.47915845799853	0.00304972662330427	0.000291404162683973
0.5	2.99567028885775	-8.95469539365027	913.340604344273	-0.286211039239298	30.3250201702607	-2.19928647419835	2.49571176401265	0.00299295483070605	0.000377106616027023
0.51	2.99458156398589	-8.92918327731966	913.55098270247	-0.32091110460843	30.4129398649798	-2.21796301934818	2.51423680141167	0.00295552087138362	0.000466440316215344
0.52	3.03404301601211	-8.92246761945902	913.874437632001	-0.339193157622575	30.4921188899743	-2.23798959483263	2.53463150542875	0.00293609683791396	0.000541951026183263
0.53	3.12653539949917	-8.92719359951473	914.243144398768	-0.345924839578347	30.5495342650974	-2.25938068783698	2.55653988467288	0.00292941925350498	0.000591841582068653
0.54	3.26746239441051	-8.93245803652213	914.586557180755	-0.348717407975805	30.5804051588564	-2.28204628676909	2.57946662905704	0.00292719235265804	0.000613469370637165
0.55	3.43377549691743	-8.92622474748003	914.842332494757	-0.356352136818038	30.5893156894963	-2.30587096877196	2.60294890681053	0.00291979664331032	0.000614177541362781
0.56	3.58910640246591	-8.8980703323467	914.964935816374	-0.376885385048053	30.5886001786995	-2.3307846070009	2.62670245497934	0.00289836001392441	0.000609205070521757
0.57	3.69398523804714	-8.84161466847635	914.931232815322	-0.415958307234558	30.5945819191385	-2.35676254125674	2.65066286679636	0.00285661871464982	0.000617349343084883
0.58	3.71791688735262	-8.75604569456835	914.74293922012	-0.47579430523635	30.6229124854057	-2.38373792053749	2.6748971818495	0.00279203852024057	0.000655754146324738
0.59	3.64934275056179	-8.64632328049467	914.426115395562	-0.555172074591947	30.68449370865	-2.41147704517185	2.69943870108668	0.00270587564843239	0.000735443120645995
0.6	3.50005773696691	-8.52192869203974	914.02792961266	-0.650369145707028	30.7832151536708	-2.43951539596166	2.72415319987985	0.00260217424601838	0.000858944783913462
0.61	3.30231387827589	-8.39438591674298	913.610803114439	-0.75676883669338	30.9160996497207	-2.46723926498196	2.74873827580609	0.00248602676571263	0.00102065807170998
0.62	3.09912839074168	-8.27414992015326	913.24401766929	-0.870609856944505	31.0756313498894	-2.49411999555557	2.77288316172996	0.00236165949534761	0.00120971206215853
0.63	2.9305487225925	-8.16772099229605	912.993142369021	-0.99030640259145	31.2533089119995	-2.52000172705752	2.79650955881193	0.00223096661864486	0.00141426047216153
0.64	2.82013007448823	-8.07588066912657	912.908314931477	-1.1169001350126	31.4430568775821	-2.54527237520114	2.81993678868035	0.00209297643979578	0.00162567538922875
0.65	2.76614548455842	-7.99368453125693	913.013334646479	-1.25348381123989	31.6431808955784	-2.57076510201471	2.84382080530789	0.00194443483750872	0.00184112449047658
0.66	2.74088650111314	-7.91233052694277	913.29826615431	-1.40376866339181	31.8560660038861	-2.59735285088048	2.86881823495792	0.00178133109418466	0.00206354709644035
0.67	2.69903986758894	-7.82240440475765	913.718278335308	-1.57024462005077	32.0856409210739	-2.62536343305889	2.8950803073082	0.0016008880280628	0.00229894321150953
0.68	2.59316271561847	-7.71750646750538	914.200379723483	-1.75251572671246	32.3334985108034	-2.65407193252777	2.92180702799078	0.00140338804730344	0.00255187956825942
0.69	2.39163344169088	-7.59708063546864	914.657633344234	-1.94634505372353	32.5951666034988	-2.68154334549128	2.94711409647914	0.00119325137236981	0.00282085977511887
0.7	2.09308060214767	-7.46748250395974	915.007951782331	-2.14373671096927	32.8581199804836	-2.70497634246998	2.96835701292945	0.000978999665645741	0.0030954108176402
0.71	1.73185491129579	-7.34087405264275	915.19264902803	-2.33408765382754	33.1026292378738	-2.72148499344208	2.98285911363746	0.000772053850473964	0.0033562748751087
0.72	1.37167884114303	-7.23222954729866	915.189452932988	-2.50614875458993	33.3055839542799	-2.72904747213061	2.98879427116486	0.000584633394814071	0.00357906820960247
0.73	1.08850776036763	-7.15533834559591	915.016046497887	-2.65032184715218	33.4463245483934	-2.72725119765966	2.98587779677005	0.000427260956984088	0.00374050999393871
0.74	0.947576097680757	-7.11899475711801	914.723053830709	-2.76073325923984	33.5126751747346	-2.71752625305174	2.97557382863895	0.00030647953784424	0.00382529053272795
0.75	0.982101512771665	-7.12448563042402	914.378730284917	-2.83657339436815	33.5051298706436	-2.70276010947785	2.96071521606569	0.00022334648861011	0.00383125223553499
0.76	1.18108770626699	-7.16507287602815	914.050229377347	-2.88235602082583	33.4376393089107	-2.68643691946824	2.94466958983633	0.000173097858940152	0.003770992868668
0.77	1.49089617828684	-7.22757456499212	913.78723343497	-2.90699332803212	33.3345321418735	-2.67163125938792	2.93036605349496	0.000146114491194949	0.00366915097324849
0.78	1.83060714883059	-7.29556498149297	913.612626980033	-2.92185752507991	33.2244028413409	-2.66022825559043	2.91954161948568	0.000130017176024233	0.00355609563407339
0.79	2.11632090199537	-7.35330140110767	913.522206877273	-2.93825279821848	33.1328325891779	-2.65262794610688	2.91246073505743	0.000112432731713352	0.00345998067005443
0.8	2.28630139794334	-7.38933427123503	913.492202186403	-2.96489282363642	33.0761985354735	-2.64798164264821	2.90815953427661	8.37753187399315e-05	0.0033996768917024
0.81	2.31851022740781	-7.39888280028225	913.490852907092	-3.00601313206873	33.0584306019445	-2.64480083216732	2.90506271376741	3.93426379942108e-05	0.00338076395595988
0.82	2.23479864074734	-7.38441294585485	913.489408478823	-3.06061321075524	33.0715513474082	-2.64166272324994	2.90170159022117	-1.98280594795319e-05	0.00339568005333341
0.83	2.09080555657173	-7.35434914263735	913.468911202359	-3.12303521761563	33.0995693749785	-2.63774771548994	2.89726639219296	-8.75799206794259e-05	0.00342770508455603
0.84	1.9556416685417	-7.32036449031133	913.421488433949	-3.18471533064226	33.124249195173	-2.63305722229638	2.89183343491941	-0.000154554512750593	0.00345721423883971
0.85	1.88883903159906	-7.29408981800444	913.347484905254	-3.23660282504001	33.1308047390673	-2.62830792362261	2.88625502866016	-0.000210849283391434	0.00346801532678598
0.86	1.92259126250833	-7.28423372804935	913.251436436321	-3.27154813069199	33.1117835470057	-2.62460997245133	2.88181665990774	-0.000248639885062407	0.00345175703627376
0.87	2.05490507757824	-7.29494221472872	913.13988548961	-3.28598830285799	33.0681881426096	-2.62307330399166	2.87981044211296	-0.000264024362388371	0.00340924676766907
0.88	2.2549605081113	-7.32577779855026	913.022426178851	-3.28050210607556	33.0078956382384	-2.62445565848029	2.88114902580427	-0.000257619471774939	0.00334868865220711
0.89	2.47745574139743	-7.3731106888488	912.914975680319	-3.25918110936603	32.9423079895788	-2.62890951343837	2.88608806115849	-0.000233856769756069	0.00328189861239986
0.9	2.67971432270901	-7.4322106980788	912.842339330425	-3.22813239815953	32.882604302068	-2.63584725814375	2.89408236713215	-0.000199335227627939	0.00322010931813604
0.91	2.83491487398836	-7.4991173248484	912.836739083416	-3.19366287302549	32.8368695782219	-2.64394274674251	2.90379243894153	-0.000160842884819434	0.0031708884895546
0.92	2.93697616912951	-7.5715434105037	912.930486859483	-3.16072266242793	32.8088430883386	-2.65130448610069	2.91326969985219	-0.000123683337997171	0.00313705543972004
0.93	2.99639084354065	-7.64856412260653	913.143856838762	-3.13201769139953	32.7983141274696	-2.65585196505893	2.92034457910243	-9.0749243532029e-05	0.00311758711662746
0.94	3.03006244879574	-7.72943899647525	913.472163734679	-3.10792278072277	32.8025852128729	-2.65587309905941	2.9231919634219	-6.24709298238102e-05	0.00310972469768939
0.95	3.05043790337568	-7.81233676875616	913.877639665397	-3.08705094747502	32.8181437381824	-2.65064493974306	2.92095838184153	-3.7463128339521e-05	0.00311112301516953
0.96	3.05908477885202	-7.89377850435203	914.290981639509	-3.06715677047206	32.8418039172765	-2.64090884256631	2.91424776082973	-1.35028710962493e-05	0.00312104298716326
0.97	3.04748509111977	-7.96925336139398	914.624447673896	-3.04601418356713	32.8710047512691	-2.62896813741398	2.90523824695333	1.15580247058711e-05	0.00314016609818096
0.98	3.00427879836335	-8.03485672171246	914.794144674963	-3.02199603705089	32.9034591856699	-2.61826163102063	2.89728250259101	3.92333054178851e-05	0.00316933291035087
0.99	2.92504876002125	-8.08923810537633	914.745294242112	-2.9942380874751	32.9367009772256	-2.61244830442761	2.89401938736593	7.03018423219293e-05	0.00320804532342983
1	2.81938844468487	-8.13490036026298	914.472332650959	-2.96242621898342	32.9681049240667	-2.61425004377249	2.89823259640476	0.000105098203714071	0.00325368381014579
1.01	2.71107232546937	-8.17809368770105	914.026563561271	-2.92635106138812	32.9956515006573	-2.62444477928864	2.9108388061772	0.000144016057122665	0.00330202766322685
1.02	2.63024617681451	-8.22712406215288	913.507583236657	-2.88540957560114	33.0192176548143	-2.64140390219841	2.93039600720107	0.000188020130006628	0.00334899530677457
1.03	2.60035500929407	-8.28959938612589	913.039724563563	-2.83821208422859	33.0417468836894	-2.66140487596375	2.95336900883956	0.000239001177703257	0.00339285374380449
1.04	2.62534847667647	-8.36966010547066	912.739647291483	-2.78240614942151	33.0695139046368	-2.67967494554238	2.97512215111548	0.000299873208515766	0.00343579903034608
1.05	2.68322034534805	-8.46634678704316	912.684294135456	-2.71478091974927	33.1109574068259	-2.69184131220153	2.99133209640062	0.000374371018778685	0.00348396478983354
1.06	2.72977420181351	-8.57387789166657	912.888673594904	-2.63167261724514	33.1741310772136	-2.69529315818219	2.99934039913286	0.000466550808697064	0.00354553284698006
1.07	2.71244093325307	-8.68387697067473	913.300189227917	-2.52964250821179	33.2634827697994	-2.68997628754149	2.99897161087169	0.0005800404707339	0.00362744859323866
1.08	2.58964836189119	-8.78877985520462	913.811359176959	-2.40633242674106	33.3771186387165	-2.67834146990495	2.99253035963313	0.000717144099439015	0.00373192747219786
1.09	2.34849430760729	-8.88509521562388	914.287316493036	-2.26132776961998	33.5057172774097	-2.66447582492721	2.98398773250848	0.000877973332837456	0.00385416832522512
1.1	2.013551310211	-8.9751342881548	914.600203535269	-2.09680440682247	33.6337766723885	-2.652741142714	2.97765676308749	0.00105982737277699	0.00398233633088851
1.11	1.64265179091582	-9.06633474621908	914.660819209832	-1.91774164817507	33.7430593286494	-2.64640875682826	2.97682713909591	0.00125703557590418	0.00410005720521894
1.12	1.31036453353157	-9.16822256488549	914.4391137315	-1.7315671593977	33.8172559207041	-2.6467564560289	2.98281924016048	0.0014613906230464	0.00419069176036702
1.13	1.08467612147939	-9.28804430313932	913.968792294095	-1.54724413087318	33.8463543846798	-2.65289579393982	2.99473962312575	0.00166315288346053	0.00424192878917834
1.14	1.00519712163632	-9.42675885275787	913.33604588134	-1.37396631214386	33.8292114413453	-2.66231340038746	3.00995168442298	0.00185244816973784	0.00424905248694701
1.15	1.07084570671781	-9.57710057623772	912.656693536589	-1.2197352015122	33.7734021899192	-2.67185390732035	3.02502484038442	0.00202077091356412	0.00421570011679306
1.16	1.24150659131152	-9.72474958416441	912.048566815926	-1.09011964580553	33.6923698369306	-2.6787434517736	3.03678729871037	0.00216228029185273	0.00415185715596472
1.17	1.45295542405432	-9.85248960353202	911.606301035703	-0.987442060626593	33.6008580799517	-2.68129256042635	3.04312430673598	0.0022746371634077	0.0040698742528168
1.18	1.63942924696672	-9.94603540404047	911.384101408091	-0.910528779706536	33.5102145806173	-2.67909476068364	3.04331306936093	0.0023592419609233	0.00398001846775381
