Time [s]	GRFml [N]	GRFap [N]	GRFv [N]	Mml [N.m]	Map [N.m]	Mv [N.m]	Mfree [N.m]	COPml [m]	COPap [m]
0.01	-2.39760531267585	-1.25383269012355	648.992018585699	6.37886145889152	27.0414577051672	0.749869575686495	-0.721197909532708	0.0083514089682315	-0.00126116304294061
0.02	-0.304243810018472	-1.25582349349143	652.038054398953	6.24988090405284	26.6223997074919	0.790058406031503	-0.742721170757519	0.00810787462205265	-0.00209329043944229
0.03	1.42591618199588	-1.24060724851813	654.353244432418	6.11309405393515	26.271665875692	0.805280293875784	-0.743160066257117	0.00786201163642186	-0.00277350785233899
0.04	2.48616855540118	-1.18905725191451	655.326398880059	5.96517949010306	26.0469551297451	0.775267708980106	-0.705695171760305	0.00761661647090195	-0.00317360448795023
0.05	2.69839361509238	-1.08552929508727	654.665873348675	5.80682580243197	25.9878329749335	0.691001978163171	-0.623463640758357	0.00737638704404597	-0.00321371570011819
0.06	2.04450653278301	-0.921705602143771	652.468005741263	5.64239120968833	26.1104319615511	0.556861381464127	-0.501275451912941	0.00714656783534739	-0.00287504941603539
0.07	0.664441067095693	-0.700606290365141	649.191409293189	5.47821564774119	26.4057046472006	0.389448394776014	-0.35430866404781	0.00693080443367577	-0.00220115372567875
0.08	-1.17783960437752	-0.439099487808736	645.547188399437	5.32025193502841	26.8416273205208	0.213588385087176	-0.204328277370687	0.00672905769163068	-0.00128764399568426
0.09	-3.15128889717801	-0.167166776488392	642.335889160424	5.17194927004748	27.3689401348059	0.0566798366474304	-0.0745945205352759	0.0065365548808145	-0.000262885438885363
0.1	-4.92360983451671	0.0769839440620113	640.273364737274	5.03324059034798	27.9292064272271	-0.0571088644067027	0.0151389866850422	0.00634449313516394	0.000735849599992067
0.11	-6.22086768525001	0.255358647487169	639.847052529138	4.90109170156837	28.4634931048114	-0.111406963550169	0.0523133994542644	0.0061426449766987	0.00158543254175281
0.12	-6.86890023056373	0.339999208879005	641.232530818967	4.77149719532928	28.9199857001773	-0.100043505108518	0.033209902683693	0.00592332363853298	0.00219448202257572
0.13	-6.81053257458449	0.321094767172372	644.282000009457	4.64224526885396	29.2593171531905	-0.0270122959358725	-0.0375377351087239	0.00568556679073384	0.00251269244151892
0.14	-6.09927057520879	0.210508838521271	648.577485061364	4.51541114031247	29.457101619301	0.0956122634614919	-0.149065883315418	0.00543809557651376	0.00253138377903883
0.15	-4.87534030002966	0.0392296073005041	653.527537050905	4.39851087290687	29.503862851558	0.250940315282542	-0.287169786295907	0.00519973382962546	0.002276836560755
0.16	-3.33237641362059	-0.15068796531918	658.480201002596	4.30358982650836	29.4030332553948	0.420662762356822	-0.437018516212372	0.00499654934985994	0.00179924894598488
0.17	-1.68268811931274	-0.317170052024482	662.827167055494	4.24415641536105	29.1679007755349	0.587672648412443	-0.584979387667973	0.00485589766465877	0.00116045928228004
0.18	-0.126809211736683	-0.428574390712685	666.081901088045	4.23062999499738	28.81833576395	0.737410097386287	-0.719261675150312	0.00479858803380662	0.000423085604071727
0.19	1.16966893188864	-0.470191822973465	667.924456039596	4.26562315827033	28.3779354862168	0.857957893228369	-0.829577918960281	0.00483125671716067	-0.000357200479871589
0.2	2.09107541422408	-0.444903941786124	668.214181969844	4.34069659009701	27.8719747041563	0.939398319674211	-0.90641650408154	0.00494141922829161	-0.00113556217736666
0.21	2.57858759939332	-0.368230856420421	666.976729981127	4.43604984138114	27.3263073426949	0.973221056053614	-0.940691291712274	0.00509735395776434	-0.0018781969661808
0.22	2.62950141195561	-0.260017964379849	664.373476221634	4.52391398713436	26.7671510344546	0.952541576043993	-0.924410658385263	0.00525388693313567	-0.00255960044594622
0.23	2.28934790498139	-0.13618121483108	660.661052536906	4.5753270574318	26.2215073321631	0.873534780373676	-0.852601062335507	0.00536348227913108	-0.00315803487922545
0.24	1.63791892860989	-0.00383577529158298	656.14771474755	4.56879006958958	25.7178275909353	0.737903393948089	-0.726136310060816	0.00539021770028458	-0.00365057699805627
0.25	0.771431285569701	0.138206517687375	651.152826359503	4.49839910551055	25.2864409021614	0.555576016309505	-0.554551813678055	0.00532281818744385	-0.00400922448623803
0.26	-0.215574794638798	0.293720727807109	645.975647479621	4.37878274875018	24.959244561324	0.346405486462784	-0.357587209327532	0.00518250113761443	-0.00419946102274649
0.27	-1.2442406215647	0.460474684004877	640.878831822453	4.24474755639004	24.7682575014248	0.139624248938282	-0.164285132013897	0.00502229638400875	-0.00418230705401451
0.28	-2.25754419060851	0.622544349635279	636.089390900303	4.14489442094942	24.742881040811	-0.0296966897746664	-0.0090429959671115	0.00491668564845904	-0.0039201355234329
0.29	-3.21711329461508	0.747424926788195	631.815103672464	4.13027524849574	24.9060874187938	-0.127027589936792	0.0750408371835588	0.00494332504081096	-0.00338545606006735
0.3	-4.09259995673175	0.790402706597214	628.268580116642	4.24085552492325	25.2701881030504	-0.126371379666077	0.0641435547550432	0.00516136935689104	-0.00257070989295766
0.31	-4.84880295524617	0.706078068483676	625.686757483605	4.49353353618106	25.8331799976197	-0.0177859369525971	-0.0491313037205327	0.00559251645109493	-0.00149627902662014
0.32	-5.4373749445942	0.464043391820942	624.333012652459	4.87532104296132	26.5767650246166	0.187920694565683	-0.251728233429384	0.00621062839038045	-0.000213829215056804
0.33	-5.79885896630529	0.0635826757520444	624.473633646851	5.34396082461952	27.4668744648578	0.459180923403359	-0.510914732604931	0.00694356664150297	0.00119697627730248
0.34	-5.87689899403583	-0.458221834996252	626.329280262972	5.83612011790491	28.4569154436731	0.748992558180984	-0.780244003070408	0.00768732522641058	0.00263855414721953
0.35	-5.64098265949871	-1.02903515002338	630.012282835493	6.2810486405567	29.4931597317646	1.00464831064507	-1.00951958423323	0.00832882133293544	0.00401027095018264
0.36	-5.10919141075214	-1.5552862316317	635.468106135724	6.61598458555997	30.5209967052122	1.17951317015211	-1.1562489091326	0.00877108529618187	0.00522436436408885
0.37	-4.3604647076636	-1.94458012525786	642.440670913917	6.79916876997719	31.490463743889	1.24372664783123	-1.19547749995632	0.00895398152381099	0.00621857845102564
0.38	-3.52820400401709	-2.13025467924515	650.475431567831	6.81719909609001	32.3597164284569	1.19090185967208	-1.12527917492157	0.00886516256621772	0.00696207019682521
0.39	-2.7732979246567	-2.09059269121741	658.96305423357	6.68528188241356	33.0958582696325	1.03901627326396	-0.96643912983091	0.00853910287709891	0.00745329755655921
0.4	-2.24268087734616	-1.85647484962606	667.214341282825	6.44105884320789	33.6735445682177	0.825375207563916	-0.756585152054236	0.00804564179137723	0.00771125031437553
0.41	-2.02613704867399	-1.50471619327015	674.548280377303	6.13439537672168	34.0726143290502	0.597216816972613	-0.540614355760298	0.00747226830957048	0.007763539063872
0.42	-2.12631706405034	-1.13881052947866	680.372850333009	5.81629342591909	34.276336328105	0.400665599687633	-0.360204290404121	0.00690554962890144	0.00763569347001503
0.43	-2.45354435127403	-0.862742111263657	684.242872216988	5.52979194192226	34.2715255487643	0.270990649998718	-0.245215016005203	0.00641643232503752	0.00734523454268671
0.44	-2.84893604243197	-0.755528232259939	685.88840440573	5.30457920788695	34.0509113058956	0.226468741148148	-0.208948896346871	0.00605208884141129	0.0069020151882403
0.45	-3.1295952004306	-0.853574814134966	685.216993165388	5.15557204464743	33.6170660410366	0.266884057244598	-0.247895720842226	0.00583444541070943	0.00631380509725349
0.46	-3.14186489849248	-1.14508050078067	682.299660844069	5.08448508918872	32.986371176725	0.376290475721767	-0.345248566785267	0.00576348565343732	0.00559411855385816
0.47	-2.80582476538338	-1.57675454318428	677.351661755898	5.08282801368535	32.1912505408481	0.528588474772086	-0.476571127941113	0.00582254943633809	0.00476858954884268
0.48	-2.13735013687254	-2.06949496449049	670.715035217953	5.1349349169892	31.2793573736945	0.694023197649663	-0.615760102511054	0.00598327373827701	0.00387699782795803
0.49	-1.24182727855053	-2.53761629224747	662.843302146419	5.22033306897849	30.309393951669	0.844927587324037	-0.739836628881387	0.00620913864303529	0.00296995648295439
0.5	-0.283014683910462	-2.90621574441921	654.28277727273	5.31557820367955	29.34439627372	0.959707501581727	-0.831857926697065	0.00645804107493453	0.00210147887761092
0.51	0.561875985070356	-3.12298434335879	645.642851566269	5.39619426293071	28.4441885324053	1.02485572485919	-0.882011552063781	0.0066851862822489	0.00132025580636785
0.52	1.14654365035987	-3.16326662902812	637.550355993453	5.43931614743263	27.658970918997	1.03536897443359	-0.887445541248806	0.00684746394338409	0.000662870878727462
0.53	1.38683737674353	-3.02936980546938	630.589590921099	5.42709230866738	27.0255574130158	0.994151865009524	-0.851472498440153	0.00690946705543416	0.000151254021938663
0.54	1.27192080768054	-2.74626345025403	625.236939000292	5.35016510390511	26.5668111835222	0.910848850175233	-0.782537811569858	0.00684996285421458	-0.000205149130342475
0.55	0.855476437488717	-2.35572870919624	621.803921370495	5.21002404891003	26.2937178667823	0.800235826552363	-0.692977547934608	0.00666665956210499	-0.000403952733784352
0.56	0.232994287334696	-1.91011478266323	620.402868027489	5.01904295053973	26.2087184477582	0.680069332207929	-0.597354165055424	0.00637709090192495	-0.000443872496805608
0.57	-0.485821051537986	-1.46584295835404	620.944710556284	4.79764001373344	26.3086916824757	0.568305388113591	-0.510200199114973	0.00601449101997475	-0.00032105127801374
0.58	-1.20094459552863	-1.07629667701844	623.170356426329	4.56901966730238	26.5863838882873	0.479878704750651	-0.443310276717693	0.00561927993052247	-2.94240469351226e-05
0.59	-1.83677996234122	-0.784019433388985	626.708440728381	4.35294093216637	27.0299280996525	0.423629974448094	-0.403133185759217	0.00522849941943071	0.000434869138805694
0.6	-2.34657235278472	-0.613020255506714	631.145801298982	4.16046710137681	27.6210090315837	0.400248499800775	-0.389088209759182	0.0048664764477313	0.0010667182809429
0.61	-2.70897568008671	-0.562929971718966	636.094646712928	3.99142694418054	28.3328428374812	0.402053632193558	-0.393569548674429	0.0045396993814073	0.00184561067322692
0.62	-2.92114511748798	-0.607159363000037	641.242432252978	3.83540950437856	29.1292254750564	0.415005206939084	-0.403963317776597	0.00423744343531696	0.00273213199248873
0.63	-2.99243243356938	-0.696698406238751	646.375842020585	3.6758715468043	29.9654668544504	0.422630960062161	-0.406320760670779	0.00393764453813494	0.00366894588678912
0.64	-2.94081846200997	-0.769786307775404	651.377063996556	3.49585891795619	30.7912928705692	0.41085473560659	-0.389679833816374	0.00361571826125584	0.00458624376387468
0.65	-2.79176470056355	-0.765816780569775	656.196761801078	3.28336392820009	31.5550951834633	0.372302583908461	-0.349692136230284	0.00325316951112986	0.00541024773860782
0.66	-2.57743805353951	-0.640217255746067	660.812436312001	3.03463632512027	32.2085269766236	0.308750053755486	-0.290363555074677	0.00284323834128952	0.00607260522420844
0.67	-2.33404151582944	-0.376323803496112	665.182776578696	2.75467891365368	32.7105016756832	0.230949398796833	-0.2233234150638	0.00239223685082024	0.00651862286949656
0.68	-2.09627012855859	0.00917078702818726	669.208415383699	2.45527567770605	33.0300624292105	0.155929905285936	-0.16486978121233	0.00191699306282123	0.00671306100256663
0.69	-1.88996276737747	0.468898000233873	672.707853385572	2.15173800116149	33.1481158934601	0.102668688201583	-0.131768777372782	0.00144016052599227	0.0066432057712883
0.7	-1.72572784702191	0.935000638760375	675.414735368277	1.85978148777814	33.0584016457497	0.0874771083769087	-0.137128522068886	0.000985546126133996	0.00631968799428789
0.71	-1.59674608743793	1.33407591268493	676.999412125153	1.59352555796546	32.7681335200806	0.120389592674593	-0.187508737712153	0.000574990019476362	0.00577574642866902
0.72	-1.48276819707745	1.60292488839912	677.113867391313	1.36480377866728	32.2985021162689	0.203344330760878	-0.281867662289029	0.000227110565011568	0.00506535199199132
0.73	-1.3599635709242	1.70124756356157	675.454765287603	1.18320989017878	31.684821702932	0.330253642862991	-0.412253801715987	-4.29323484228972e-05	0.00426008518534382
0.74	-1.21373672992613	1.61865756709104	671.835040117002	1.05595867026263	30.9757648476461	0.488477782734435	-0.565620850939335	-0.000224014490978974	0.00344426289370209
0.75	-1.05002486093358	1.37521153167381	666.250978335247	0.986859841958041	30.2310455056571	0.660958256895543	-0.725974703816096	-0.000310962704712425	0.00270783421743648
0.76	-0.900653149178844	1.01634780281488	658.930247755795	0.974347439485678	29.5171584672574	0.828378286251632	-0.876261010654878	-0.000307796678183148	0.00213708101218574
0.77	-0.820082419117381	0.604167572134506	650.347780242084	1.00923484300921	28.9012858134441	0.971064934115239	-0.999807763062266	-0.0002311682956605	0.00180398877582971
0.78	-0.873661512978722	0.207203610517307	641.201154098301	1.07331176858899	28.444056024898	1.07070365234272	-1.08151162443392	-0.000112220744167946	0.00175595078126345
0.79	-1.12023699850606	-0.109582306057299	632.344522682153	1.13984884009047	28.1922790635344	1.11210490156421	-1.10910865240319	4.75886201634079e-06	0.00200787791108631
0.8	-1.59371227182816	-0.293450265855813	624.68860241286	1.17654773902287	28.1729327216505	1.08517088568946	-1.07474396935479	6.76132481584046e-05	0.00253860298490921
0.81	-2.28841821624	-0.310542998441618	619.081644502128	1.15068919768021	28.3895060273304	0.986930328786498	-0.97674072227184	2.49422439162483e-05	0.00329271647981794
0.82	-3.15210639653928	-0.150141768081697	616.19073891543	1.03548605546413	28.8213876382059	0.823205273260382	-0.821140906894771	-0.000163671528671805	0.00418787876946219
0.83	-4.08856968138455	0.173838473317777	616.403175029262	0.816192577978589	29.4264537919787	0.609312846345451	-0.622416353648826	-0.000518256169882103	0.00512654245338556
0.84	-4.96994680894941	0.624382341035553	619.764048413471	0.494473002400096	30.1464904793939	0.369278245735009	-0.402813622127845	-0.00103223977921607	0.00601016584161562
0.85	-5.65703316472866	1.14594875804794	625.960027463837	0.089873958041802	30.9146592198948	0.13332991619134	-0.19008400333857	-0.00167112521432511	0.00675355379971143
0.86	-6.02445151138945	1.67168355797118	634.351826427975	-0.362135638119204	31.6639136917538	-0.0661319706005315	-0.0137622406978137	-0.00237663505241981	0.00729693438625117
0.87	-5.98629220061902	2.13241301042964	644.050938513808	-0.815353312900487	32.3351016337527	-0.199488192065426	0.0994340523989629	-0.00307568672373726	0.00761370144901802
0.88	-5.51696526572747	2.46622864094179	654.03040600367	-1.22035744310042	32.8834654286864	-0.244879823221352	0.130225469686816	-0.00369250224226358	0.00771236218046945
0.89	-4.66197299686142	2.6273590985321	663.255054792219	-1.53293389027967	33.2824381321961	-0.192234948539412	0.0704670775907154	-0.00416149848433589	0.00763210553396926
0.9	-3.53465874663988	2.59312567202496	670.813667889322	-1.72179066158241	33.5240707901473	-0.0455066223101764	-0.074884923810719	-0.00443847374747863	0.00743253526691551
0.91	-2.29790896818053	2.36801835138113	676.034235937222	-1.77407439883766	33.6161083706392	0.177376250231925	-0.288003879266523	-0.00450801238273757	0.00717937896606891
0.92	-1.13374342296772	1.98422787546516	678.564376680436	-1.69765581633192	33.5765261847377	0.446893736950355	-0.540637581697522	-0.00438585088615528	0.00692911750479269
0.93	-0.207469676100434	1.49830101405946	678.403080693185	-1.51980694781334	33.4270108815042	0.726252643962264	-0.79833447214085	-0.00411596840732142	0.00671608205070651
0.94	0.364872149804587	0.983992542603761	675.877403135365	-1.28259176764735	33.1871643089631	0.976886339262867	-1.02568157528897	-0.00376313568809938	0.00654528527340059
0.95	0.537649476346939	0.521921735212738	671.567706051036	-1.03587828874004	32.870972753647	1.16420820934642	-1.19163335858265	-0.00340238150951966	0.00639298862913207
0.96	0.34040066077369	0.187287821574854	666.195424996662	-0.829248715098078	32.4863601705112	1.26269632819221	-1.27405549027885	-0.00310721793365654	0.00621502902589405
0.97	-0.134140183310176	0.0375221770345628	660.495294136475	-0.704197048746965	32.0376662873893	1.25954236637224	-1.2628032440581	-0.00293851129297906	0.00596081773048873
0.98	-0.754703710127189	0.102126989615635	655.097127122215	-0.687881305772293	31.529990528264	1.15634699403962	-1.16092952317963	-0.00293566468302164	0.00558935331273147
0.99	-1.3819266947172	0.37684978842388	650.439603974161	-0.789391971414203	30.9738119802547	0.968637767550685	-0.98390938389587	-0.00311136949266677	0.00508304977759477
1	-1.89700664208698	0.823674354971811	646.730800184709	-0.999067694378004	30.3882765955678	0.723294533726776	-0.757043021646225	-0.00345064446518928	0.00445580230768167
1.01	-2.22233362294012	1.37696922973406	643.959548530016	-1.29088862854834	29.8019962694138	0.454274956384979	-0.511448203148742	-0.00391424585765232	0.00375325609658267
1.02	-2.33047759020316	1.95480155661443	641.950832166217	-1.62746567307167	29.2509522818234	0.197313831931327	-0.279267674158591	-0.00444584553700844	0.00304522833295112
1.03	-2.24097230486748	2.47325744777848	640.449654351556	-1.96669293411377	28.7739029749299	-0.0155240603803651	-0.0888678717427102	-0.00498172139057185	0.00241212543792219
1.04	-2.00715030096167	2.86093043156299	639.212794276934	-2.26882974586631	28.4063489561668	-0.16049231724921	0.0391584448738332	-0.00546122200904042	0.00192856122251123
1.05	-1.69734346748459	3.07072221768002	638.087218403755	-2.50271412591183	28.1744647735151	-0.225195648895403	0.0944985743471318	-0.00583610781913058	0.00164795510758015
1.06	-1.37572304441887	3.08673099801955	637.057578774286	-2.65002941715073	28.0904065054722	-0.209517084524801	0.0777433941859399	-0.00607713535290999	0.00159159892103067
1.07	-1.08771942469164	2.92510006293943	636.252454087876	-2.70701927343037	28.1500749708241	-0.124409855092677	-0.000854281068300937	-0.00617691757394356	0.00174462327453367
1.08	-0.853383166632218	2.6289820627916	635.908439850579	-2.68364742063757	28.3338467837438	0.0110074712276066	-0.124057021601525	-0.0061489815867003	0.00205971271647998
1.09	-0.669599885462943	2.25894391451481	636.301012897877	-2.60073840621053	28.6101183246309	0.173280299598551	-0.271043067051123	-0.00602376537907678	0.00246766230449991
1.1	-0.51943408255218	1.88095272205534	637.659146356796	-2.48593807374808	28.940895086643	0.338503936220472	-0.420756566217133	-0.00584276914722814	0.00289233096978631
1.11	-0.38484287250958	1.55440588747434	640.084970444134	-2.36932377994587	29.2882366305685	0.485558013326066	-0.554609256816135	-0.00565207975002491	0.00326658131227708
1.12	-0.258185678493694	1.32247915077634	643.499116427897	-2.27924673799519	29.620221983992	0.59831418136857	-0.658261209323189	-0.00549612252196607	0.00354562391622754
1.13	-0.148570081668017	1.2064487141083	647.62664762971	-2.23868552491086	29.9152520679627	0.666799902164557	-0.722540563928386	-0.00541204290448094	0.00371484257094162
1.14	-0.0808695250977491	1.20475007846366	652.028868700658	-2.26222211956732	30.1639110323156	0.687537426884702	-0.743758872724786	-0.00542487846854067	0.00379050700129063
1.15	-0.0876513631668688	1.29654732588326	656.175089463791	-2.35380595310748	30.3681759981542	0.663315125959563	-0.723670300767156	-0.00554378662773281	0.00381347248306046
1.16	-0.196574490010586	1.44868366390118	659.538427575606	-2.50567157647664	30.5383751797596	0.602519022249522	-0.669148449246222	-0.00575992953104765	0.00383763062513831
1.17	-0.417429328251078	1.62423479124097	661.693610741009	-2.69892226601384	30.6888160666275	0.51797600435359	-0.591443300803961	-0.00604687433125761	0.003916119801468
