Time [s]	GRFml [N]	GRFap [N]	GRFv [N]	Mml [N.m]	Map [N.m]	Mv [N.m]	Mfree [N.m]	COPml [m]	COPap [m]
0.01	-2.11592942382787	1.40373706910129	749.573632815713	13.2731662070092	16.9444291377226	0.834804337368433	-0.903993412341816	-0.000740440408611542	-0.00422854120286131
0.02	-2.07284745459916	1.35362090867187	751.232550519086	13.3943834418497	16.91616759124	0.806386473232054	-0.873806648213213	-0.000617366372061556	-0.00431661426172042
0.03	-2.0586277872391	1.31168315436819	752.826557434691	13.5026708623051	16.898165489752	0.78187376084802	-0.848216813756888	-0.00051008210740322	-0.00438903099853544
0.04	-2.09631415461357	1.28331247529132	754.300041353556	13.5888282042906	16.8990540177074	0.764793581091189	-0.831282422668955	-0.000429615856522347	-0.00443259155899245
0.05	-2.1925487362894	1.26991894327318	755.595040440368	13.6487164594032	16.9222325362091	0.757715444566269	-0.825724736055576	-0.000380159389565593	-0.00444100631393707
0.06	-2.33497127982941	1.26865376041999	756.652308524125	13.683525329868	16.9647925200682	0.76191601593812	-0.832538290816731	-0.00035872683252991	-0.00441636386924071
0.07	-2.49505654353501	1.2735282668618	757.416381996403	13.6984030606742	17.0180850624803	0.777190399061587	-0.850874869793118	-0.000357100615199557	-0.00436852713783398
0.08	-2.63527396737183	1.27754250218879	757.84356632016	13.7000553168461	17.0697125316836	0.801836681917176	-0.878200586694266	-0.000365230563980634	-0.00431271733449412
0.09	-2.71838041794979	1.27512733641045	757.911139493187	13.6942692389457	17.1063969868441	0.832830462130077	-0.910689740636829	-0.000374769479542181	-0.00426596446716743
0.1	-2.71635147063387	1.26413689390828	757.62583806067	13.6842704162717	17.117028227223	0.866191388214973	-0.943796962456271	-0.000381485690650551	-0.00424329589581124
0.11	-2.61685285526844	1.24678699935705	757.02960477781	13.6704192133247	17.0952189608911	0.897519602556925	-0.972934574963721	-0.000385824819189473	-0.00425449964961877
0.12	-2.42599664613665	1.22925368586639	756.200641680794	13.6511908162168	17.0408463813696	0.922644561212126	-0.99416763438413	-0.000391643711658451	-0.00430209912573992
0.13	-2.1671055547226	1.22003132819792	755.248232633375	13.6248996398153	16.9602813277598	0.938289076243255	-1.0048247674889	-0.000403795479203328	-0.0043808923627352
0.14	-1.87606508917244	1.22750200848215	754.300785662424	13.5914026815851	16.8652545291348	0.942623477502378	-1.00391805954545	-0.000425571562470917	-0.00447910664129403
0.15	-1.59442891592638	1.25739267658489	753.488100387817	13.5531025383553	16.7705584532954	0.93558634273108	-0.992282998013678	-0.000456931434708818	-0.00458093250739078
0.16	-1.36172006410544	1.31083143594477	752.920665760819	13.5148963029214	16.6910134056498	0.918888479456012	-0.97239667181165	-0.000494061482276154	-0.00466994764474149
0.17	-1.20837560111185	1.38354996436082	752.670240591681	13.4831307428433	16.6383082637048	0.89568857099684	-0.947901878280229	-0.00053028778395825	-0.004732742503542
0.18	-1.15057532821157	1.46646739384872	752.756420102941	13.4639683889633	16.6184138290529	0.87000930431224	-0.92293547323845	-0.000557919035069632	-0.00476195810573748
0.19	-1.18782640755168	1.54752472542074	753.142964756261	13.4617347780951	16.6302099773541	0.846023401082522	-0.901405416605742	-0.000570351936234559	-0.00475799691399065
0.2	-1.30368206034364	1.61431727539349	753.745473430554	13.4777734404112	16.6657389817329	0.827359335155673	-0.886364871976631	-0.000563776101783153	-0.00472890890627936
0.21	-1.46939748368992	1.65687214379256	754.449133107775	13.5101259538302	16.7121201559012	0.816553607070501	-0.879593027503117	-0.00053802564698735	-0.00468837262981286
0.22	-1.64974891765626	1.66988018381367	755.132652022222	13.5540708636772	16.754721399266	0.814724599593318	-0.881428033761066	-0.000496439212099631	-0.00465219606007305
0.23	-1.80978471094055	1.65382627162842	755.692878033051	13.6032993425954	16.7808118512264	0.821485339965192	-0.890833470285212	-0.000444892197494995	-0.00463420500910983
0.24	-1.92107841834037	1.61474407046364	756.064441853975	13.651354421413	16.7827473178889	0.835069156154377	-0.905638552957827	-0.000390361429302044	-0.00464260781228309
0.25	-1.96620819928474	1.56268979045583	756.230010388426	13.692944773438	16.7598441233814	0.852622196386157	-0.922883319382168	-0.000339432415830898	-0.00467782143690043
0.26	-1.94068377375872	1.50938303887112	756.219000775719	13.7248430156049	16.7184642146827	0.870616036367851	-0.939216732069839	-0.000297081228806784	-0.00473232348312602
0.27	-1.85224211374433	1.46568516010067	756.095332239964	13.7462362410383	16.6703559901271	0.885339652598958	-0.951320154339173	-0.000265918614172356	-0.00479248488931105
0.28	-1.718104559346	1.43958979114418	755.937390912022	13.7585486740145	16.6298013760231	0.893429866771227	-0.956341491456869	-0.000245944783787255	-0.00484174699312362
0.29	-1.56119985392288	1.43517716306471	755.815296600201	13.7648584055071	16.6104396460945	0.892386717329189	-0.952315528769089	-0.000234774964911311	-0.0048641422852021
0.3	-1.40638071135278	1.45261791075818	755.771315183804	13.7690723753408	16.6226654835731	0.880999471541877	-0.938517499165474	-0.000228259107666107	-0.00484714703084044
0.31	-1.27732985236065	1.48895319079067	755.808560328501	13.7750252785847	16.6722311795095	0.859594058071159	-0.915667659355403	-0.000221401052405756	-0.00478318852085635
0.32	-1.19434838139566	1.53917338038532	755.891003657324	13.7856557274586	16.7602263745093	0.830020851813151	-0.885898808840277	-0.000209447785860517	-0.00466967069535695
0.33	-1.17279416060308	1.59714417612987	755.954728564626	13.8024001162558	16.884136866358	0.795344179576409	-0.852433923472969	-0.000188961808070376	-0.00450791363376263
0.34	-1.22178970178917	1.65615551934937	755.9271806753	13.8249239775205	17.0393709715665	0.75926807914653	-0.81899684862541	-0.000158639791545734	-0.00430172030158754
0.35	-1.34300244562226	1.70917158618177	755.748901635639	13.8512644476468	17.2205942281138	0.725415645681917	-0.789072307039347	-0.00011964696130784	-0.00405627767262495
0.36	-1.52969527790786	1.7490811872365	755.39166728277	13.8783756929798	17.4224275147409	0.696639413130622	-0.765204002909588	-7.53314064663169e-05	-0.00377779709481435
0.37	-1.76661052526955	1.76927093387819	754.868289057134	13.9029627505266	17.6394300970398	0.674547967498534	-0.748534383787988	-3.03560692952454e-05	-0.00347385229400754
0.38	-2.03133904762051	1.76465162335052	754.232067511673	13.9223907783048	17.8656402856803	0.659377450870481	-0.738729725970639	1.05173631179678e-05	-0.00315398929965732
0.39	-2.29751078160186	1.7329566632707	753.566972519418	13.9354077626779	18.0941318049183	0.650230012623564	-0.734313837704312	4.36193770586568e-05	-0.00283002926792053
0.4	-2.53949627903814	1.67586398312156	752.971945335407	13.9424504917709	18.3169962679942	0.645581635387813	-0.733295259880041	6.71518362161949e-05	-0.00251561838953879
0.41	-2.73758766868751	1.59941998362502	752.543552169024	13.9454198213017	18.5259236438584	0.643874563196417	-0.733870383109386	8.13036428906067e-05	-0.00222492121790802
0.42	-2.88216932824009	1.51342192064109	752.360535604111	13.9469812339439	18.7132493696444	0.643989480674831	-0.734960813521092	8.76933419753367e-05	-0.00197073690232452
0.43	-2.97545686573942	1.42977376769271	752.472218805735	13.9496124600797	18.8731136130104	0.645448265384283	-0.736409425339123	8.83872022031662e-05	-0.00176256846177469
0.44	-3.03003369056556	1.36020901988315	752.891123395673	13.9547167747326	19.002328283818	0.648307669329279	-0.738790917961943	8.49073344184603e-05	-0.00160519701885398
0.45	-3.06444758514706	1.31400276522695	753.589308163354	13.9621046438632	19.1006730414863	0.652823992334989	-0.742937584430915	7.76424709474366e-05	-0.00149812462544197
0.46	-3.09715755115887	1.29628057874364	754.498064483025	13.9700175078451	19.1705641932046	0.659051519168883	-0.749382528891235	6.58984838542986e-05	-0.00143596134168195
0.47	-3.14073037992086	1.30729504871546	755.511390138485	13.9756741145054	19.2162502479537	0.666552400315808	-0.757942753294259	4.85491931419002e-05	-0.0014095789106488
0.48	-3.19812103639561	1.34270055354995	756.494417557152	13.9761396791356	19.2428019175549	0.674340653295499	-0.76759956889168	2.499069646833e-05	-0.00140772274010059
0.49	-3.26214906137121	1.3945652043383	757.297993821245	13.9692222390138	19.2551603724694	0.681083929861678	-0.776713884600521	-4.02433603519103e-06	-0.00141877357131887
0.5	-3.31818925378332	1.4527280925618	757.779520876084	13.9541200876679	19.2574211127327	0.685484897106883	-0.783488601385701	-3.60418446204713e-05	-0.00143242229307744
0.51	-3.34905196330586	1.50616621645764	757.828109711934	13.9316592334298	19.252423532258	0.686698220576159	-0.786506835851353	-6.72158572490034e-05	-0.00144109056801273
0.52	-3.34041342188425	1.54421551932661	757.389743815397	13.9041142672071	19.2416383213804	0.684630471364614	-0.785159549635962	-9.31731834923344e-05	-0.00144095291143181
0.53	-3.28514794242774	1.55767873797389	756.4864503791	13.8747369879933	19.2253124405678	0.680016720022148	-0.779827480487243	-0.00011011850140441	-0.00143240373963976
0.54	-3.18543824690432	1.53993793988283	755.223348343306	13.8471815901937	19.2028274116133	0.674247722428693	-0.771774303243721	-0.000115776741964502	-0.00141981813580971
0.55	-3.05233525889018	1.48811755123558	753.779336929707	13.8250018197253	19.1732198107807	0.669005153170354	-0.762804089035281	-0.00010983482214344	-0.0014105332130524
0.56	-2.90318812463745	1.40414572142215	752.380856291786	13.8113218905363	19.1357820319351	0.665821510944934	-0.75480358134931	-9.37333529852369e-05	-0.00141314588033736
0.57	-2.75783578191344	1.29534638194771	751.262634558892	13.8086849781632	19.0906120634974	0.665699055996202	-0.749310123318983	-6.98995518256806e-05	-0.00143544158085446
0.58	-2.63456897031963	1.17410095846122	750.623252647521	13.8190016386588	19.0389449210213	0.668895942858809	-0.747219169231574	-4.07171426638486e-05	-0.00148244780614998
0.59	-2.54671069635718	1.05625095399613	750.585393120394	13.8434881271899	18.9831159377429	0.674929348088497	-0.748687189145274	-7.62225954820117e-06	-0.00155514806459839
0.6	-2.50037084142949	0.958277574806859	751.170034650356	13.8825138638644	18.9260994936819	0.682776646193651	-0.753221207611959	2.93387152758839e-05	-0.001650242693441
0.61	-2.4936355219878	0.893779365448483	752.29070817707	13.9353540761488	18.8707181694723	0.69120048247241	-0.759898554432831	7.13317114933165e-05	-0.00176103104048642
0.62	-2.51721038651326	0.870172677351419	753.769169999112	13.9999306502798	18.8187679741079	0.699098769108208	-0.767642172042535	0.000120011959198751	-0.00187912589831812
0.63	-2.5563392422625	0.886656816875794	755.368876640202	14.072676904821	18.7703806732674	0.705789594085081	-0.775485690922729	0.000176521542704866	-0.0019964430297682
0.64	-2.59363713251864	0.934206717534388	756.838840963508	14.1486511899692	18.7238942383672	0.711173787990084	-0.782784940612502	0.000240554071416321	-0.00210684924054683
0.65	-2.61231329088211	0.997739589038415	757.958689036637	14.2219530737185	18.6763334655785	0.71575739293358	-0.789353087282283	0.000309784126700019	-0.00220702226756636
0.66	-2.59916238527421	1.05987075567773	758.576180198852	14.2863991493526	18.6243807516842	0.720547175031254	-0.795506562600288	0.000379822451663236	-0.00229639131395332
0.67	-2.54673559060239	1.10512470792102	758.630618221413	14.3363391042322	18.5655365036359	0.726847533226778	-0.802010281340829	0.00044470509841732	-0.0023763448204806
0.68	-2.45429522326257	1.12333455411898	758.158675724	14.3674659110894	18.4991057477737	0.735989601522727	-0.809912951204584	0.000497813469477526	-0.00244908260375376
0.69	-2.32746822684611	1.1113031400435	757.282442904827	14.3774933485199	18.4267226997347	0.749022657877036	-0.820276937161343	0.00053306550698573	-0.00251649967937789
0.7	-2.17684250757836	1.07246008654456	756.182529917451	14.3666105701622	18.3522967014151	0.766403820092926	-0.83383596492634	0.00054618960576891	-0.00257935842867762
0.71	-2.01597695424218	1.01494338546179	755.061557109484	14.3376482032162	18.2814523781137	0.787737140141205	-0.85065098696584	0.000535860720193182	-0.00263683165693562
0.72	-1.85934461451542	0.948978039052067	754.105134611225	14.2958983089832	18.2206687690404	0.811629937481003	-0.869863427914473	0.000504442463622801	-0.00268637621285744
0.73	-1.72060350920501	0.884468903370618	753.448108799406	14.248543312682	18.1763573762004	0.835737440514801	-0.889647042003949	0.000458078380475957	-0.00272386779451067
0.74	-1.61137022061618	0.82941433184858	753.153026929464	14.2036960422011	18.1540651751437	0.857042539369391	-0.907423467713761	0.000405959358483976	-0.00274397027826645
0.75	-1.54046518920062	0.789275940020786	753.205252339076	14.169143922061	18.157887469673	0.872362426275197	-0.920336006146398	0.000358779337521375	-0.00274076586235267
0.76	-1.51348507943771	0.767042876362478	753.525275237581	14.1510006261655	18.1900786555211	0.879000589805596	-0.925891073517491	0.000326636525865176	-0.00270867669536629
0.77	-1.53255632673809	0.763566600724736	753.994430855277	14.1525487279377	18.2507957111219	0.875396430408504	-0.922606879029648	0.000316852887476959	-0.00264364104598813
0.78	-1.59620056333853	0.777836119359296	754.486750127465	14.1735596032798	18.3379148878503	0.861594392837283	-0.91048261558645	0.000332275070480281	-0.00254438801731888
0.79	-1.69933861302002	0.807108828008805	754.898223040959	14.2102835504802	18.4469173058148	0.839379723970097	-0.89113470185008	0.000370531079222358	-0.00241353512811038
0.8	-1.83352430100811	0.847046496678662	755.165947833171	14.2561363555973	18.5709155850187	0.812009510787929	-0.867535038151639	0.000424464570105143	-0.00225817017182112
0.81	-1.98750684874184	0.892097466923372	755.273163606582	14.3029235054337	18.7009525254823	0.783583770522612	-0.843404311514933	0.000483634285953993	-0.00208961471680047
0.82	-2.14817323955163	0.936274187352405	755.240849276424	14.3423045302564	18.8267069472147	0.758213378959033	-0.822421574318621	0.000536465266314234	-0.00192221327873626
0.83	-2.30184182634269	0.974260210268914	755.110781831212	14.3671552972039	18.9376698586633	0.739207969753589	-0.807470171708008	0.00057247528744786	-0.0017712245256809
0.84	-2.43579473966049	1.0025635056497	754.927193346545	14.3725479497028	19.0247135058825	0.728500490584297	-0.80012623491601	0.000584027673882881	-0.00165015020658543
0.85	-2.53987152493198	1.02032874309603	754.72369554775	14.3562097294236	19.0818059226194	0.726445828656006	-0.800512792649674	0.000567262490149045	-0.00156804661550791
0.86	-2.60790656651976	1.02948456908932	754.519244488212	14.3184877099723	19.1074851794276	0.732007224110608	-0.80751999775204	0.000522150560982482	-0.00152745108976071
0.87	-2.63877212507911	1.034107915174	754.32282138002	14.261973962188	19.1056610343958	0.743221752243179	-0.819274851906187	0.000451884855296347	-0.00152348262355345
0.88	-2.63678303744296	1.03915218592182	754.142873566734	14.1909898584814	19.0853933043403	0.757759556218069	-0.833674342068225	0.000361970614835005	-0.00154444831630346
0.89	-2.61124374535756	1.04890928305092	753.995821825224	14.1110808305746	19.0595025679914	0.773386872816114	-0.848797767290924	0.000259353572177878	-0.00157395798805166
0.9	-2.57501145115394	1.06567950829918	753.90871849746	14.0285674499492	19.0421551898832	0.788208281776525	-0.863083965833747	0.000151764917188268	-0.00159419746482969
0.91	-2.54214691803868	1.08907617285697	753.914015295679	13.9500966242759	19.0458569783396	0.800670448515193	-0.875268471148895	4.72552104942014e-05	-0.00158972077139319
0.92	-2.52501611549565	1.11620807874299	754.038103105388	13.8820978203895	19.0785042570537	0.809414293879108	-0.884181017109474	-4.6251779219797e-05	-0.00155096134911431
0.93	-2.5315015922066	1.14271469940024	754.288245582359	13.8300996853971	19.1412067562564	0.813123647835862	-0.88856367055412	-0.000121557339295864	-0.00147667382695599
0.94	-2.56313001545552	1.16435051138002	754.643522299297	13.7979777288626	19.2274760715271	0.810512996992111	-0.887060232160041	-0.000172978644370381	-0.00137470955285857
0.95	-2.61478442484816	1.17860948026623	755.054054409382	13.7873185345252	19.3240777608503	0.800528552569883	-0.87845146864909	-0.000197185467627814	-0.00126087377955336
0.96	-2.6762214989491	1.18582197650019	755.449714364269	13.7971279188855	19.4134394170564	0.782733487894529	-0.862097382642902	-0.000193805336772601	-0.00115604466968672
0.97	-2.73499384174002	1.18928589483065	755.756015042079	13.8240407325479	19.4770992368136	0.75775063253639	-0.838441417258842	-0.000165528750349919	-0.00108215499405961
0.98	-2.77984331227245	1.19429624947357	755.912335025004	13.8630282194544	19.4993919531582	0.727582411823307	-0.809374976737653	-0.000117602390708682	-0.00105793235987012
0.99	-2.80343644721959	1.20632852138505	755.886979335347	13.9084167419632	19.4704969218586	0.69564054995125	-0.778278914924017	-5.68274708061534e-05	-0.00109536796248894
1	-2.8035663905212	1.22897181456582	755.684877567537	13.9549173288383	19.3881470247996	0.666395711068596	-0.749649258802838	9.63411397936209e-06	-0.00119769987041474
1.01	-2.78254667936709	1.26235365635211	755.346281797507	13.998376495887	19.2576653015995	0.644675480870143	-0.728347727731229	7.52957669217791e-05	-0.00135929897017928
1.02	-2.74520548907228	1.30266470745393	754.937557478577	14.0360901532583	19.0904406692026	0.634758171557914	-0.718646765292372	0.000134984752169998	-0.00156735267651309
1.03	-2.69635869203299	1.34300719261839	754.537102615083	14.0667081037631	18.9013337156239	0.639487865532992	-0.723316745112526	0.00018504678546527	-0.00180480633647223
1.04	-2.63871603170063	1.37530077081887	754.220120446075	14.0899046645138	18.705707860237	0.659643670207757	-0.743000415882055	0.000223263214150227	-0.00205377448747424
1.05	-2.57187028704881	1.39258790734306	754.045511189491	14.1060332470768	18.5167694046982	0.693728731493974	-0.776036984465265	0.00024869640778058	-0.00229863098166694
1.06	-2.49251633064141	1.39095394898774	754.047011884152	14.115911384403	18.3437096701143	0.738225246037645	-0.818766112826309	0.000261611383884142	-0.00252819569787688
1.07	-2.3955896346312	1.37045998587394	754.229437384423	14.1207512506271	18.190865195188	0.788232871853745	-0.866208765908294	0.000263475787465328	-0.00273675467999651
1.08	-2.27578525626402	1.33488162848808	754.56982162735	14.1221404565656	18.0578503422676	0.838314035795041	-0.912933074240208	0.000256916249040118	-0.00292395842549142
1.09	-2.12896442058135	1.29046968098256	755.022540887619	14.1219495715838	17.9404424536045	0.883339183332092	-0.953894172392758	0.000245485982105498	-0.00309384952274433
1.1	-1.95318608007356	1.24422634892659	755.527075005714	14.1221031097766	17.8319327885378	0.919160205730235	-0.985083554117946	0.000233187204351726	-0.00325334787191039
1.11	-1.74935507986744	1.20224303820032	756.016870668871	14.1242528663688	17.7246704692249	0.943018954468933	-1.0039085056393	0.000223832320554562	-0.00341050095986545
1.12	-1.52161531043677	1.16850683439648	756.427826015728	14.1294685392282	17.611574319705	0.953685382603374	-1.00930903500455	0.000220429045443615	-0.00357274930896212
1.13	-1.27757795725567	1.14435745713333	756.705265445708	14.1380639168194	17.4874300676588	0.95138468352103	-1.00167802580383	0.000224773136579759	-0.00374541480412383
1.14	-1.02830644732221	1.12857205423323	756.808886932364	14.149608871961	17.3498158959024	0.937597300949898	-0.982666134840749	0.000237329885104609	-0.00393060667530382
1.15	-0.787800337283189	1.11793147759415	756.715856280331	14.1630829724426	17.1995223440988	0.914800761325233	-0.954931086687587	0.000257345531475273	-0.0041267317577684
1.16	-0.571666184260043	1.10808281365214	756.422696541889	14.1770646922773	17.040378883306	0.886184387950719	-0.921850882002748	0.000283037324451785	-0.00432874944957662
1.17	-0.394820566872644	1.09452987037004	755.946619730218	14.1898581719314	16.8784860800442	0.855331203166185	-0.88718719961629	0.00031172126329182	-0.00452919754044134
