Time [s]	GRFml [N]	GRFap [N]	GRFv [N]	Mml [N.m]	Map [N.m]	Mv [N.m]	Mfree [N.m]	COPml [m]	COPap [m]
0.01	-2.58707789913499	-0.623071174156072	640.98638678083	-0.990728131703543	50.9615283684385	0.094773586280699	-0.0415179966604774	0.00303530797781937	0.00881762173404255
0.02	-2.24531682079195	-0.496966935403995	642.34586924734	-0.899591242835823	50.9325092432018	0.12382462967588	-0.0811735112545186	0.00317768512388439	0.00860464084446066
0.03	-1.89288592553223	-0.382373699881349	643.540232921618	-0.791779883050991	50.879799217292	0.150073692627088	-0.117134828424643	0.00334579092806286	0.00837510596613228
0.04	-1.5273363817548	-0.288505286285595	644.425622547477	-0.654383720487169	50.7850321703257	0.171881178125398	-0.1470452719499	0.00355951848294889	0.00811808092171784
0.05	-1.16245992559202	-0.22023969757783	644.906225815165	-0.486806532180127	50.6391816546823	0.188778079377422	-0.170035631177141	0.00381965852742361	0.00783119911697611
0.06	-0.827274798405163	-0.177444946051145	644.948914562503	-0.302388538486383	50.4440685973101	0.201437145529109	-0.186746972499014	0.00410539322781145	0.00752122400417404
0.07	-0.558337330151073	-0.155605522191657	644.587310629162	-0.125717340120152	50.2113336046224	0.211208836783535	-0.198825236917877	0.00437848699143273	0.00720199469242455
0.08	-0.388643295186373	-0.147450271412332	643.914166402325	0.0133270148731121	49.9594192884922	0.219385600618492	-0.208071248443991	0.00459254703351286	0.00689072587669043
0.09	-0.337429394793302	-0.145025104367823	643.063439057091	0.0868867816741067	49.7095415531858	0.226474107838898	-0.215564836787957	0.00470438947099505	0.00660399306831599
0.1	-0.404406457733531	-0.1416090069172	642.18583693608	0.0757224580777823	49.4817015914102	0.231762985366745	-0.221093862865215	0.00468427941734018	0.00635455488794945
0.11	-0.569930400869403	-0.133012236267582	641.423034910606	-0.0265205851997145	49.2915528361906	0.233367905725854	-0.223103971983573	0.00452254215434422	0.00614963021456527
0.12	-0.80031517047676	-0.118034160999353	640.885684536876	-0.212119491892751	49.1485331684919	0.228759637384983	-0.21919173582243	0.00423138928603317	0.00599064120635245
0.13	-1.0558366594014	-0.0981008973356396	640.638899242473	-0.46097332339559	49.0552724401329	0.215605171999293	-0.206970517704426	0.0038422457008257	0.00587399942065736
0.14	-1.29850143007482	-0.0762890051024348	640.696735146336	-0.744331587617647	49.0080202253521	0.192645247704359	-0.185017423795486	0.00339992335781769	0.00579237139524602
0.15	-1.49735960802148	-0.0560528786108417	641.025161387212	-1.02942512988219	48.9977588302483	0.160329261149446	-0.15359855231053	0.00295539963774338	0.00573598505058226
0.16	-1.63056905480924	-0.0400154888735936	641.551722173308	-1.28401407559898	49.0117341153912	0.121021777602646	-0.114959499425452	0.00255873835228182	0.00569379711023216
0.17	-1.68488486663913	-0.0291575847899861	642.179641819093	-1.48024971698453	49.0352551758778	0.0787384566956184	-0.0731136615457526	0.00225309539123231	0.00565457321306773
0.18	-1.65413834050991	-0.0226405189614395	642.804184227579	-1.59764395557818	49.0536808393557	0.038505346670675	-0.0332051459837214	0.00207013000134626	0.00560801952295048
0.19	-1.5382716023312	-0.0183185775172823	643.329196591495	-1.62517180048017	49.054470665254	0.00551942366355775	-0.000621407767011007	0.00202677674612295	0.00554601851413594
0.2	-1.34370395010592	-0.0137659291458355	643.681711148872	-1.5625422011696	49.0290512843487	-0.0156957808210981	0.0199351936407414	0.00212331336189031	0.0054638247073876
0.21	-1.08466195917049	-0.00743239930585009	643.822388787812	-1.42053472662989	48.9741229385561	-0.0219843335808446	0.0252304261997272	0.00234287217926055	0.00536088885469344
0.22	-0.784187024856006	0.00055417565397927	643.749850415434	-1.22016660363378	48.8920144972499	-0.0120107552863644	0.0140068584557322	0.00265275184595637	0.00524092375295521
0.23	-0.473304743244351	0.00833246816141531	643.497876787929	-0.990469280547891	48.7898562284072	0.0135583428008243	-0.0128413559147486	0.00300786908080253	0.00511096795543969
0.24	-0.187441063482502	0.0131197358315037	643.126030075627	-0.764873113963305	48.6776598780157	0.0521308315937122	-0.0524217077702828	0.00335635615903696	0.00497951914603001
0.25	0.0396471666708716	0.0126466984386861	642.70599322591	-0.576564799635939	48.5657659667407	0.0994871833395403	-0.10026593864112	0.00364674640556839	0.00485418135243137
0.26	0.182922683770864	0.00666451775820346	642.307128841497	-0.453549741591672	48.4623823526626	0.15025259629575	-0.150928891015921	0.0038356204329526	0.00473953984438519
0.27	0.231874130424994	-0.00212736171268232	641.984845764909	-0.414358696864644	48.3719654976457	0.198491297747441	-0.19865937890481	0.00389426143913829	0.00463601052113349
0.28	0.19300431719787	-0.00821132553282977	641.774206986223	-0.465281860327842	48.294947168622	0.238370521143004	-0.238053092998252	0.00381294981573543	0.00454016035988036
0.29	0.0879322402164874	-0.0045231497581805	641.689264538344	-0.599696337241823	48.2288606206236	0.264842179687313	-0.264630302187239	0.00360201456936415	0.00444652771834247
0.3	-0.0524794874588442	0.015516169424967	641.726690916413	-0.799578775370913	48.1704344911121	0.274287163525276	-0.275315118814359	0.00328949231784759	0.00435044175249272
0.31	-0.196183478889243	0.0559291274034603	641.871191307499	-1.03882120989092	48.1178818714133	0.2650552368688	-0.268807728087786	0.00291598056433862	0.00425093788315628
0.32	-0.31766562364717	0.116854786499731	642.100302609329	-1.2876375862706	48.072543951522	0.237813877446859	-0.245825619475346	0.00252778854479219	0.00415274530600473
0.33	-0.402976005443462	0.194496080225512	642.387297535122	-1.51723412164115	48.0392773000864	0.195605142945737	-0.209154649506804	0.00216967088483533	0.00406654766433345
0.34	-0.450752472478835	0.282393325405783	642.702351918315	-1.70400424220515	48.025418385255	0.143522806871571	-0.163425367550794	0.00187829690470376	0.00400723883950338
0.35	-0.469395018724655	0.373563772282786	643.013159193932	-1.83271845402578	48.0386621890142	0.0879809046697387	-0.114547980827819	0.00167728419834112	0.00399055713738972
0.36	-0.471920109102484	0.462706503775552	643.286344694844	-1.8984117611167	48.0845807224319	0.0356484475460197	-0.0688160701579691	0.00157426316406795	0.00402906620693144
0.37	-0.470768940541316	0.547638405071754	643.490383495431	-1.90685281149479	48.1646489209895	-0.00775482263251715	-0.0318073469276887	0.00156015423739031	0.00412874810071068
0.38	-0.474673898321904	0.629411576631965	643.599703403923	-1.87358912692488	48.2754877797637	-0.0385183527778087	-0.00732210978690668	0.00161066535890264	0.00428734934837727
0.39	-0.488656062969777	0.711053751836023	643.598838913419	-1.82163293951618	48.4096232327992	-0.0555636076259286	0.00334969185528663	0.00168990634726096	0.00449507701896834
0.4	-0.516725686311621	0.795384832571143	643.485302566458	-1.77794085811559	48.557526581683	-0.0604282648245804	0.00159091982705722	0.00175587895014262	0.00473743613797967
0.41	-0.565494096779846	0.882706094183283	643.27030832437	-1.76899509391199	48.7102300187613	-0.0565838472780075	-0.00904671751259326	0.00176736241247	0.00499920971396139
0.42	-0.646280580892831	0.969211961989756	642.977312040609	-1.81601514562012	48.8615723745033	-0.048260278844025	-0.023910266974149	0.00169137177675505	0.00526811438366398
0.43	-0.773756918770893	1.04672548569995	642.639048071566	-1.93055692883798	49.0092279225123	-0.039110259901735	-0.0385910260767631	0.00151001140757567	0.00553673425612733
0.44	-0.960627451568681	1.10390885024621	642.293955614817	-2.11138806182408	49.1540913076956	-0.0311066518814459	-0.050160978973746	0.00122533961915416	0.00580196661051446
0.45	-1.20975858867237	1.12862231609322	641.982538491125	-2.34346060761723	49.2981993144475	-0.0240043801116843	-0.0579321741730356	0.000860962669482324	0.00606220210262542
0.46	-1.50674819007836	1.1107705753108	641.74358814619	-2.59948539482974	49.4419493374332	-0.0155329144293888	-0.0635078871205041	0.000459568596438809	0.00631343631291292
0.47	-1.81642044678982	1.04488233224719	641.60981654042	-2.84408186125148	49.5817042493263	-0.00226688726189541	-0.0701079133169538	7.64381772512257e-05	0.00654606592794393
0.48	-2.08579630704458	0.931805792410347	641.602676085567	-3.0398603653808	49.7088125458242	0.0190837302312749	-0.081374377475339	-0.000230064169459476	0.0067439966635065
0.49	-2.25395779404257	0.779172965410379	641.72699009837	-3.15427071076782	49.8106195818536	0.0503554907491372	-0.100028699648807	-0.000409195272192742	0.00688687988862569
0.5	-2.26666315323683	0.600572773443887	641.967038947364	-3.16579451022787	49.8733485210668	0.0909963179154074	-0.126801514030281	-0.000427505417145313	0.00695508549466034
0.51	-2.09158248557686	0.413605247460031	642.286264086073	-3.06816907184504	49.886036980029	0.137819712630141	-0.159975626351439	-0.00027542025859173	0.00693587908761845
0.52	-1.72943352446837	0.237160402776766	642.632217744396	-2.87178757303506	49.844283799898	0.185550855389043	-0.19568930841866	3.06073724942735e-05	0.00682866651967828
0.53	-1.21738847493084	0.088401337695584	642.946736525465	-2.60208828287267	49.7525541928968	0.228021308149815	-0.22890306816248	0.000450664031987236	0.0066473602333309
0.54	-0.623506758203005	-0.0199662539436555	643.179107821861	-2.29542080079939	49.6242176021225	0.259658595542685	-0.254718370967903	0.000927885037976806	0.00641885265687325
0.55	-0.0337250922534601	-0.0815355766822197	643.298225518128	-1.99336541265776	49.4791993436534	0.276815619730227	-0.269626329693301	0.00139736305939442	0.00617789551649428
0.56	0.464921085250061	-0.0966827346916173	643.29938737487	-1.736667458143	49.3398663434199	0.278533681972936	-0.272297743958979	0.00179562396807842	0.00595987522913605
0.57	0.800384976378219	-0.0715427327421584	643.202927430246	-1.5598283049922	49.2262911434476	0.266519550323758	-0.26369010199304	0.00206903613295994	0.00579360350614649
0.58	0.92725717323064	-0.0157623686570169	643.044884810953	-1.48706203413004	49.1521881603823	0.244376456811633	-0.246480743093238	0.00218005419570955	0.00569611291497429
0.59	0.831996116746737	0.0602883927790923	642.863171849569	-1.52992534099807	49.1225690066366	0.216368212061605	-0.224053543157878	0.00211084016680085	0.00567066992838511
0.6	0.531803330774523	0.147981663303899	642.684731911585	-1.68659068214619	49.1336248382546	0.186131949163378	-0.199395579004479	0.00186433842521483	0.00570813550926491
0.61	0.0687688728804929	0.24183690190542	642.518939079133	-1.94253694849775	49.1746969628773	0.15574762930004	-0.174264436166882	0.00146318156137104	0.00579082532420289
0.62	-0.498436094915019	0.339531907129494	642.359955429148	-2.27238244031192	49.2316384122508	0.125434250978903	-0.148876188233903	0.000946864954401661	0.00589745721232826
0.63	-1.10329314929485	0.440701119049933	642.196946218985	-2.64262672886928	49.2905495857048	0.0939286823588462	-0.122183712314127	0.000367541482271583	0.00600773478025779
0.64	-1.6793627824017	0.545124957073712	642.027571421909	-3.01512195653396	49.3408606600327	0.0593854617712219	-0.0926247829479368	-0.000215313736887435	0.00610551867343206
0.65	-2.16701038784811	0.65108253288739	641.868509193096	-3.351096061563	49.3770121901021	0.0204796730722968	-0.0590747611147045	-0.000741127372861583	0.00618017146993999
0.66	-2.5190374057964	0.754508937142195	641.75764974357	-3.61547679083344	49.3984551270695	-0.0226586825121075	-0.0216782009192771	-0.00115497571037915	0.00622628801932218
0.67	-2.70533395376805	0.849244603677615	641.745719352559	-3.78113704340119	49.4082063148787	-0.0679907578651324	0.0177273790113896	-0.00141427068012301	0.00624244965028764
0.68	-2.7163209994344	0.928244325317322	641.87926816902	-3.83255039900147	49.4106030030284	-0.111754053824255	0.0557546310039601	-0.00149456891212174	0.00622977304895939
0.69	-2.56454430290359	0.985289205522198	642.180601154076	-3.76827205246547	49.4090848815792	-0.149243853595506	0.088155085830773	-0.00139355521352236	0.00619087357770509
0.7	-2.28363370103537	1.01661705165078	642.631969161384	-3.60169826404502	49.4047498995265	-0.175958953582555	0.110853939555812	-0.00113230515241691	0.00612952494023011
0.71	-1.92412565289847	1.02196617218361	643.170475673655	-3.35973833395252	49.3961186898407	-0.188763412377293	0.121014815311247	-0.000753222868735359	0.00605091499673649
0.72	-1.54632230626868	1.00475085282324	643.69692231868	-3.07935401861815	49.3801095209391	-0.186712516858268	0.117806232429164	-0.000314572069881836	0.0059621116212204
0.73	-1.21118995212749	0.97135959691512	644.097279678246	-2.8023346003005	49.3538137839715	-0.171303743801005	0.102641263096782	0.000117811134566437	0.00587225627490312
0.74	-0.970959628982006	0.929804708038454	644.271174272077	-2.56908900252675	49.3164022644904	-0.146103578267891	0.0788386157070197	0.000480368429042977	0.00579211481379965
0.75	-0.861312124891403	0.88809876664882	644.159216918183	-2.41253034434927	49.2704625867322	-0.115900171503553	0.0508414639765106	0.000721508132846327	0.00573287710742459
0.76	-0.896704157835628	0.852767412224057	643.761060043175	-2.35319493044849	49.2222685782095	-0.0856679504229281	0.0232597831770044	0.000809308317816115	0.00570440211232337
0.77	-1.06962330617979	0.827835736311568	643.138737897197	-2.39652437206385	49.180838080857	-0.0596572135122946	2.78195682461106e-05	0.000735759302982752	0.00571333973013061
0.78	-1.35360690389386	0.814479365976673	642.404184226473	-2.53278129430707	49.1560244671441	-0.0408374813074604	-0.0161113798172196	0.000516809206543734	0.00576164600312024
0.79	-1.70903529356988	0.811356980843886	641.694368463473	-2.7394879495639	49.1561814424713	-0.0307688954112993	-0.023728206247811	0.000188406073239444	0.00584592155087776
0.8	-2.09025060496725	0.815482967114467	641.140794667028	-2.9857438157984	49.1860512909638	-0.02981595606494	-0.0225189110432912	-0.000200421721156085	0.00595777894449617
0.81	-2.45254062829898	0.823386710296905	640.841246580608	-3.23744897673426	49.2454304716788	-0.0375132749497213	-0.0129866867591044	-0.000595885617104996	0.00608515715648089
0.82	-2.75787760215469	0.832251007114338	640.840507642779	-3.46241513567343	49.3289106994254	-0.0528775638249921	0.00382119346651272	-0.000947531223911002	0.00621423963545098
0.83	-2.97881942707958	0.840729495882149	641.123937252532	-3.63456039033368	49.4266750293539	-0.0745300107588771	0.0264045530682176	-0.00121482795808303	0.0063314759913532
0.84	-3.10045972586133	0.849214150456409	641.624261033794	-3.73674256723381	49.5260555439104	-0.100612360457467	0.0527293239093285	-0.00137155208839668	0.00642520353593545
0.85	-3.12062187648112	0.859457857003516	642.238764691564	-3.76213924959877	49.6134133298503	-0.128596893381373	0.0800807714315416	-0.00140783044190518	0.00648651753738488
0.86	-3.04861200539733	0.8736375493854	642.852003655809	-3.71431397295589	49.6759111757689	-0.155159107567536	0.105011711853099	-0.00133008791214562	0.00650930464268595
0.87	-2.90284952402445	0.893127856756756	643.358474503736	-3.60618215493876	49.7028873661349	-0.176277969575955	0.123528341120279	-0.00115926685617962	0.0064896510732676
0.88	-2.70768357788305	0.917380239427449	643.680392568467	-3.45805828566795	49.6867380365412	-0.187655552297007	0.131574646020927	-0.000927638126424823	0.00642506646943425
0.89	-2.48974698696792	0.943308885566615	643.777480522017	-3.29492494659528	49.6233960024488	-0.185432414703163	0.125762646217703	-0.000674452489761501	0.00631403691973864
0.9	-2.27429167266804	0.965450480685024	643.648019509973	-3.14309527158211	49.5125898279764	-0.167056211228103	0.104190030690583	-0.000440714760545857	0.00615629025903569
0.91	-2.08202323250877	0.976925916153119	643.322745128778	-3.02655924648503	49.3580454642902	-0.132077583298337	0.0671241020657715	-0.000263529364613047	0.00595384370326979
0.92	-1.92691999986891	0.970971075332019	642.854830092722	-2.96345409217957	49.1676645598583	-0.0826274864553329	0.0173318900360804	-0.000170682829203739	0.0057125026406592
0.93	-1.81533482834147	0.942614734545288	642.309642879519	-2.96318899594102	48.9535316474896	-0.0233840892029595	-0.040096679952048	-0.000176260269903472	0.00544313743199587
0.94	-1.74636672798015	0.890027394714113	641.75701803291	-3.02471791323007	48.7314499904785	0.0390450072098491	-0.0984674529369038	-0.000278038736198916	0.0051619353266158
0.95	-1.71316452670936	0.815156153040938	641.266768811056	-3.13628895480087	48.5196711653042	0.0972472239168829	-0.15063671239207	-0.0004571556129358	0.00488900446373125
0.96	-1.70462801176243	0.723461037712187	640.905981952251	-3.27676407416964	48.3366261770142	0.144412250820481	-0.190369435120275	-0.00068020099165389	0.00464518831898741
0.97	-1.70700249929532	0.622815277349221	640.735330224551	-3.41837511616064	48.1977838774805	0.17570115173216	-0.213592594656246	-0.000903540175689166	0.00444760246614512
0.98	-1.7051146432576	0.521858569356913	640.802000964308	-3.53060597833752	48.1121728290393	0.189240140956896	-0.219235573976692	-0.00107939868399209	0.00430500975041365
0.99	-1.68334987552219	0.428239594200405	641.128900046077	-3.58475854887983	48.0794532452098	0.186477846586425	-0.209434485202867	-0.00116302532249601	0.00421446245528279
1	-1.62674197240183	0.347210678543784	641.702690964046	-3.55863973650592	48.0885434565756	0.171798781806355	-0.189029762714506	-0.00112004424085121	0.00416049054169748
1.01	-1.52257739847351	0.280931336239554	642.465526757527	-3.44068960193223	48.1185727777384	0.151478684215965	-0.164468314888974	-0.000932910621732286	0.00411748725088568
1.02	-1.36266540626679	0.228624245554436	643.315677479232	-3.23280241929407	48.1423569408186	0.132244722655817	-0.14238102747576	-0.000605277319229325	0.00405500560728
1.03	-1.14598384896858	0.187470350607075	644.120106923464	-2.95115850465291	48.1318303120267	0.119810285555651	-0.128193506867438	-0.000163196670203591	0.00394473917172333
1.04	-0.880978429060022	0.153913664093156	644.738051381488	-2.62465322035529	48.0641840054597	0.11775313908614	-0.125111636831083	0.000347475845496992	0.0037673533849818
1.05	-0.586583492751184	0.124946774491332	645.050402435952	-2.29097292704436	47.9271186011458	0.126993458208061	-0.133705135920552	0.000867364347865496	0.00351729160468922
1.06	-0.291177141627807	0.0989997515904407	644.987019703752	-1.99091858883636	47.7217812810471	0.145939421472127	-0.152128658838773	0.00133256015694461	0.00320423557171179
1.07	-0.0291702292899348	0.0762331640193894	644.544171104893	-1.76204096591387	47.4625906582537	0.171166828549104	-0.176832893337136	0.00168461653285934	0.00285087301601322
1.08	0.1643952562798	0.0582638348492347	643.787101019795	-1.63285592837128	47.1740469690168	0.198356388943432	-0.203492481964695	0.0018795538634685	0.00248768952363276
1.09	0.26022743289213	0.0475362059052463	642.837127313882	-1.6187656569204	46.8854705095378	0.2231775662545	-0.227856052707796	0.00189412634779595	0.0021463076262867
1.1	0.240753734799411	0.0466249606527447	641.847008169325	-1.72035982803448	46.6251233404839	0.241888393644145	-0.246308490273952	0.00172832585434268	0.00185319445217597
1.11	0.104283854783975	0.0577018120795384	640.971161599042	-1.92416537621108	46.4151996531131	0.251577590872947	-0.256087166025749	0.00140405217129691	0.00162528483622809
1.12	-0.133652819829961	0.0822608406357105	640.337964535702	-2.20536319212731	46.268751841422	0.250139793040235	-0.25524680408189	0.000960734606249014	0.00146835008134694
1.13	-0.442173459948245	0.121042342743246	640.029944360588	-2.53167128293242	46.1889372019235	0.23617739587614	-0.242558420839668	0.000449176854200872	0.00137805223160981
1.14	-0.779763373557186	0.173993442787291	640.074946532238	-2.86757769581391	46.1702772454338	0.209022752864886	-0.217521187574734	-7.50907119084765e-05	0.00134286455792104
1.15	-1.10088751096451	0.240097727033314	640.448292126344	-3.178335275153	46.201141601696	0.168976528943123	-0.180569654476675	-0.000558035779855803	0.00134764497482703
