Time [s]	GRFml [N]	GRFap [N]	GRFv [N]	Mml [N.m]	Map [N.m]	Mv [N.m]	Mfree [N.m]	COPml [m]	COPap [m]
0.01	-1.30447376207054	0.226127195198152	757.648422288797	20.3409694254155	56.261927915041	0.102751618101305	-0.154581079321998	-0.0014489868415315	4.86211552170879e-05
0.02	-1.26301677519914	0.103184015016947	757.399868755609	20.2640337676933	56.3647019394449	0.0575126169705507	-0.0989725978035658	-0.00154013385010587	0.00020937396343701
0.03	-1.21829185600097	-0.0237059083393931	757.158491112377	20.1943724162416	56.4579297119597	0.018495543820098	-0.0492086742547198	-0.00162200519792977	0.000356680530296249
0.04	-1.16918645046408	-0.156670229281502	756.935403038544	20.1373347843697	56.5346980343096	-0.0102726239036569	-0.0091299083782874	-0.00168799495196126	0.000480217093347668
0.05	-1.1192562821446	-0.294598034585987	756.747393387141	20.0957244708916	56.5930758370586	-0.0281389077047029	0.0204338530537111	-0.00173503799643038	0.000575733093918118
0.06	-1.07666168469189	-0.432962476228615	756.615983569487	20.0696117468006	56.6364121604842	-0.0378161532272397	0.0416433004329661	-0.00176381745094856	0.00064554092350444
0.07	-1.0521539622024	-0.564758438856027	756.563095471103	20.0569168310967	56.6718662603773	-0.0441439403729961	0.0585325020061211	-0.00177783987564761	0.00069698897446363
0.08	-1.05586020163789	-0.682172619349916	756.6044297798	20.0544887082323	56.7077865829386	-0.0521573657450054	0.075285837156299	-0.00178178167719367	0.000739630865858709
0.09	-1.0940445937714	-0.778434732762542	756.74270435929	20.0592537665586	56.7509344928738	-0.0652310441369892	0.0946048265445327	-0.00177974391999025	0.000782203294919348
0.1	-1.16702121442318	-0.849332161130206	756.96326225037	20.0690322051662	56.8045333050906	-0.0839665800938408	0.116763965677849	-0.00177403221146355	0.000830467589269912
0.11	-1.26898616203768	-0.894035370930462	757.23403733777	20.0827902146166	56.8677499879989	-0.106140122744143	0.139625637715519	-0.00176483435709118	0.000886524261196286
0.12	-1.38987546341318	-0.915088263524106	757.510577615661	20.1003317465791	56.9366532868773	-0.127593352211605	0.159483285110209	-0.00175081209649763	0.000949587645124261
0.13	-1.51865533915625	-0.9176021489248	757.745179814721	20.1216416694716	57.0061584230833	-0.143618578115403	0.172301219657993	-0.00173029220003806	0.00101766196194952
0.14	-1.64693413649941	-0.907832946171518	757.897751159965	20.1462008323831	57.0721542739942	-0.15027425306158	0.174829205282154	-0.0017025500769452	0.00108928622950355
0.15	-1.7716181487422	-0.891428033248642	757.945299977497	20.1725742732883	57.1330090990201	-0.145186700059266	0.165202190291777	-0.00166868110547236	0.00116458796770064
0.16	-1.8955860668109	-0.871713321124478	757.887237620378	20.1984445653359	57.1899412820725	-0.12766942782919	0.142911422070421	-0.0016317362276197	0.00124524492251055
0.17	-2.02597564489922	-0.848440840681556	757.744875955408	20.2210779097847	57.246196755938	-0.0982947041342858	0.108324569890914	-0.00159608380710752	0.00133344004727642
0.18	-2.17048838140902	-0.817393757520906	757.555238933891	20.238041932425	57.30541994118	-0.0582587889381125	0.0621164923361165	-0.00156624231936409	0.00143031369542151
0.19	-2.33286810910123	-0.771106325365817	757.361010612975	20.2479023958769	57.3698814901563	-0.008917909186949	0.00497771972269097	-0.00154560806187887	0.00153461357284029
0.2	-2.50913055784243	-0.700690654787345	757.199570327739	20.2506405479205	57.439245874833	0.0482645272587823	-0.0622004109989641	-0.00153552139204516	0.00164215524557465
0.21	-2.68602697598861	-0.598421397456262	757.094267838751	20.2476415808718	57.5103330406677	0.111359806507533	-0.137729796278286	-0.00153497796295388	0.00174638040564901
0.22	-2.84259121131651	-0.460424354481594	757.050317919745	20.2412614040347	57.5779461894804	0.177441733586648	-0.218428177911682	-0.001541057559443	0.00183986887598714
0.23	-2.95461613640858	-0.28867743749383	757.056206864792	20.2341232106922	57.6364467717211	0.242243723621363	-0.299240537094276	-0.0015499012655309	0.00191628983042297
0.24	-3.0008580222015	-0.0916537879133355	757.089789617612	20.2283764390642	57.6814991241655	0.300324257497681	-0.373518438720264	-0.00155790148651602	0.00197210673127907
0.25	-2.96905462065855	0.11668546057737	757.126870680306	20.2251454994036	57.7113688410002	0.345855395656765	-0.434044247994466	-0.00156272841276539	0.00200743974863948
0.26	-2.859757949476	0.319319553446325	757.149445062799	20.2243142999946	57.7273456557023	0.373864705976382	-0.474560355667396	-0.0015639024180053	0.0020258002310935
0.27	-2.68661369160219	0.499308522175071	757.151100610589	20.2246718970494	57.7331954065264	0.381516884951074	-0.491299086689314	-0.00156279212340227	0.00203282254854026
0.28	-2.47288891436043	0.64268488684099	757.138190161008	20.2243317295258	57.7338968197934	0.36892949327261	-0.483928520417744	-0.00156210475310714	0.00203447288341302
0.29	-2.24535537842208	0.740221887740817	757.126834460081	20.221270713151	57.7341558529043	0.339133287212879	-0.455486542574406	-0.00156507283840168	0.00203538195604996
0.3	-2.02758430595122	0.787612001974337	757.137073565861	20.2138309474712	57.7372302458461	0.297083291427339	-0.411227619944309	-0.0015745896244107	0.00203787431943603
0.31	-1.83491254850364	0.784182685613104	757.186127032191	20.2010748863101	57.7444363451993	0.247995610696403	-0.356726767891807	-0.00159250475929473	0.00204198912240355
0.32	-1.67269142688516	0.730840973389613	757.282631862159	20.1829544946912	57.7554241543052	0.195581822560333	-0.295908474436811	-0.0016191973232651	0.00204641793708754
0.33	-1.53816724361123	0.628260760638561	757.423109585197	20.160313570779	57.7690147295921	0.140851573379812	-0.229758693296912	-0.00165344498329845	0.00204996204581392
0.34	-1.4249690253358	0.476267711139962	757.591160964875	20.1347707846143	57.784209860591	0.082000032055466	-0.156283297379578	-0.00169254490243287	0.0020529446006915
0.35	-1.32824919470193	0.274928318859831	757.759335132128	20.1085296667509	57.8009682862842	0.0155310886553487	-0.0718515137156158	-0.00173262486029635	0.00205804821350841
0.36	-1.24840080910084	0.0271480147059956	757.893362965968	20.0841457684399	57.820482994055	-0.0616867284831772	0.0264484123915648	-0.00176909532149272	0.00207025934800764
0.37	-1.19197611919794	-0.25812614703819	757.958316881736	20.0642674888653	57.8449164061545	-0.150114255831307	0.138229998719787	-0.00179720672444206	0.0020959062183154
0.38	-1.16962419529234	-0.563445782562622	757.926003265157	20.0513640023196	57.8767554514278	-0.245829981443449	0.25795904045062	-0.00181267092540183	0.00214107232051974
0.39	-1.19203221496674	-0.862468026978823	757.782398301954	20.0474586790004	57.9180563487707	-0.340127658303841	0.374625436305002	-0.00181228102193787	0.00220985906764787
0.4	-1.26552722266739	-1.1224181043039	757.533378403242	20.0538913099962	57.9698303902533	-0.420744346849292	0.473275224568308	-0.00179443650038624	0.00230300281802881
0.41	-1.3889524308916	-1.30929678823361	757.206768372372	20.0711320111248	58.031707617466	-0.474503992810319	0.538137493971487	-0.00175947190818659	0.00241722446072579
0.42	-1.55277506855314	-1.39474964284191	756.849208491824	20.0986655810759	58.1018757943802	-0.490664709155708	0.556526033994067	-0.00170970843455631	0.00254545902832976
0.43	-1.74045714014463	-1.36281227451295	756.517613194478	20.1349632190509	58.1772006532024	-0.463977313789821	0.522384730433077	-0.00164919475135195	0.00267786574293111
0.44	-1.9313415525637	-1.21457891932625	756.266734182094	20.1775617931069	58.2534280680846	-0.39650551622461	0.438395628245768	-0.00158316132388825	0.00280333779107961
0.45	-2.10397139301777	-0.969299466621533	756.135911945832	20.2232739639606	58.3254350705142	-0.297617748289732	0.31597180724904	-0.00151726568494859	0.00291116063205044
0.46	-2.23893296982397	-0.661366021925688	756.138825173614	20.2685435332391	58.3875791403576	-0.182115648411705	0.173081205881454	-0.0014567461520465	0.00299250278076113
0.47	-2.32082072443345	-0.33380416451148	756.259522890307	20.3099296940531	58.434231695277	-0.0670240011884961	0.0304831904022771	-0.00140562576260816	0.00304152251498307
0.48	-2.33945822278619	-0.0298677215924042	756.456312013834	20.3446539152491	58.4605386761323	0.0320555007828042	-0.0926003793125629	-0.00136611473629389	0.00305598780349925
0.49	-2.29079042590037	0.215158958320293	756.672696010481	20.3710925170574	58.4633414417717	0.104043379231489	-0.182244489281247	-0.00133834193791649	0.00303739985651302
0.5	-2.17776325944695	0.379964894934283	756.852308041855	20.3890746268413	58.4420656318721	0.144172230823716	-0.232102453068812	-0.00132049457166605	0.00299067110096962
0.51	-2.01111531167478	0.459715004957972	756.953426093587	20.3998720314023	58.3993063284048	0.154133109742379	-0.243770859438385	-0.00130935854862491	0.00292344057566896
0.52	-1.80957298869385	0.464746921904516	756.958688926641	20.4058473475622	58.3408496264809	0.140726665270783	-0.225347861481685	-0.00130114445716034	0.00284512340188481
0.53	-1.59874418445178	0.416162661904977	756.877098699683	20.4098366299145	58.2749841833828	0.113552482005941	-0.188752881591726	-0.00129238951982702	0.00276579473662897
0.54	-1.40821151172511	0.339726781567924	756.737874760834	20.4144397664125	58.2111453698189	0.0824553518084625	-0.146622276049315	-0.00128068582770424	0.00269501012534962
0.55	-1.26689996658518	0.25972607164875	756.578422696063	20.4214337542047	58.1581451229389	0.0554040540880642	-0.109587100096892	-0.00126502818957053	0.00264067101247156
0.56	-1.19751442463774	0.194212559865633	756.430677190992	20.4314870876588	58.1224050366777	0.0372507803711258	-0.0845131822313987	-0.00124569790794404	0.00260806026879434
0.57	-1.21140193114079	0.152478221127553	756.310620659987	20.4442476893499	58.1066668629412	0.0295012824778581	-0.0739362159489039	-0.0012237611119198	0.00259919164088318
0.58	-1.30533545289589	0.134911955451834	756.214608172093	20.4587426643928	58.1095687235179	0.0309255079444694	-0.0765737749797499	-0.00120039764943414	0.00261262021628739
0.59	-1.46134458111508	0.134780776150355	756.123616085716	20.4739203304739	58.1262570593805	0.0386436197960035	-0.0885439306701034	-0.00117632925435707	0.00264382477358516
0.6	-1.64993910448556	0.141106497661701	756.013591007984	20.4891275402689	58.1499128000176	0.0492746406862767	-0.10482272565659	-0.00115155814778334	0.0026861838308232
0.61	-1.83613936474243	0.141732172015356	755.867818231945	20.5043610750123	58.1737970568446	0.0598224627121477	-0.120529311800498	-0.0011254829730204	0.00273243454106215
0.62	-1.98694434126094	0.125855100930307	755.686511012847	20.5202366343038	58.1932576929957	0.0681420238542603	-0.131788886363249	-0.00109729191029007	0.0027763605605009
0.63	-2.07846866566166	0.0856446477930621	755.489895346864	20.5377340623353	58.2071382088078	0.0730051584640279	-0.136116093989236	-0.00106641749566694	0.00281434781015671
0.64	-2.1010584676128	0.016929140556395	755.31348826979	20.5578539438069	58.2181932882645	0.0739100697946466	-0.13241643762044	-0.00103282377339153	0.00284641771184746
0.65	-2.06120100531047	-0.0807997728924508	755.197110635643	20.5813317150252	58.2323878502693	0.070820379442412	-0.120779047074023	-0.000996985980991294	0.00287641932495558
0.66	-1.9798175625039	-0.204731720255714	755.171398968664	20.6085059373701	58.257256228546	0.0639843566212801	-0.102225874385257	-0.000959571253550284	0.00291123153405742
0.67	-1.88737267910041	-0.349188887401049	755.246425921467	20.6393573616375	58.2997425206971	0.0539027786338044	-0.0785155198424033	-0.00092096761310978	0.00295906265208035
0.68	-1.81695240716981	-0.506129975007583	755.406276479723	20.6736622708348	58.3640719790892	0.0414241923082107	-0.0520148442295982	-0.000880878961202924	0.00302718207982283
0.69	-1.79690560931996	-0.665819423064783	755.611400403259	20.7111646089817	58.45019043422	0.0278817593397997	-0.0255860317715431	-0.000838181636344193	0.00311960817214324
0.7	-1.84471012288306	-0.817820391276283	755.808024021368	20.7516753213854	58.5531638637746	0.0151636513636432	-0.00241320266190575	-0.000791139167665156	0.00323534435656769
0.71	-1.96340319453142	-0.952363782661582	755.941730485275	20.7950466296089	58.6636937449275	0.00562979517499413	0.0142864104281738	-0.00073793852073778	0.00336766570453539
0.72	-2.14127903680616	-1.06193729567573	755.971192751385	20.8410271745034	58.7696364981443	0.0018396773364656	0.0216702684337506	-0.000677391120623483	0.00350472028976012
0.73	-2.35476798437905	-1.1427337355837	755.878243696371	20.8890613994001	58.8581835410565	0.00612034911045784	0.017741424222205	-0.000609572245492185	0.00363138288846204
0.74	-2.57368091467671	-1.19550768878158	755.6717959447	20.938133243603	58.9182173249737	0.0200615637180292	0.00178144542820085	-0.000536172711546379	0.00373197559582994
0.75	-2.76752040428727	-1.2254794751028	755.385026698669	20.9867536624591	58.9423373571204	0.0440608564317997	-0.02537137929265	-0.000460408601952289	0.00379324588393543
0.76	-2.91143441124025	-1.24118339313621	755.067054052563	21.0331476518549	58.9281449376946	0.0770463759116118	-0.0612963420888053	-0.000386461105222335	0.00380693105404095
0.77	-2.99061119523573	-1.25249624978526	754.771535807979	21.0756206127872	58.8785538230237	0.116477252750744	-0.10226591175861	-0.000318564688007505	0.00377134939904505
0.78	-3.00237740237664	-1.26837264200244	754.545017483404	21.1130040412603	58.8011080704387	0.158664559454043	-0.143803984316597	-0.000259982699607142	0.00369170028252674
0.79	-2.95580969912449	-1.29493757920946	754.41754863913	21.1450302621022	58.7064889280713	0.199380766281787	-0.181437765232333	-0.000212164264931647	0.00357905266545383
0.8	-2.86916432971183	-1.33448847572657	754.397346513137	21.1724885913843	58.6065411775705	0.23464757942485	-0.211497197771351	-0.000174344239564417	0.00344827567326444
0.81	-2.76578462790831	-1.38566629827281	754.470370447206	21.1970732763912	58.512222704372	0.261530220969101	-0.231786662743724	-0.000143735944165946	0.00331535817926942
0.82	-2.66934157530942	-1.44467195213636	754.604721335749	21.2209281785013	58.4318722711138	0.278739883162178	-0.241963026240473	-0.000116304861977112	0.00319465231381255
0.83	-2.59931373494751	-1.50706399240184	754.758849518955	21.2459936692196	58.3701069627408	0.286870059605703	-0.24350658907989	-8.79435462816103e-05	0.00309656172339623
0.84	-2.56754403371583	-1.56949606264617	754.891712688688	21.2733361298446	58.3275217348913	0.288171106544228	-0.239262725727115	-5.57380409769159e-05	0.00302609686713312
0.85	-2.57653101794508	-1.63079886838252	754.972445082628	21.3026661523332	58.3011965066515	0.285889007382174	-0.232645567369597	-1.89616535534176e-05	0.00298255576033296
0.86	-2.61981692266913	-1.69206669464471	754.987029951411	21.3322168637764	58.2858534270764	0.283328729474135	-0.226701758344352	2.05234192995896e-05	0.00296037742691246
0.87	-2.68442905827152	-1.75578435132324	754.940100009723	21.3590625289721	58.2753803097112	0.282905988955915	-0.223295233046164	5.86306700975925e-05	0.00295098102783325
0.88	-2.7548591352051	-1.82439390126974	754.851297240287	21.3798300729103	58.2643719932715	0.285480053366269	-0.222661077713439	9.01361514561438e-05	0.00294518463528931
0.89	-2.81762816501289	-1.89891793662559	754.747280908594	21.3916281052496	58.2493542276578	0.290190216521992	-0.223476934081797	0.000110212577465463	0.00293564634532545
0.9	-2.86522633814343	-1.97824050565605	754.651936924493	21.3929326161125	58.2294433962057	0.294860987513259	-0.223436200036286	0.000115968602692584	0.00291874000767733
0.91	-2.89827621810732	-2.05939234528495	754.578054341684	21.3841610776242	58.2063414137053	0.296845282942141	-0.220132415676037	0.000107515819721682	0.00289539966838104
0.92	-2.92520643844576	-2.13877910160495	754.523364389821	21.3677477976208	58.1837346865376	0.294013564730388	-0.211946553424468	8.82083901275754e-05	0.00287072928312881
0.93	-2.95946706862196	-2.21388331660937	754.472434982054	21.3476803518895	58.1663159009151	0.285536739324637	-0.198621343851721	6.39482712905259e-05	0.0028525151076374
0.94	-3.01514170320244	-2.28473150213737	754.403912242832	21.3286203048984	58.1587344609151	0.272182521945169	-0.181320671946889	4.17408049894208e-05	0.00284909682754375
0.95	-3.10240352389401	-2.35446029635358	754.300669562962	21.3148544493886	58.1647747510278	0.256026668566191	-0.162167617610838	2.79205121622716e-05	0.00286724160579466
0.96	-3.22435476260053	-2.42864328621056	754.159244151074	21.3093643639243	58.1869554914837	0.239702533964349	-0.143454545798266	2.65652469683131e-05	0.00291064634343169
0.97	-3.37629458668297	-2.51353226447478	753.994970946305	21.313252404729	58.2265672649255	0.225485898405179	-0.126840585540611	3.85483314381263e-05	0.00297945853261672
0.98	-3.54754444957264	-2.61382456471641	753.840529257954	21.3256446340943	58.2839807354365	0.21456661445818	-0.11284546922916	6.14718887974597e-05	0.0030708294980949
0.99	-3.72498889873345	-2.73079917587082	753.737809865451	21.3440503635085	58.3589421754872	0.206773634887703	-0.100818407290819	9.04548584973464e-05	0.00318013641452958
1	-3.8968743348012	-2.86156774126029	753.725349211493	21.3650410966045	58.4505859656671	0.200833214596466	-0.0893635816737299	0.000119506863163088	0.00330228654733372
1.01	-4.05541126972997	-2.99979671246302	753.825228393763	21.3850508230229	58.5570461629208	0.195030288459723	-0.0770235190995136	0.000143078073759684	0.00343254834448464
1.02	-4.19733377970626	-3.13772558726818	754.033690978061	21.4011031259594	58.6747859352961	0.187994641452007	-0.0629305824703172	0.000157368636709121	0.00356662934833624
1.03	-4.32249683709792	-3.2688346025232	754.318657913186	21.4113247829155	58.7979795867525	0.17930095553666	-0.0471662400366649	0.000161095239987419	0.00370011615041754
1.04	-4.43141634967407	-3.39027271408072	754.625190867057	21.4151841378028	58.9183667297645	0.169659712884358	-0.0306975546998647	0.000155597035280786	0.0038277220338882
1.05	-4.52302383333229	-3.50422171493196	754.887512639312	21.4134673161644	59.0258908137408	0.160641888141189	-0.0149321877057212	0.000144353147777165	0.0039428971471992
1.06	-4.59369445066131	-3.61771454664359	755.044237277261	21.4080547633533	59.1101592220274	0.154056404076012	-0.00107787339694599	0.000132120997663576	0.00403819389135202
1.07	-4.63796208939646	-3.7409252415065	755.052581465347	21.4015750642986	59.1624265216301	0.151220389533552	0.0104422343795665	0.00012395465307169	0.00410642761169377
1.08	-4.65058393180812	-3.88443850629159	754.897728354316	21.3969976681428	59.1775510171331	0.15238983001024	0.0202977361362864	0.000124325351704146	0.00414229991429793
1.09	-4.62909271796314	-4.05633046593551	754.595001496971	21.397199103753	59.1553235584385	0.15655078326305	0.0301692383578323	0.000136474072954251	0.00414393208259722
1.1	-4.57586602675593	-4.25994738290693	754.184591914019	21.4045216006108	59.1007478373161	0.161640237249195	0.0423023013454032	0.0001620276911799	0.00411378026744413
1.11	-4.49902878683364	-4.49304332317439	753.720646802685	21.4203538509973	59.0231929235973	0.165119835231975	0.0588439029996926	0.000200848781337415	0.0040586427222799
1.12	-4.4120013412479	-4.7485093324149	753.257992566672	21.4447974392797	58.9347010780244	0.164713146291271	0.0811743505918945	0.000251081127976116	0.00398879637718641
1.13	-4.33196715080411	-5.01643967820162	752.840228996265	21.4765164806004	58.8479706622277	0.159070219384623	0.109443968704653	0.000309382556867299	0.00391656353510667
1.14	-4.27777860111603	-5.28689585448251	752.492286719106	21.5128719353199	58.7745591639192	0.148150981634195	0.142459044774629	0.000371367255746158	0.00385470765316343
1.15	-4.26779472680242	-5.55256709418093	752.219008547052	21.5503957116473	58.7236751359584	0.133208306931089	0.177959922819688	0.000432275949237004	0.0038149815184183
1.16	-4.31793165024782	-5.81062364150394	752.009394065637	21.5855662764681	58.701646763287	0.116373049931684	0.213226103604854	0.000487839794078848	0.0038069786037695
