Time [s]	GRFml [N]	GRFap [N]	GRFv [N]	Mml [N.m]	Map [N.m]	Mv [N.m]	Mfree [N.m]	COPml [m]	COPap [m]
0.01	-2.01277190366885	1.63830174440406	625.543302463696	-2.20328377804693	-15.3328959887978	0.427376471985053	-0.38016506965436	0.00176433908443363	-6.7055321445908e-05
0.02	-2.14494574632818	1.58242994589246	625.328233863077	-2.28965807975794	-15.3558565024413	0.434100493083352	-0.387394475189016	0.0016236071805269	-0.000114570441192507
0.03	-2.27838608286686	1.53109969695853	625.141719654739	-2.3748173993759	-15.3784050580031	0.441007743650823	-0.394686972418957	0.0014848578360489	-0.000160440225551506
0.04	-2.41271294546302	1.48922883466759	625.024220012705	-2.45780603563576	-15.4009630037052	0.448159256984823	-0.401979612572887	0.00134979811028624	-0.000203803951894344
0.05	-2.54198032845261	1.46305799766916	625.0170601619	-2.53898715778617	-15.4266063395941	0.455444418446311	-0.409019654224624	0.00121810376438247	-0.000247921365539028
0.06	-2.65444648344287	1.45960288169113	625.153570996726	-2.61993297404769	-15.4610109549282	0.462548222545809	-0.415347029268318	0.00108753548212026	-0.000300442257197719
0.07	-2.73474813669132	1.48513544365302	625.446372614337	-2.70270538042664	-15.5111039382406	0.468982144679353	-0.420359146268379	0.000954977521512523	-0.00037179586886027
0.08	-2.76777329798308	1.54323336955489	625.875806281752	-2.78886556698645	-15.582869153067	0.474187551687773	-0.423454604143525	0.000817901166911494	-0.000472202480962247
0.09	-2.74297624736846	1.63311178630115	626.38515494798	-2.87865427374845	-15.6790767125522	0.477696043798458	-0.424224735396715	0.000675600412423982	-0.000608290443177284
0.1	-2.65775659024296	1.74884688706438	626.886310364556	-2.97068651336272	-15.7977371205584	0.479299398279322	-0.422633380446693	0.000529690071767286	-0.000780431778475199
0.11	-2.51884717639911	1.87980536343349	627.275829818967	-3.06227020520192	-15.9318248925352	0.479160154865678	-0.419110798308516	0.00038370032708801	-0.000981657324164609
0.12	-2.34130684308252	2.01223224673913	627.457449873814	-3.15020114276313	-16.0703806593975	0.477800897926257	-0.414502538371725	0.000241977893882472	-0.00119848316664789
0.13	-2.14547559564795	2.13163661452917	627.364641237764	-3.23171279696653	-16.2006489119263	0.475951402451245	-0.409861359103035	0.000108357257933123	-0.00141336889961635
0.14	-1.95286918410208	2.22542272143493	626.976612044712	-3.30522457342235	-16.3105976397166	0.474293544330326	-0.406134172719591	-1.48847739462887e-05	-0.00160804523092767
0.15	-1.78226399299802	2.28516937206256	626.323267213251	-3.37062996296709	-16.3910911435286	0.473196013861594	-0.403848299114491	-0.000127420658568855	-0.00176674462869142
0.16	-1.64706922400695	2.30805137966527	625.478129891535	-3.42904303190365	-16.4371534497308	0.47254752637641	-0.402915817095878	-0.000230495364263894	-0.00187848811508645
0.17	-1.55456862386641	2.29709168956391	624.541810692398	-3.48210663765795	-16.4480893301602	0.471767331980344	-0.40264118342646	-0.000325932906143578	-0.00193795523615775
0.18	-1.5069316729272	2.26019025042677	623.621055318562	-3.5310982054478	-16.4265976413538	0.470005979834088	-0.401946647959468	-0.00041486751199471	-0.0019449447371811
0.19	-1.50329432577541	2.20814819580439	622.809037352889	-3.57611690487482	-16.3772929755022	0.466474445834414	-0.399749717004846	-0.000496609156479977	-0.00190285152895625
0.2	-1.54190719142186	2.15213736080408	622.171442443988	-3.6155997822794	-16.3051654935553	0.460786547051357	-0.395368414335268	-0.000568000919344835	-0.00181681112201842
0.21	-1.62144287778872	2.10119782846817	621.740665698576	-3.64631785768975	-16.2144405927321	0.453189186300051	-0.38881572117541	-0.000623486505599846	-0.00169214577120186
0.22	-1.74098817887964	2.06033833605458	621.518018871224	-3.66387973563618	-16.1080978291292	0.444591114642876	-0.380879435447754	-0.000655926802070494	-0.00153352592995154
0.23	-1.89883546125673	2.0296608158209	621.481973168399	-3.66364921479248	-15.9880576922547	0.436369712799057	-0.372954797180545	-0.000658025488415315	-0.00134494016768844
0.24	-2.09069403802398	2.00467149047064	621.599501144976	-3.64188414394713	-15.8558331268732	0.430011648210842	-0.366679253561163	-0.000624073671844916	-0.00113027055731896
0.25	-2.30817500117632	1.97765168926107	621.837473265807	-3.5968390723623	-15.7133299437212	0.426700298709973	-0.363483413030615	-0.00055162288781696	-0.000894095676622686
0.26	-2.53828980069728	1.93972391881034	622.171539175653	-3.5295567704938	-15.5634834744091	0.426981281415898	-0.364198124757129	-0.000442666816515502	-0.000642328345959342
0.27	-2.76431171967008	1.88312085127712	622.590718726709	-3.44411746019456	-15.4105151934613	0.430611866686676	-0.368837174169982	-0.000303978763009582	-0.000382415408271941
0.28	-2.96785097179464	1.80316199311466	623.096903994237	-3.34722602705816	-15.2597356578522	0.436640166271469	-0.37661670080979	-0.000146425077430012	-0.000123014361218199
0.29	-3.13158600904639	1.69954027690833	623.699566238985	-3.24718138509908	-15.1169580014647	0.443686542647245	-0.38619682679115	1.66703410345859e-05	0.000126761587084523
0.3	-3.24191943261084	1.57667638586813	624.407060726528	-3.15244534021952	-14.9876809059454	0.450337077335832	-0.39606343765495	0.000171767319001925	0.000358329686213077
0.31	-3.29092410245272	1.44307707085459	625.216808478577	-3.07015099436671	-14.8762345733247	0.455526932940941	-0.404929717849171	0.000307426253045695	0.000564633139746751
0.32	-3.27724066871812	1.30981583938988	626.107037293314	-3.0049130283502	-14.7850629326809	0.45879902947882	-0.412038230595106	0.000416141270287662	0.000740971868829932
0.33	-3.20594066581729	1.18842565637625	627.032502136363	-2.95821085323775	-14.7142607057402	0.460366529226415	-0.417282115079269	0.000495278034686408	0.000885572136780421
0.34	-3.08763673787143	1.08862793379801	627.925701752598	-2.92844425220928	-14.6614205595041	0.460970988258907	-0.421124176344594	0.000546973910531601	0.000999865972863168
0.35	-2.93721844976247	1.01638246199624	628.703812306481	-2.911575852565	-14.6217939090465	0.46159071660524	-0.424355043758308	0.000577144819773445	0.00108848450059995
0.36	-2.77251772740749	0.972697787265783	629.280242175228	-2.90214264479851	-14.5887386056282	0.463096063505182	-0.427776512961056	0.00059394268653723	0.00115896682801803
0.37	-2.61303178366501	0.953487952899849	629.578711841378	-2.89437699681446	-14.5544154919777	0.465957844646513	-0.431910866108961	0.000606063839856841	0.00122116489459828
0.38	-2.47865208782023	0.950532184319845	629.547257539517	-2.88322009686067	-14.51069214719	0.470091443358703	-0.436819572407923	0.000621234489918465	0.00128631058774148
0.39	-2.38824927461269	0.953344992663126	629.169547216755	-2.86509762993304	-14.4502003927859	0.474872985004307	-0.442074528237458	0.000645059109915858	0.00136573048038086
0.4	-2.35798687799766	0.951553778855509	628.471282999598	-2.83840948868452	-14.3674617002542	0.479312369488628	-0.446877619241276	0.000680289487401398	0.00146926230379202
0.41	-2.39937336691006	0.937254973207137	627.520148793116	-2.80372894830419	-14.259940580826	0.482326770711699	-0.450285033367556	0.000726508672753923	0.00160354293800663
0.42	-2.51726398221608	0.906805487356864	626.418696099303	-2.76370876649116	-14.1288268951003	0.483036809341451	-0.451470453112771	0.000780229014399558	0.00177047055311752
0.43	-2.70821913974775	0.861612937317582	625.290709847031	-2.72267769487528	-13.979316006247	0.481007613676245	-0.449957697276599	0.000835435133962004	0.00196623905687027
0.44	-2.95973734913589	0.807704830896257	624.262863747222	-2.68591901414268	-13.8201870643195	0.476374929938602	-0.445765532810881	0.000884599335597702	0.0021813384735741
0.45	-3.25084520048421	0.754147795162211	623.444659532737	-2.65867951486104	-13.6625964560067	0.469826954566373	-0.43943084285612	0.000920114904002012	0.0024017674457168
0.46	-3.55431695466329	0.710689469498173	622.910450007181	-2.64505810977018	-13.5181963832503	0.462449565759222	-0.431906663630621	0.000935937793216213	0.0026114186178392
0.47	-3.84043421457131	0.685225310899451	622.687454212009	-2.64702805256396	-13.3969108128653	0.455478552524338	-0.424363240182152	0.000929060937661763	0.00279523966995215
0.48	-4.08176133379837	0.68177195036245	622.752859964342	-2.66389653251716	-13.3048779916427	0.450027767345779	-0.417945483920641	0.000900360233922259	0.0029424560327086
0.49	-4.25802821188154	0.699515617303793	623.041364685556	-2.69245143455928	-13.2431228040168	0.446867646206874	-0.413550545545457	0.000854424530778775	0.00304899146327725
0.5	-4.36001248861774	0.733215900829033	623.462110291074	-2.72787669237717	-13.2074050250891	0.446309943087565	-0.411679412231299	0.000798232327221982	0.0031183278031458
0.51	-4.39139377500218	0.774859260091191	623.921477253113	-2.76527467746038	-13.1894079696052	0.448216576993007	-0.412388777040534	0.000738905822579183	0.00316041294118419
0.52	-4.36793091024602	0.816086674771083	624.346323828516	-2.80139665335074	-13.1790564486734	0.452107167440155	-0.415334629766487	0.00068113600551778	0.00318876658212885
0.53	-4.31391488463433	0.850678337308214	624.701640313791	-2.83604271321414	-13.1673991473362	0.45730901258306	-0.419872007195385	0.000625088893350112	0.00321648194952856
0.54	-4.25652901715401	0.876343506208759	624.997600444041	-2.87261956265883	-13.1492802940964	0.463088151429869	-0.425167654616769	0.000565566677229734	0.00325219421005551
0.55	-4.21932980657039	0.895256815446852	625.283540768428	-2.91755404859743	-13.1250401116099	0.46872224481887	-0.430295668896771	0.000492882878327605	0.003297149532973
0.56	-4.21638935858769	0.913158250471963	625.629896099188	-2.97860341437668	-13.1007306926231	0.473513799082822	-0.43431117424912	0.00039539197489713	0.00334423073854478
0.57	-4.24860726616945	0.937286246880403	626.102610128397	-3.06247584906146	-13.0867426314795	0.476776720859582	-0.436318492263319	0.000263049994126185	0.00337925913356185
0.58	-4.30327361262353	0.973799007955162	626.736976156127	-3.17244968573417	-13.0951830870107	0.477843235236897	-0.435555467606844	9.09676323663788e-05	0.00338426313541423
0.59	-4.35720340005373	1.02552306084364	627.518437831872	-3.30675067743813	-13.1366931533531	0.476125156598989	-0.431501577353081	-0.000118187082053023	0.00334187172040573
0.6	-4.38282469307417	1.09077495404339	628.376315652828	-3.45827134605415	-13.2175419269382	0.471230388517761	-0.423992458897062	-0.000353809476294265	0.00323970367031584
0.61	-4.3557332327283	1.16365318764831	629.19308922905	-3.61583586230538	-13.3377517471475	0.463099321104427	-0.413302462037021	-0.000599295320827697	0.00307364781380048
0.62	-4.26170076470728	1.23571113062538	629.827670908047	-3.76674374623702	-13.490728749298	0.452104662659577	-0.400152953113475	-0.00083587561468812	0.00284923699323136
0.63	-4.10115282506009	1.29847012692807	630.147228395617	-3.89991660298812	-13.6644816573361	0.439062453601403	-0.385621495782374	-0.00104731711598471	0.00258080850798609
0.64	-3.8897611411777	1.34597320453426	630.05963404003	-4.00875812964532	-13.8441169326165	0.42512948967518	-0.370958777895071	-0.00122414468884269	0.00228868130154208
0.65	-3.65486668432202	1.37659473143521	629.538218297832	-4.09289104427986	-14.0149970761117	0.411601081601558	-0.357352622870122	-0.00136613732211288	0.00199503566226911
0.66	-3.42864005230883	1.39358634063325	628.632294447536	-4.1582433206644	-14.1658060714687	0.399657837271981	-0.345698718166028	-0.0014823299371437	0.00171945915989108
0.67	-3.23982809689623	1.40424509555908	627.460431704337	-4.21542898117785	-14.2908049584716	0.390129360021612	-0.336439248872679	-0.00158847463746603	0.00147517472362185
0.68	-3.10634538638867	1.41799319913734	626.187775510806	-4.27686438769983	-14.3907638130682	0.383341458321231	-0.329514260729624	-0.0017026606232281	0.00126679336769475
0.69	-3.03073377747661	1.44393975501688	624.992733760314	-4.35343052285733	-14.4723733059651	0.379092796741731	-0.324441889219168	-0.00184033603021816	0.00109007777738845
0.7	-2.99971313259705	1.48859277396997	624.031021333398	-4.45162229409109	-14.546297013487	0.376772193493036	-0.320509787477114	-0.00201014997906268	0.00093373995781737
0.71	-2.9879162943818	1.55430476670738	623.405665598762	-4.57197431983517	-14.6243440633168	0.375587225006818	-0.317028562245921	-0.00221177988942567	0.00078282453410472
0.72	-2.9647600605521	1.63881303497946	623.149934054677	-4.70916119388107	-14.7164469816719	0.374839043914278	-0.313576435895307	-0.00243629850681915	0.000622853935974665
0.73	-2.90256638450398	1.73594186787215	623.226679827737	-4.853658577787	-14.8281710732733	0.374158942105523	-0.310160220720682	-0.00266885432777264	0.000443724697468284
0.74	-2.78374373815292	1.83723748145576	623.543275324031	-4.99438398719796	-14.9593446492917	0.373628361968257	-0.307236091663586	-0.00289274024996644	0.000242402462007685
0.75	-2.60514810718421	1.93407185882365	623.977357044692	-5.12146874594812	-15.1041125685694	0.373737860911943	-0.305573480645628	-0.00309354352693547	2.37681359639974e-05
0.76	-2.37857265980451	2.0196319628092	624.406166808931	-5.22833485662836	-15.2523488881267	0.375193724732885	-0.305996915209279	-0.00326213554693255	-0.000200547476682633
0.77	-2.12741949372495	2.09023992231685	624.732000056039	-5.31254672949324	-15.3920153884351	0.378635872888474	-0.309086671892277	-0.00339573937022952	-0.000414965420822477
0.78	-1.88065875976531	2.14563092073484	624.898118118423	-5.37535877038751	-15.5118205396109	0.384366232800091	-0.314941027742011	-0.00349701561228399	-0.000603587429262142
0.79	-1.66586981579353	2.18811331938659	624.892736957858	-5.42031167744379	-15.6034874143987	0.392186965090042	-0.323088565442926	-0.0035717620571355	-0.000753647830289472
0.8	-1.50329156883445	2.22087758000819	624.742255624973	-5.45148798880784	-15.6630926359259	0.401409939625744	-0.332589619421061	-0.00362619378557805	-0.000857893148654476
0.81	-1.4023690080157	2.24601046261713	624.497618452703	-5.47204892842505	-15.6912412552112	0.411035678339394	-0.342297690879334	-0.00366475629027618	-0.000915369652902398
0.82	-1.36143476133561	2.26291226650225	624.218875700971	-5.48347279464813	-15.6921952975373	0.420036159371323	-0.351190511854631	-0.00368908578699467	-0.000930613841725436
0.83	-1.37019267891131	2.26774105538778	623.96246137871	-5.48560962109618	-15.6723625855248	0.427637437171482	-0.35865181144453	-0.00369824677128983	-0.000911720541143968
0.84	-1.41388061290689	2.25421190247914	623.773854416365	-5.47738508553789	-15.6386880704596	0.433500843735552	-0.364602085430151	-0.00368994680328061	-0.000868050461442282
0.85	-1.47761086819762	2.21563155045592	623.685903676074	-5.4578178688157	-15.5974376531096	0.43774388433209	-0.369434158093243	-0.0036621866095361	-0.000808348382905444
0.86	-1.54950764405329	2.14758979060145	623.721024688526	-5.42698335765338	-15.5536542454985	0.440805256789976	-0.373783981934296	-0.00361477888544837	-0.00073978866708424
0.87	-1.62181350657625	2.05042791916365	623.894364513667	-5.3866325391877	-15.5112797082483	0.443216027445205	-0.378228387066429	-0.00355030498815512	-0.000668051462518415
0.88	-1.68992711991187	1.93059482345626	624.215154997833	-5.34030532183018	-15.4736794486249	0.445368242886289	-0.383024865907838	-0.00347428642382908	-0.00059811747772831
0.89	-1.75010109016391	1.8003149372035	624.684687854921	-5.29291750214751	-15.4441707340336	0.447363907831745	-0.387985989338345	-0.00339455712570214	-0.000535203959668051
0.9	-1.79701936674631	1.67553394455081	625.29115732456	-5.24992550133477	-15.4261874403039	0.44898810821641	-0.392523949204861	-0.00331999938499328	-0.000485243067880947
0.91	-1.82251891898211	1.5726841303155	626.003361044711	-5.21627087790042	-15.4228965194459	0.449798567626107	-0.395833791731119	-0.00325894037905838	-0.000454526455722526
0.92	-1.81629089775661	1.50520663353945	626.766295326967	-5.19536494427784	-15.4363410010338	0.449281775583456	-0.397134637560423	-0.0032175858685366	-0.000448513563207187
0.93	-1.7686227578233	1.48083475415411	627.501628223766	-5.18837577483871	-15.4664172730081	0.447009209416132	-0.395875639117896	-0.00319887139669317	-0.000470176189728722
0.94	-1.67438576662101	1.50036111459662	628.114843005203	-5.19401425007033	-15.5101078658534	0.442740788245591	-0.391840869732517	-0.00320202195096331	-0.000518481451499853
0.95	-1.53684368217067	1.55809683179564	628.50884997721	-5.2088903472721	-15.5613392839628	0.436458028139182	-0.385140907662159	-0.00322293674821694	-0.000587612858840514
0.96	-1.36971217597975	1.64368379060734	628.601674338323	-5.22835669200708	-15.6116362483733	0.428347834803168	-0.376132820012774	-0.0032552982522791	-0.000667300519095915
0.97	-1.19633163844259	1.7445456245066	628.344145047848	-5.24761835401756	-15.651473231214	0.418778727876671	-0.365337737117065	-0.00329210632137977	-0.000744266814536709
0.98	-1.04571799379241	1.84818444163532	627.732922824907	-5.26280878812669	-15.6719812317843	0.40830215258275	-0.353411387728637	-0.00332722011198805	-0.000804429235054749
0.99	-0.946333844272963	1.94374870354984	626.815001239614	-5.27173823439633	-15.666539881924	0.397676688302181	-0.341174322161641	-0.00335649054471643	-0.000835265587771583
1	-0.919294373032472	2.02269476368994	625.681864603939	-5.27411461059342	-15.6318159082717	0.38787348962497	-0.329652110443329	-0.00337818913132171	-0.000827713566584232
1.01	-0.973055323709163	2.07876030013516	624.454247254617	-5.27119274602117	-15.567984901257	0.38000450890616	-0.320046082066198	-0.00339265144254708	-0.000777146430014641
1.02	-1.10126787099606	2.10769903124006	623.261089714162	-5.26497895728915	-15.4781306672724	0.375138022528717	-0.313574669328581	-0.00340129150357604	-0.000683270828676474
1.03	-1.2845219653193	2.10721228363395	622.217976663007	-5.25725030136866	-15.3670669184131	0.374023130955744	-0.311189923260545	-0.00340533173002056	-0.00054912488507064
1.04	-1.49546136790089	2.07728293535425	621.41047802436	-5.24869889914582	-15.2399881977623	0.376808369461991	-0.313252247792505	-0.00340467179420856	-0.000379607895201362
1.05	-1.70567972286753	2.02078865366739	620.886293372754	-5.23846643829411	-15.1013819438605	0.382873478701184	-0.319296650592394	-0.0033972664919889	-0.000180073424613458
1.06	-1.8922803754692	1.94399740550634	620.657369324218	-5.22420934304941	-14.9545183069154	0.390873812977418	-0.328015155205378	-0.00337921862771673	4.45581783424243e-05
1.07	-2.04217848723754	1.85645516068797	620.71008232016	-5.20267224070178	-14.8016194763098	0.399025774685744	-0.337509985191274	-0.00334557258518231	0.000289933218551308
1.08	-2.1530482290033	1.76991454245699	621.019145159649	-5.17059611206728	-14.6445665253003	0.405567205747214	-0.345768389937547	-0.00329158448984312	0.000551702636904239
1.09	-2.23095804775412	1.69628144647642	621.559896849965	-5.12569103796483	-14.4858082414374	0.409250070573826	-0.351217228936142	-0.00321410458826688	0.000824592392142387
1.1	-2.2857930258128	1.64495483633398	622.314414870268	-5.06738711848649	-14.3290573862102	0.409698994062847	-0.353174547536771	-0.0031126729811638	0.001101589061764
1.11	-2.32619386401001	1.62025141876348	623.269229692564	-4.99714309015315	-14.1794251483854	0.4075107543795	-0.352044957786789	-0.00299000735230848	0.00137370708738321
1.12	-2.35577108904255	1.61971492923025	624.405594404501	-4.91821958969323	-14.0428382935627	0.404060809579298	-0.349193979288636	-0.00285172660388133	0.00163061333663717
1.13	-2.37180933047348	1.63395416287656	625.686227046941	-4.83497516720261	-13.9248451669406	0.401086207313919	-0.346547338725979	-0.0027053597416723	0.00186207709868014
1.14	-2.36676718090963	1.64826963725561	627.044164845214	-4.7518741024851	-13.8291572502414	0.400188047987277	-0.346050340545999	-0.00255887731123539	0.0020598938295337
1.15	-2.33191519535747	1.64582642139377	628.379172011905	-4.67246858520138	-13.7564037259739	0.402413259673664	-0.349157133910065	-0.0024191018060441	0.0022197169409251
1.16	-2.26175478436992	1.61165913227817	629.564976970543	-4.59861460399126	-13.7035422847265	0.40803255915624	-0.356492132830615	-0.00229037344815408	0.00234221106480037
