Time [s]	GRFml [N]	GRFap [N]	GRFv [N]	Mml [N.m]	Map [N.m]	Mv [N.m]	Mfree [N.m]	COPml [m]	COPap [m]
0.01	8.47631709923609	6.4057853546534	715.059530226843	-41.6336591450719	2.28390496435391	0.243697587300155	0.716597093045156	0.00114583428747053	-0.00989497857980372
0.02	8.11275306270543	6.25355467468957	715.394523474406	-41.6573788848682	2.34193902816824	0.21219921712183	0.664042477102677	0.00123401355844063	-0.00988198776912149
0.03	7.75687925770398	6.10095719184134	715.672521424228	-41.6766611225113	2.40093699023365	0.181793528799213	0.613005882533952	0.00132285298350248	-0.00987313119956809
0.04	7.41581430832955	5.94932510893595	715.864862367235	-41.6890839911091	2.46123623599076	0.153241733447889	0.564652418321496	0.00141295026012945	-0.00986944073184375
0.05	7.09616013016124	5.80011165307791	715.94582526595	-41.6924316154576	2.52313782028178	0.127216262486125	0.520030305066316	0.00150491215338091	-0.0098717707218706
0.06	6.80373332911233	5.6548919786695	715.894320548214	-41.6848313594046	2.58686350580269	0.104266246208639	0.480020464399607	0.00159927388018202	-0.00988076540417984
0.07	6.54333939732395	5.51534715897912	715.695358361472	-41.6648739084368	2.65252031341035	0.0847909044349104	0.445296341645269	0.00169642493691046	-0.00989683824288973
0.08	6.31860115145926	5.38322931660719	715.341196955003	-41.6317083166021	2.72007530756579	0.0690225717288228	0.416296479963806	0.00179654785275873	-0.00992016330648905
0.09	6.13184901995687	5.2603080732736	714.832093474726	-41.5851057144117	2.78934222764155	0.0570203260846006	0.393211382281735	0.00189957481815914	-0.0099506782096552
0.1	5.98407666764091	5.14830063149443	714.176603706095	-41.5254873332717	2.8599804371885	0.0486743926327385	0.375985134843959	0.00200516527280791	-0.00998809777990436
0.11	5.87496137167757	5.04878971453666	713.391404625601	-41.4539147254173	2.93150560920248	0.0437207185722867	0.364331213021409	0.00211270556138946	-0.0100319373063981
0.12	5.80294481450416	4.96313510505763	712.500642355574	-41.3720424062631	3.00331067899039	0.0417644199136255	0.357760927218599	0.00222132987383337	-0.0100815439725562
0.13	5.76536676353354	4.89238550465971	711.534836558655	-41.2820354730864	3.07469493199104	0.0423102317325006	0.355622162391201	0.00232996004055206	-0.0101361348352154
0.14	5.75864162557893	4.83719780982797	710.529398798802	-41.1864569176999	3.14489867898408	0.0447976857760234	0.357145470212532	0.00243736046571894	-0.0101948394795576
0.15	5.77846618900018	4.79777064670662	709.522845404135	-41.0881312206931	3.21314080776166	0.0486385127765904	0.361494220676801	0.00254220361910934	-0.0102567452560644
0.16	5.82004602507168	4.77379816700132	708.554803574556	-40.9899922801091	3.27865656969735	0.0532537278084137	0.367815421993181	0.00264314108921558	-0.0103209428116175
0.17	5.87832797887618	4.76444876914601	707.663921853225	-40.8949247035676	3.34073322642547	0.0581079978384492	0.375287966008032	0.00273887520718342	-0.0103865694877473
0.18	5.94822685666608	4.76837170120467	706.885801945038	-40.8056079262468	3.39874159935874	0.062739191324354	0.3831654246279	0.00282822663086161	-0.010452848103509
0.19	6.0248356919726	4.78373257865343	706.251067927875	-40.724372487609	3.45216208010919	0.0667814401235478	0.390811068939013	0.00291019395686394	-0.0105191186946347
0.2	6.10361070466241	4.80827687495632	705.78368128213	-40.6530771206144	3.50060421881277	0.0699805663913541	0.397723453956806	0.00298400231896644	-0.0105848609644605
0.21	6.18052410396009	4.83941857381935	705.499596377275	-40.5930141233311	3.54381955877243	0.0722012993880452	0.40355164922601	0.00304913894192591	-0.0106497055271819
0.22	6.2521800789952	4.87434954772855	705.4058319781	-40.5448488670731	3.58170788541108	0.073426285790921	0.40809993929119	0.00310537466234858	-0.0107134324921572
0.23	6.31589153188323	4.91016395589847	705.500011145185	-40.5085973428797	3.61431747054015	0.0737474408160035	0.411322513398607	0.00315277142282437	-0.0107759565411433
0.24	6.36971722134486	4.9439911066409	705.770396001503	-40.4836434713485	3.64184019605028	0.0733506597371332	0.413309264584596	0.0031916766256365	-0.0108372983705099
0.25	6.41246090560138	4.97312983487717	706.196416744878	-40.4687956215846	3.66460262302704	0.0724952812213934	0.414264290417877	0.00322270594749266	-0.010897543180082
0.26	6.44363573277531	4.99517749705605	706.749667559261	-40.4623795287618	3.68305413340348	0.0714899455102918	0.414479010507591	0.00324671673393035	-0.0109567877529066
0.27	6.46339848003946	5.00814714183775	707.395317205278	-40.4623626887833	3.69775322239297	0.0706666123806233	0.414301982532611	0.00326477439591546	-0.0110150785415254
0.28	6.4724592650594	5.01056720882689	708.093860388629	-40.4665034559175	3.70935288025214	0.070354496958409	0.414107514505758	0.00327811432273471	-0.0110723440053841
0.29	6.47197303802212	5.00155915635346	708.803118624122	-40.4725165736759	3.71858579633215	0.070855556470254	0.414265052046921	0.00328810172002931	-0.0111283251754015
0.3	6.46341951654451	4.98088963285462	709.480387063717	-40.4782458101229	3.72624987481777	0.0724229367235238	0.415111088934674	0.00329619150691439	-0.0111825089982556
0.31	6.44847826610232	4.94899509645219	710.084617153831	-40.4818338030754	3.73319429825524	0.0752434884131821	0.4169250351491	0.00330388999754774	-0.011234069378873
0.32	6.42890538004402	4.90697807405238	710.578524216251	-40.4818791798421	3.74030613804866	0.0794251187493374	0.419910109022333	0.00331271959221878	-0.0112818209445435
0.33	6.40641770626132	4.85657546843423	710.930513971628	-40.4775715052034	3.74849731265277	0.0849893828257766	0.424179928706871	0.00332418715653839	-0.0113241903570195
0.34	6.38258983734468	4.80010041946517	711.11633220999	-40.4687956085187	3.75869155092109	0.091869369445782	0.429751090574725	0.00333975622172865	-0.0113592094725984
0.35	6.35876816678973	4.74036017128584	711.120356567675	-40.4561982989428	3.77181094057568	0.0999126217808588	0.436541662494421	0.00336082264139224	-0.0113845337849302
0.36	6.33600525850255	4.68055317522114	710.936467798845	-40.4412123265584	3.78876163433807	0.108888572660045	0.444375207789759	0.00338869293585919	-0.011397488393131
0.37	6.3150166267924	4.62414926708197	710.568458995228	-40.4260345972079	3.81041834718236	0.118499779178451	0.45298970537675	0.00342456428587128	-0.0113951422554374
0.38	6.29616082823689	4.5747572076265	710.029963795753	-40.413557995402	3.8376074004113	0.128396116325127	0.462050551624651	0.00346950503784722	-0.0113744097799107
0.39	6.27944257584621	4.53598418385916	709.343907613537	-40.4072585984774	3.87108824041963	0.138191032442847	0.471166722358613	0.00352443467729432	-0.0113321769600639
0.4	6.26453745049672	4.51129205704253	708.541508214216	-40.4110424571887	3.91153356745423	0.147478972901878	0.479909135565081	0.00359010252309908	-0.0112654474021859
0.41	6.25083575349932	4.50385522952886	707.66087262894	-40.4290583549812	3.95950843566623	0.155853130673492	0.487830277654829	0.00366706487987086	-0.0111715018507783
0.42	6.23750216238436	4.51642499967113	706.745255536035	-40.4654849280727	4.0154489125458	0.162922769553612	0.494484224838052	0.0037556610183536	-0.0110480633485831
0.43	6.22354715848721	4.55120518616715	705.84105921657	-40.5243021296556	4.07964109571314	0.168329473265014	0.499446289430369	0.00385598906687515	-0.0108934591156703
0.44	6.20790572063328	4.60974362406009	704.995666471828	-40.6090581673953	4.15220146116664	0.171761788534236	0.502331630883425	0.00396788359562378	-0.0107067697260139
0.45	6.18951854521555	4.69284384867391	704.255205145471	-40.7226436659764	4.23305964426929	0.172967842124184	0.502812276624894	0.00409089724865963	-0.0104879562896158
0.46	6.16741106893763	4.80050086884855	703.662345940672	-40.8670848595675	4.32194482014466	0.171765613798924	0.500632085996016	0.00422428911236111	-0.0102379571476258
0.47	6.14076583375953	4.93186436288353	703.254234027315	-41.0433670811493	4.41837684394891	0.168050636098809	0.495619255394585	0.00436702250826294	-0.00995874702387699
0.48	6.10898422854264	5.08523188936092	703.06064958907	-41.2512986918508	4.52166322757029	0.161800967787321	0.487696005172979	0.00451777450831428	-0.00965335354634377
0.49	6.07173434031584	5.25807378006419	703.102483170518	-41.4894239172605	4.63090286587124	0.153079353675523	0.476885117069192	0.00467495869577975	-0.00932582839436041
0.5	6.02898251019074	5.44709027813643	703.390598760463	-41.7549908915183	4.74499718561976	0.142032543556974	0.463313018639285	0.00483676160743514	-0.00898117284243086
0.51	5.98100716535929	5.6483002247246	703.925141399843	-42.0439786444911	4.8626690818281	0.128887801901367	0.447209154525893	0.00500119202704636	-0.00862521995136192
0.52	5.92839453308401	5.85715922513532	704.695327245141	-42.351183919129	4.98248964247232	0.113946701787597	0.428901458442583	0.00516614103310398	-0.00826447791743282
0.53	5.87201687540448	6.06870380383181	705.67973307347	-42.670365713791	5.10291226132886	0.0975763638415963	0.408807854556961	0.00532944962176312	-0.00790594099312302
0.54	5.81299485483476	6.27771666545206	706.847079920002	-42.9944424625601	5.22231332164216	0.0801983742469788	0.387423874855425	0.00548897998776101	-0.00755687586104011
0.55	5.75264649580215	6.47890690642312	708.157482742811	-43.3157339583075	5.33903822494573	0.0622756937047098	0.365306673420151	0.00564268625089731	-0.00722459235523813
0.56	5.69242589537456	6.6670979628686	709.564115669586	-43.6262376506028	5.45145116524527	0.0442979481579077	0.343055934299896	0.0057886805841314	-0.00691620800085201
0.57	5.63385532157122	6.83741532585619	711.015221531325	-43.9179269645111	5.55798673415784	0.0267655673913382	0.321292385625975	0.0059252912731643	-0.00663841602166702
0.58	5.57845459263135	6.98546568310216	712.456376107973	-44.1830579162686	5.65720121057872	0.0101733036675428	0.300634824848729	0.00605111009648669	-0.00639726628054377
0.59	5.52767164506056	7.10749921542618	713.832902863659	-44.4144696456072	5.74782125839027	-0.00500628641969292	0.281676705432462	0.00616502740694636	-0.00619796808835549
0.6	5.48281797690848	7.20054731770895	715.092323915155	-44.605864599789	5.82878774189905	-0.0183387831243838	0.264963415370669	0.00626625426953267	-0.00604472294539458
0.61	5.44501221633684	7.26252902646382	716.186728376168	-44.7520550026147	5.89929247915758	-0.0294426484374004	0.250971380655739	0.00635433184343369	-0.00594059406042504
0.62	5.41513444985516	7.29232088258774	717.074940632867	-44.849163884858	5.95880598920205	-0.0380021780704179	0.240090048800486	0.0064291288151084	-0.00588741793154769
0.63	5.39379319798309	7.28978676635115	717.724378804204	-44.8947712541895	6.00709464424868	-0.0437781166122432	0.23260765356746	0.00649082807129253	-0.0058857614005078
0.64	5.38130610579298	7.25576630841378	718.112507531403	-44.8879988119608	6.04422609835455	-0.0466154745048931	0.228701444724004	0.00653990397083506	-0.00593492547558515
0.65	5.37769458305914	7.19202267683807	718.227808836697	-44.8295298144766	6.07056240919202	-0.0464481958586761	0.228432804302586	0.00657709158842839	-0.00603299496445785
0.66	5.38269184328276	7.10115272156093	718.070219207135	-44.7215640360063	6.08674087233087	-0.0433004602123703	0.231747385485773	0.00660334923294343	-0.00617693070618416
0.67	5.39576310518615	6.98646447663104	717.65100904328	-44.5677111165849	6.09364321557208	-0.0372845531471112	0.238480124825545	0.00661981545816901	-0.00636269909708308
0.68	5.41613617487998	6.85182873740795	716.992110609169	-44.3728286691362	6.09235441876013	-0.0285954025327994	0.248364714480359	0.00662776174024379	-0.00658543182431037
0.69	5.44284024695756	6.70151272615015	716.124930861372	-44.142814193835	6.08411299500012	-0.0175020402433533	0.261046896270213	0.00662854202798561	-0.0068396073891425
0.7	5.47475055669684	6.54000464717928	715.088714157097	-43.8843619485294	6.07025505609981	-0.00433640383989164	0.276100766252521	0.00662354048855788	-0.00711924521962866
0.71	5.51063647578537	6.37183816264841	713.92854501337	-43.6046973378589	6.0521548555363	0.0105199707006389	0.293047164147408	0.00661411895604702	-0.00741810299303892
0.72	5.54921074949693	6.20142548473824	712.693101148416	-43.3113020428917	6.03116472941554	0.0266507048213021	0.311373167795954	0.00660156580879715	-0.00772986821446559
0.73	5.5891777933951	6.03290691515258	711.432280614959	-43.011643001018	6.0085574210334	0.0436200474103586	0.330551715957417	0.00658704820298643	-0.00804833608002835
0.74	5.62927926662382	5.87002334216321	710.194832971018	-42.7129174968025	5.98547366903057	0.060988292325942	0.350060437074372	0.00657156971915139	-0.00836756709689666
0.75	5.66833548016044	5.71601653514138	709.026122652774	-42.4218251202585	5.96287766515337	0.0783263901309473	0.369398859395367	0.00655593548243714	-0.00868201970722923
0.76	5.70528154872501	5.5735601850432	707.966143078405	-42.1443753117615	5.94152255910744	0.0952290610778107	0.388103310730387	0.0065407266557804	-0.00898665511474424
0.77	5.73919752719097	5.44472266694691	707.047883127681	-41.8857367954942	5.9219276295545	0.111325821586845	0.405758975938635	0.00652628585795317	-0.00927701347672136
0.78	5.76933206719	5.33096058812256	706.296124626884	-41.6501325776771	5.9043680858695	0.126289480974456	0.422008759107404	0.00651271453137852	-0.00954926244139724
0.79	5.79511937675198	5.23314046239333	705.726721876076	-41.4407815295966	5.88887775570273	0.139841839971897	0.436558787394915	0.00649988261154868	-0.00980022054080561
0.8	5.81618946320213	5.1515844286836	705.346383967027	-41.2598850591795	5.87526419351837	0.15175651553789	0.449180586366419	0.00648745008887661	-0.0100273590841012
0.81	5.83237179204612	5.08613489061219	705.152949726005	-41.1086551499788	5.86313506062048	0.161859013273013	0.459710143219603	0.00647489927952331	-0.0102287868703335
0.82	5.84369261202682	5.03623234333402	705.136115681949	-40.987378235033	5.85193402055462	0.170024353976841	0.468044244540176	0.0064615759138695	-0.0104032222344172
0.83	5.85036629127341	5.0010004860405	705.278551489031	-40.895508060421	5.84098390221953	0.176172719462977	0.474134618592595	0.00644673658209845	-0.0105499566860894
0.84	5.85278109396789	4.97933297035317	705.557316429688	-40.8317799236957	5.82953453518594	0.180263701381577	0.477980518398692	0.00642959969976988	-0.0106688137730386
0.85	5.85147991174676	4.96997675070685	705.945476291912	-40.7943384479772	5.81681247601658	0.182289805400993	0.479620442288319	0.0064093970009579	-0.0107601059041434
0.86	5.8471365561124	4.97160790100221	706.413812853961	-40.7808713359824	5.80206982803517	0.182269875879675	0.479123697403536	0.00638542263407883	-0.0108245908354186
0.87	5.84052831989855	4.98289684295075	706.93251866551	-40.7887422680902	5.78462950597698	0.180243062332292	0.476582467054837	0.00635707720353306	-0.0108634284838827
0.88	5.83250562491594	5.00256108859192	707.472777466221	-40.8151171666198	5.76392459680504	0.176263852972835	0.472104947933115	0.00632390452896951	-0.0108781378178998
0.89	5.82395968237806	5.02940472815457	708.008144582522	-40.8570793297581	5.73952989529453	0.170398561644697	0.465809985948731	0.00628561943439397	-0.0108705528794426
0.9	5.81578919206775	5.06234490307704	708.51566069508	-40.911730321239	5.71118421741067	0.162723485692668	0.457823472140534	0.00624212548100487	-0.0108427765957128
0.91	5.80886718282688	5.10042632165585	708.976654844449	-40.9762748679041	5.67880268094618	0.153324769547867	0.44827657789044	0.00619352217437745	-0.0107971309694427
0.92	5.80400913789677	5.14282545687178	709.377216618699	-41.048089261816	5.64247875382974	0.142299828699999	0.437305728053256	0.00614010176995998	-0.0107361024957288
0.93	5.80194354260823	5.1888463966516	709.708341280427	-41.1247738029187	5.6024764682962	0.129760027307376	0.42505404739091	0.00608233634115956	-0.0106622821993488
0.94	5.80328593106672	5.23791040828435	709.965773384473	-41.2041905953026	5.5592137480421	0.115834173645626	0.411673883358694	0.00602085624031288	-0.0105783004507963
0.95	5.80851738983188	5.28954116696432	710.149592698115	-41.2844884974904	5.51323826389338	0.100672311112565	0.397329916657508	0.00595642146029993	-0.01048675760984
0.96	5.81796830292625	5.3433473370056	710.263599802054	-41.3641172270987	5.46519759548563	0.0844492444936419	0.382202325506596	0.00588988768464181	-0.0103901524573058
0.97	5.83180790246916	5.39900384621466	710.314566894303	-41.4418325621787	5.41580571338203	0.0673672529937669	0.366489471299072	0.00582216899188054	-0.0102908112011751
0.98	5.8500399366608	5.45623282340926	710.31142178224	-41.5166943172432	5.36580789770879	0.049657500156761	0.350409619123136	0.00575419925426034	-0.010190820481609
0.99	5.87250449931564	5.51478483367808	710.264430043325	-41.5880583689093	5.31594617456184	0.0315797495057331	0.334201290270192	0.00568689424231094	-0.0100919681676934
1	5.89888580190287	5.5744207902605	710.18443250709	-41.6555635397472	5.26692718797949	0.013420124031829	0.318121956770536	0.00562111631970998	-0.00999569577812219
1.01	5.92872542862043	5.63489477318392	710.082183563829	-41.7191136949566	5.21939414947676	-0.00451320371139552	0.302444920427185	0.00555764339372651	-0.00990306604119665
1.02	5.96144041294045	5.69593795104252	709.967821602069	-41.7788550330414	5.17390414249727	-0.0218963480946713	0.287454360626548	0.00549714348628849	-0.00981474844305879
1.03	5.99634532104852	5.75724387262833	709.850487521674	-41.8351483129454	5.13091163454046	-0.0383978787981895	0.273438676561502	0.00544015592419946	-0.00973102463782519
1.04	6.03267742852903	5.81845554222109	709.738092181823	-41.8885356915598	5.09075859719636	-0.0536884892609105	0.260682381336759	0.00538707973370467	-0.00965181438095967
1.05	6.06962403034354	5.87915487682823	709.637220134334	-41.9397019609141	5.05367118657385	-0.0674517197783937	0.24945691972742	0.00533816938816963	-0.00957672129403347
1.06	6.10635092403186	5.93885531969427	709.553146156141	-41.9894302651711	5.01976252456599	-0.0793952065763852	0.240010871407672	0.00529353762499483	-0.00950509638666604
1.07	6.14203114152222	5.99699850589378	709.489933717821	-42.0385528143719	4.98904077193427	-0.0892618796367997	0.232560062046218	0.00525316464736511	-0.00943611596647068
1.08	6.17587306315336	6.05295590266258	709.450581033419	-42.0878976478572	4.96142141827218	-0.0968405200814233	0.227278132315318	0.00521691268526072	-0.00936886947052665
1.09	6.20714711551826	6.1060362505907	709.437180771119	-42.1382330760493	4.93674254521166	-0.101975111887403	0.224288108102185	0.00518454463171471	-0.00930245194589343
1.1	6.23521032141615	6.15549939870876	709.45106353458	-42.190211978921	4.91478175343796	-0.104572479614216	0.223655474725024	0.00515574531148149	-0.00923605546046868
1.11	6.25952802800186	6.20057676147241	709.492902197596	-42.2443185970888	4.8952734787505	-0.104607788611062	0.22538318662759	0.00513014388852481	-0.00916905367677739
1.12	6.27969218545569	6.2404981512997	709.562763189116	-42.3008207573758	4.87792554758046	-0.102127590221498	0.229408946814475	0.00510733597512658	-0.00910107417460602
1.13	6.29543558596255	6.27452419522192	709.660100828725	-42.3597305811366	4.86243402166689	-0.0972502142267978	0.235604973886713	0.00508690415897097	-0.00903205383621904
1.14	6.3066415096342	6.30198297893341	709.783700705566	-42.4207765991068	4.84849563379779	-0.0901634363235138	0.243780346844979	0.00506843589759483	-0.00896227365464573
1.15	6.31334827269312	6.32230903314353	709.931586837797	-42.4833898287698	4.83581739751643	-0.0811194723850162	0.253685887299221	0.00505153801893648	-0.00889237061394876
1.16	6.31574824861451	6.33508234294635	710.100914061928	-42.546705767443	4.82412325848362	-0.0704274671897932	0.265021413650411	0.00503584738621007	-0.0088233257291687
1.17	6.31418104962821	6.34006477211426	710.2878711309	-42.6095834449018	4.81315791995611	-0.0584437482149816	0.277445089631919	0.0050210376083879	-0.00875642882523825
1.18	6.30912072546871	6.33723119020321	710.487620979102	-42.6706417101319	4.8026881988266	-0.0455602016274167	0.290584496308029	0.00500682197930051	-0.00869322208203849
