Time [s]	GRFml [N]	GRFap [N]	GRFv [N]	Mml [N.m]	Map [N.m]	Mv [N.m]	Mfree [N.m]	COPml [m]	COPap [m]
0.01	-0.422703472167158	1.05019570677962	612.242407217631	7.63761297421531	24.5289293813566	0.485444585973933	-0.532766669658979	0.000444383992718955	-0.00778031007841745
0.02	-0.632073080441646	1.14287249626829	612.457802998798	7.63727306861135	24.6354990139927	0.48196824598593	-0.535835447135308	0.000442280932078654	-0.007619448320065
0.03	-0.8247722537712	1.24419830804416	612.629953057351	7.62838204226789	24.7342625546605	0.477803194125402	-0.538338096047282	0.000426947068579486	-0.00746828411086281
0.04	-0.987251230843153	1.3589430643834	612.724754026573	7.60500233777786	24.8185054584125	0.472480759578428	-0.539813782505534	0.000389264247779075	-0.0073353853807111
0.05	-1.11145850177186	1.48555180265042	612.728438857797	7.56473895423263	24.8846153913048	0.465980329359351	-0.540069366669254	0.000325547254025338	-0.00722569136530504
0.06	-1.19601155100891	1.6161797995692	612.651523426224	7.50893014821063	24.9328935983887	0.458786034717219	-0.539253396542297	0.000237784304656818	-0.00713945911456376
0.07	-1.24580980793284	1.73901857270807	612.526194371531	7.44177892162089	24.9674086412004	0.451783426294254	-0.537841438494386	0.000132262207274803	-0.00707230960408234
0.08	-1.2702177448006	1.84190493801569	612.39777999316	7.36885303386575	24.994886401639	0.446025515045303	-0.536523346325074	1.72659124358931e-05	-0.0070164339664871
0.09	-1.28031778070919	1.9158727892973	612.312645801867	7.29553240747283	25.0228918126459	0.442438791193991	-0.536015791049914	-9.92419461272043e-05	-0.00696271196953963
0.1	-1.28596808353382	1.95751153719398	612.305902657579	7.22589442776404	25.0577688420451	0.441558663992371	-0.536853436476912	-0.000211220762977415	-0.00690322032627261
0.11	-1.2934387098217	1.96954570627483	612.392348052648	7.16227973407687	25.1028948222049	0.443373473376797	-0.539224449923246	-0.000315097342426185	-0.00683346020575021
0.12	-1.30423016884932	1.9596858573186	612.563065537696	7.10549704013989	25.1577368753087	0.447320325863795	-0.542903514000254	-0.000409370082341431	-0.00675367199390681
0.13	-1.31534415443381	1.93830328773196	612.78841575982	7.0554153229182	25.2179833952136	0.452427005083444	-0.547302436158948	-0.000493697369448154	-0.00666883697323295
0.14	-1.32086822008179	1.91573007892469	613.026310787474	7.01161614446571	25.2767217826228	0.457549165936096	-0.551618231987186	-0.000567984538716204	-0.0065873315231173
0.15	-1.31437209165986	1.89996368714884	613.233234084352	6.97383949562447	25.3263360763141	0.461626468419843	-0.555027441803531	-0.000631857806662528	-0.00651858921830328
0.16	-1.29139981690654	1.89531778670167	613.374852230441	6.94210682498754	25.3605974542603	0.463883392256702	-0.556865176275348	-0.000684656716547383	-0.00647041477099786
0.17	-1.25133873217324	1.902207713996	613.433393208225	6.91657330834906	25.3763773051867	0.463927679257874	-0.55674019963184	-0.00072580820717294	-0.00644668974698287
0.18	-1.19814703352791	1.91790487570759	613.410087418177	6.89727843003085	25.374533296053	0.461739523773212	-0.554565664453324	-0.000755275751232687	-0.00644609085781794
0.19	-1.13975981489961	1.93784553839263	613.322507100702	6.88398636172859	25.3597574403194	0.457581233511607	-0.550515815107907	-0.000773769189007734	-0.00646215664761823
0.2	-1.08636585283976	1.95700325635352	613.198113946192	6.87623371901085	25.3394549976036	0.451876298033122	-0.544939754124488	-0.000782548360918622	-0.00648468012230602
0.21	-1.04804733375182	1.97093620427805	613.066281003835	6.87357249491674	25.3219670723035	0.445103282265798	-0.538267817041945	-0.000782882078463554	-0.00650206942882076
0.22	-1.03242215158102	1.97633884281387	612.951215854834	6.87587621033869	25.314602476852	0.437728745112083	-0.530935806020359	-0.000775421203439985	-0.00650407912061196
0.23	-1.04289266358858	1.9711569251604	612.867578726392	6.88352878481405	25.3219783208595	0.430177071191611	-0.523335244918018	-0.000759811498115659	-0.00648421648370012
0.24	-1.07791197851523	1.95446574700965	612.819452113671	6.897364209877	25.3450812030102	0.422817360768244	-0.515783740454856	-0.000734772089749036	-0.00644119480923822
0.25	-1.13139956441574	1.92631574977249	612.802144879432	6.91834705222147	25.3812708118969	0.415945975353321	-0.508504830016801	-0.000698646211256815	-0.00637903826773262
0.26	-1.1941581716922	1.88764274115598	612.805551393334	6.94711747725649	25.4251968482339	0.409755952404779	-0.501611296850263	-0.000650200547562707	-0.00630580246204682
0.27	-1.25593209687825	1.84020311347282	612.817670128142	6.98360280413418	25.4703520412741	0.404301772345645	-0.495094479354794	-0.000589320793778492	-0.00623127220808761
0.28	-1.30763387272081	1.78641529088939	612.827343263661	7.02688252681222	25.5108122668645	0.399479251380185	-0.488828114554209	-0.000517283810406721	-0.00616430835190279
0.29	-1.34325035786883	1.72901159128279	612.825981271427	7.07539309733762	25.5426780799968	0.395039965402349	-0.482595135234	-0.000436462034849483	-0.00611062088998043
0.3	-1.36100462899331	1.67050997016679	612.808581405692	7.1274184195202	25.5648468457042	0.390648820519885	-0.476140070077016	-0.000349552083036886	-0.00607159285076309
0.31	-1.36348753967904	1.61263814144256	612.774476676985	7.18169091802353	25.5789723804678	0.385977796544692	-0.469241202021331	-0.000258617134497263	-0.006044414609366
0.32	-1.35667976542406	1.55591507547684	612.72797780828	7.23787247696772	25.5887271513817	0.380814544413761	-0.461788484320116	-0.000164317903878719	-0.00602334763844453
0.33	-1.34804810634649	1.49957853590383	612.678651164581	7.29671373284166	25.5986772960641	0.375155722676913	-0.453847675007032	-6.56535565536354e-05	-0.00600158998852379
0.34	-1.34417272908735	1.4419443990756	612.640730881155	7.35979504993417	25.6131480235049	0.369254355079867	-0.445690116869418	3.96381686950109e-05	-0.00597309068766849
0.35	-1.34856211439892	1.38112906177461	612.631277029186	7.42890082008692	25.63538653263	0.363599439237388	-0.437772694820254	0.000154108887143178	-0.00593378481269519
0.36	-1.36034506123901	1.31591420629093	612.667114680585	7.5052224891819	25.6671682457942	0.35882377635183	-0.430664071850019	0.000279368012150893	-0.00588201495668744
0.37	-1.37433489035492	1.24644202100997	612.761094612352	7.58867182884519	25.7088180487555	0.355558344916152	-0.424929001955179	0.000415036476382968	-0.0058182247451693
0.38	-1.38256131200032	1.17444481021472	612.918548779925	7.67757388428669	25.7595018901763	0.354271197526211	-0.420997400720842	0.000558307938013813	-0.00574422309754691
0.39	-1.37687590302307	1.10284995518341	613.134825389889	7.76889128818536	25.8176166225941	0.355138103849053	-0.419053372247291	0.00070435126472923	-0.00566236336620368
0.4	-1.35183414057276	1.03482703517567	613.394499707041	7.85894468596158	25.881151316918	0.357986506794983	-0.418977966375592	0.000847491012493373	-0.00557488721914995
0.41	-1.306906318345	0.972581215547423	613.672420410424	7.94440798394438	25.9479668418145	0.362334686267364	-0.420367798432943	0.000982807150410436	-0.00548353277758717
0.42	-1.24725090097945	0.916346940943267	613.936360039051	8.02324663455123	26.0159992790992	0.367520086044946	-0.422632392804109	0.00110761952258842	-0.00538938355587237
0.43	-1.18274798031493	0.864018976239204	614.150826603284	8.09527821291049	26.0834170543525	0.372882766615335	-0.425150446130052	0.00122234019194289	-0.00529288034461228
0.44	-1.12557386355505	0.811655256843161	614.281578016251	8.16216450592749	26.1487572943997	0.377950040921843	-0.42744440714859	0.0013303852255423	-0.00519392357073184
0.45	-1.08708662734535	0.754760394482375	614.300458873382	8.22684373790429	26.2110516405092	0.382563040500222	-0.429320219147793	0.00143715971198821	-0.00509202251595814
0.46	-1.0750083437481	0.689936339252911	614.190191484894	8.29260463751392	26.2699391881164	0.386899040714514	-0.43092153546946	0.00154844631603102	-0.00498646700725586
0.47	-1.09175949901076	0.616304788193652	613.948591228883	8.362118805387	26.3257566936536	0.39137424744462	-0.432669363949354	0.00166872283699893	-0.00487649617574243
0.48	-1.13438301821868	0.536149264926381	613.591379840711	8.43674388817123	26.3795886975101	0.39645337518778	-0.435096154876897	0.00179993980154836	-0.00476142938786372
0.49	-1.19595166430389	0.454485678781618	613.152548773482	8.51629380052777	26.4332499604041	0.402430922345241	-0.438625792856914	0.00194110897078503	-0.00464072630032236
0.5	-1.26788308785163	0.377651649028789	612.681359820978	8.59929331474473	26.4891651396822	0.40926771371724	-0.443379494403453	0.00208876085740928	-0.0045139668584338
0.51	-1.34235083211323	0.311363524765527	612.235729623205	8.68356469119061	26.5501173033652	0.416552772893761	-0.449086107615341	0.0022380367187409	-0.004380780578846
0.52	-1.41404031471599	0.258894432645175	611.872822521014	8.76689795197311	26.6188656761988	0.423615188770599	-0.455139378715805	0.00238399562628244	-0.00424078623299878
0.53	-1.48080889289451	0.220004786832777	611.638780982085	8.84756424906418	26.6976799480259	0.429749196333491	-0.460786554888985	0.00252269978274378	-0.00409360616309634
0.54	-1.54323718283954	0.191016433508469	611.560148240138	8.92452897589527	26.7878863458321	0.434464477222163	-0.465377009494085	0.00265178079339223	-0.00393898579091967
0.55	-1.60344152270574	0.166043037078097	611.639326639098	8.99735794838439	26.8895463788217	0.437657411363704	-0.468572208135446	0.0027704145310965	-0.00377699079841343
0.56	-1.66371863304907	0.13899610441686	611.855356276237	9.06592578951003	27.0013749390998	0.439627979210993	-0.470432941088196	0.00287884530466431	-0.00360820041796805
0.57	-1.72555263628508	0.105707336096633	612.169742564996	9.13008694107967	27.1209468065415	0.440930715173447	-0.471350560701385	0.00297772196002644	-0.00343379622848961
0.58	-1.78926925309012	0.0654406832639504	612.535563533717	9.18944633968185	27.2451537572097	0.442119216161798	-0.471853493809824	0.003067509031768	-0.00325547865855869
0.59	-1.85429277705124	0.0212460227120628	612.90717698854	9.24329236026626	27.3707874837325	0.443490684749364	-0.472370396393346	0.00314813995874585	-0.003075218952795
0.6	-1.91970025172243	-0.0210137457699648	613.247832293773	9.29067234273333	27.4950717165551	0.444938845769501	-0.47304634958687	0.00321894844318593	-0.0028949377626909
0.61	-1.98468804456348	-0.0546677960729122	613.533363582762	9.33054190223472	27.6159781961732	0.445979428201925	-0.473684015574128	0.00327881428913557	-0.00271624719735997
0.62	-2.04869047331535	-0.0745959767070489	613.751589101346	9.36192215726979	27.7322410001451	0.445941557726038	-0.473830075724453	0.00332642934600291	-0.00254036973398042
0.63	-2.11113871421054	-0.0791043038318101	613.898552400259	9.38404168184418	27.8431065048355	0.444251303116642	-0.472971066852825	0.00336062017510674	-0.00236825905176591
0.64	-2.17108292060609	-0.0706247629415211	613.973768532772	9.396486399766	27.9479706907586	0.440698095264061	-0.470764152121314	0.00338071226577819	-0.00220083745542127
0.65	-2.226997864403	-0.0549576134479061	613.97679524994	9.39939267869665	28.0461064510776	0.435583929432488	-0.467220199248525	0.00338693444303417	-0.00203919268509456
0.66	-2.27700636449298	-0.0393089240181817	613.906668431101	9.39368051358985	28.1366407006424	0.429702629501811	-0.462778040956653	0.00338081782156185	-0.00188458758853705
0.67	-2.31953528991311	-0.0298319484914415	613.764330523754	9.38125331997234	28.21881831596	0.424160040699738	-0.458248063030725	0.00336546395201487	-0.00173822961939291
0.68	-2.35417999769305	-0.0295751125935184	613.556723516141	9.36503341243944	28.2924425669856	0.420099508469846	-0.454644215286994	0.00334550025012603	-0.00160087725228786
0.69	-2.38241094763978	-0.03758668564401	613.300335101373	9.34870405328071	28.3582802402375	0.418421720023483	-0.452953284255884	0.00332656697831457	-0.00147245932763507
0.7	-2.40777413513129	-0.049481801756694	613.022064595209	9.33610931095133	28.4182137873256	0.419579682535213	-0.453903031106143	0.00331431025191187	-0.0013518994271029
0.71	-2.43540357233261	-0.0592186980982544	612.756289712024	9.33039890257641	28.4750158041814	0.423497254588124	-0.457787156345393	0.00331305257581416	-0.00123726349372222
0.72	-2.47090899506007	-0.0613831950493742	612.538541634612	9.33313905633416	28.5317692235316	0.42961845763376	-0.464388609610812	0.00332449280907032	-0.00112622394437922
0.73	-2.51893178474069	-0.0531196073886117	612.39759884587	9.3436773333581	28.5910935510098	0.437058591881219	-0.473017597303158	0.00334686140120843	-0.00101671708206236
0.74	-2.58179575952018	-0.0350247019000432	612.348521396049	9.35900992277892	28.654408448401	0.44480521443662	-0.482651220969633	0.00337487443287432	-0.000907608919289982
0.75	-2.65867225374629	-0.0107500733991852	612.388899731436	9.37426056988072	28.7214509342144	0.45191020375307	-0.492134336394815	0.00340060861578417	-0.000799190117184989
0.76	-2.74553258525566	0.0144479294417172	612.499515075393	9.38369066722689	28.7901783975496	0.457623250495115	-0.500384533181285	0.00341513662778137	-0.000693376015026448
0.77	-2.83592215480081	0.0356106845518575	612.64914963234	9.3819901735352	28.857074952129	0.461440101449359	-0.506546138143127	0.0034105208594718	-0.000593564154389103
0.78	-2.92233647766362	0.049730677639102	612.802007612898	9.36550909693455	28.9177731186565	0.463070702848259	-0.510061090850247	0.00338164785533812	-0.000504177195620403
0.79	-2.9977944108058	0.0566210912472889	612.925555325696	9.33310657226709	28.9678340196883	0.462363559247474	-0.510660757614952	0.00332742910574135	-0.000429982036577792
0.8	-3.05715020443898	0.0588021977377313	612.996721043539	9.28640636880365	29.0035088948706	0.459240520158006	-0.50831589987981	0.00325107215170772	-0.000375319087238535
0.81	-3.09778307200048	0.0605571350673283	613.005164624537	9.22941074329824	29.022330473042	0.453690461444395	-0.503194791678319	0.00315937293211144	-0.000343391378605229
0.82	-3.11951921485098	0.0665471914139437	612.953375507698	9.16758515990472	29.0234413197778	0.445839683252353	-0.495663817922407	0.00306121743975296	-0.000335746050814545
0.83	-3.12390320337905	0.0804412817340648	612.854282610607	9.10664142642543	29.0076368977991	0.436072592997384	-0.486328041999267	0.00296564747754724	-0.000352034439549898
0.84	-3.11315103480693	0.103928907065716	612.7275643348	9.0512965322718	28.9771609440916	0.425138797093007	-0.476071221795704	0.00287991600719373	-0.000390076565462971
0.85	-3.08920672497419	0.136323211322628	612.595832610464	9.00427202730135	28.9353235072343	0.414172031340999	-0.466037743734205	0.00280793880955932	-0.000446200995728507
0.86	-3.05325252655912	0.174793868903952	612.481442634418	8.96573928292062	28.8860151199533	0.404571192123388	-0.45751467197273	0.00274946224132411	-0.000515794597803765
0.87	-3.00581612269285	0.215136588857354	612.404106555976	8.93332470692501	28.8331765450342	0.397746158891961	-0.451714891457571	0.00270013041190853	-0.000593977905647691
0.88	-2.94735872035845	0.252888459466483	612.379051181794	8.90267719572105	28.7802719418052	0.394789427737643	-0.449511794965541	0.00265246113650552	-0.000676310019634696
0.89	-2.87902324701993	0.284527639535926	612.415346956304	8.86848005993805	28.7298180109361	0.396173336913765	-0.451207883853488	0.00259754490658981	-0.000759413156987299
0.9	-2.80315932079331	0.308460889415941	612.514262594093	8.82568175156439	28.6830405494316	0.401574482074657	-0.456418425060617	0.0025270986803646	-0.000841394722599031
0.91	-2.72334895694154	0.32553081479575	612.667911439064	8.77065267581465	28.6397442804262	0.409890359789258	-0.464117325244487	0.00243538758347073	-0.0009219518859922
0.92	-2.64388627270864	0.33888703502168	612.858811907747	8.70197666529712	28.5984675521781	0.419453027620616	-0.472840718223293	0.00232052305829522	-0.00100209145314228
0.93	-2.56891168692513	0.353245587797527	613.061077429933	8.62066752908058	28.5569372704038	0.428384110883743	-0.480995679819182	0.00218477980275367	-0.00108349297311139
0.94	-2.50155364251619	0.373749906493683	613.243692805933	8.52975047358979	28.5127513166561	0.434996338334472	-0.487194060345891	0.00203382593603407	-0.00116766373436034
0.95	-2.44342104947071	0.404769147155073	613.37577811677	8.43332671234043	28.464128329816	0.438139820125076	-0.49053085371599	0.00187506631826762	-0.00125513282422579
0.96	-2.39462621738242	0.448973643716367	613.433053222634	8.33539317042629	28.4105183322496	0.437413996066393	-0.490747781254753	0.00171556513066051	-0.0013449553439483
0.97	-2.35427945959262	0.506912495280083	613.404115772444	8.23876525602533	28.3528891312222	0.433206404118286	-0.488254567361694	0.00156014971036567	-0.0014347199316268
0.98	-2.32119187353564	0.577135568973708	613.294851715387	8.14441818975986	28.2935913211535	0.426562434500401	-0.484011800839525	0.00141024817551971	-0.00152109086067176
0.99	-2.29444182689943	0.656727667006487	613.129467244361	8.05142753513815	28.2358289901902	0.418925161619892	-0.479304264341938	0.00126378613292299	-0.00160072985962784
1	-2.27353645546705	0.742022174898526	612.94730126126	7.95749758819962	28.182878645008	0.411806599282045	-0.47545130529627	0.00111613692145518	-0.00167130781671421
1.01	-2.25809718912121	0.829263281779293	612.795619061799	7.85988483143994	28.1372647884387	0.406461223382358	-0.473512245159196	0.000961799691291954	-0.00173228845656537
1.02	-2.2472312302167	0.9150715707705	612.719717570897	7.75641445027534	28.1000977343229	0.40363026674849	-0.474049137269845	0.000796277639541043	-0.00178525476345293
1.03	-2.23891534403075	0.996685455893954	612.752536392873	7.64628160997438	28.0707162237785	0.403411167896824	-0.477002785229303	0.00061760260241539	-0.00183371400632998
1.04	-2.22973618812073	1.07204223697868	612.906273395581	7.53041688482947	28.0466847102126	0.40528101496629	-0.481717419374487	0.000427093017497548	-0.00188248757002418
1.05	-2.215186516605	1.13979168302456	613.168129484523	7.41133862557036	28.024109685839	0.408269112953872	-0.487115990304763	0.000229178752079284	-0.00193689929308744
1.06	-2.19046880424986	1.19930474449815	613.501354839545	7.29256563911839	27.9981871241554	0.411238985965627	-0.491989384015305	3.03955577297677e-05	-0.00200198685392589
1.07	-2.15152240882462	1.25068512627896	613.851513925567	7.17777895129451	27.963878937125	0.413213001465546	-0.495330638533116	-0.000162132359108447	-0.00208188852907526
1.08	-2.09588487357385	1.29475419507053	614.15667396217	7.06997418853074	27.9166260230252	0.413660335976501	-0.49662972103913	-0.000342293489796197	-0.00217945204875963
1.09	-2.02307951918386	1.33298159090373	614.359347508696	6.97082731459255	27.8530176526385	0.412674098427566	-0.496050252880027	-0.000506262344381225	-0.00229603023250735
1.1	-1.93445040555889	1.36736345494251	614.417655948952	6.88041676792099	27.771337982754	0.410985227186582	-0.494435031664362	-0.000653161014515291	-0.00243140384167317
1.11	-1.83262174255399	1.4002744775717	614.31336551193	6.79733260722487	27.6719035459437	0.409796166717203	-0.493126416641191	-0.000785016853904419	-0.00258380197851255
1.12	-1.72090574032069	1.43431219888233	614.055124611272	6.71909588106015	27.5571087367354	0.41046138335997	-0.49363297537467	-0.000906115827128406	-0.0027500390746571
1.13	-1.60294630986765	1.47211491950665	613.676282234344	6.64274353159027	27.4311303385784	0.414086464890187	-0.497216472296358	-0.00102198322666791	-0.00292581113480883
1.14	-1.48269570934604	1.51610172904937	613.227904945477	6.56542355258286	27.2993139343689	0.421150814409627	-0.504503046829825	-0.00113826329340028	-0.00310616683380899
1.15	-1.36459082857033	1.56809456930981	612.768756583937	6.48488588685126	27.1673570134038	0.43126705954731	-0.515228541168616	-0.0012597218268986	-0.00328610001198454
1.16	-1.25365432350698	1.62885153603643	612.354718841655	6.39981994251394	27.0404772231144	0.443163878341721	-0.528203009266313	-0.00138949932809884	-0.00346113810340803
1.17	-1.15526531552028	1.69763801373491	612.030129736339	6.3100451624822	26.9227689939089	0.454919682401374	-0.541524602148727	-0.00152864860505642	-0.00362777299898159
