Time [s]	GRFml [N]	GRFap [N]	GRFv [N]	Mml [N.m]	Map [N.m]	Mv [N.m]	Mfree [N.m]	COPml [m]	COPap [m]
0.01	13.3844121442288	-3.42531882411596	574.400993096348	-25.6638194500927	7.23227713041875	0.967759906153672	1.6090276819901	0.00357757795576108	0.00851752558546243
0.02	13.2351154372532	-3.39568717476548	576.291226951626	-25.9181772435469	7.28098515240073	0.960523940417974	1.59871800906515	0.0036211007464663	0.00880477987183836
0.03	13.0887005270635	-3.36626112267103	578.191673137594	-26.1728462451828	7.32918965297553	0.953778038708597	1.58892906852039	0.00366311006254647	0.00909138999736459
0.04	12.9473053424757	-3.33810078327764	580.085882426182	-26.4240231210986	7.37647823221016	0.947948186511583	1.58013282130675	0.00370330235932272	0.00937219477091779
0.05	12.8128007811334	-3.31238430436309	581.956446812081	-26.6676685205789	7.4225050473901	0.943452017416616	1.57278395285057	0.00374151775533366	0.00964171478947032
0.06	12.6867153885822	-3.29037836881336	583.784934881492	-26.8995664307377	7.46699858309665	0.940678731521638	1.56729660656059	0.00377775130535119	0.00989425347050144
0.07	12.5701797515485	-3.27339942621628	585.551919726784	-27.1154006712737	7.50976533512297	0.939969948243657	1.56402273447399	0.0038121558554475	0.0101240204401287
0.08	12.4638940312107	-3.26276653979738	587.237126948309	-27.310849121455	7.5506891685786	0.941602458624043	1.56323331076491	0.00384503561172455	0.0103252764039702
0.09	12.3681205770455	-3.25974761975872	588.819718512943	-27.4816945128826	7.58972630704684	0.945773724205023	1.56510347994902	0.00387683001553368	0.010492496434717
0.1	12.2827019448556	-3.26550158819643	590.278715459477	-27.6239488463537	7.62689613849528	0.952590815031129	1.56970247292871	0.00390808807578185	0.0106205464922219
0.11	12.2071030086719	-3.28101960040927	591.593549808867	-27.7339868728545	7.6622682738442	0.962063298006837	1.57698883433722	0.00393943392920473	0.0107048661631333
0.12	12.1404743171752	-3.30706877778099	592.744724478903	-27.8086827564237	7.69594654823078	0.974100388562806	1.58681118190806	0.0039715250373076	0.0107416492324559
0.13	12.0817325025057	-3.34414196327472	593.714550219442	-27.8455431125379	7.72805089167989	0.988512473133193	1.59891438466105	0.00400500503323994	0.0107280128908375
0.14	12.0296524876933	-3.3924167940396	594.487921067078	-27.8428291544211	7.7586981925684	1.00501690680368	1.6129507259376	0.00404045375206716	0.0106621461980548
0.15	11.982965522212	-3.4517269221982	595.053084870539	-27.7996607095055	7.78798341304717	1.02324779853169	1.62849533433441	0.00407833736744037	0.0105434288745752
0.16	11.9404567431585	-3.52154754828731	595.402363202472	-27.7160953832418	7.81596227365334	1.0427693235392	1.64506494228465	0.00411896177932728	0.0103725125440905
0.17	11.9010560270175	-3.60099661843119	595.532775457777	-27.5931771110223	7.84263679390587	1.06309195562898	1.66213888470585	0.00416243242607249	0.0101513581276431
0.18	11.8639163539215	-3.68885213961699	595.446525040778	-27.4329496881654	7.86794485313754	1.08369089668445	1.67918118712041	0.00420862351795198	0.009883225091467
0.19	11.828474719707	-3.78358515293312	595.151311068131	-27.2384325182338	7.89175472522697	1.1040259003699	1.69566261316285	0.00425715931055299	0.00957261055114408
0.2	11.7944917474549	-3.88340703534728	594.660436684951	-27.0135576709293	7.91386525361164	1.12356164435494	1.71108163570608	0.00430740946936719	0.00922513869576364
0.21	11.7620674991963	-3.98632903314725	593.992694554725	-26.7630692818307	7.93401198667453	1.1417878009279	1.72498344698468	0.00435849984757001	0.00884740347351279
0.22	11.7316324868286	-4.09023131134855	593.172020910099	-26.4923882430016	7.951879210833	1.15823798869468	1.73697630960354	0.00440933914197399	0.00844676983268518
0.23	11.7039144376243	-4.19293836740765	592.226921237678	-26.207446914543	7.96711742498074	1.17250685561917	1.74674474967179	0.00445866095028005	0.008031140906922
0.24	11.6798828895031	-4.29229742401295	591.189682641752	-25.9145001304495	7.97936542196656	1.18426464183259	1.75405928535085	0.00450507977546618	0.00760870025398146
0.25	11.6606750821513	-4.38625638828322	590.095399559196	-25.6199199912138	7.98827580625885	1.19326869390541	1.75878255391414	0.0045471585659573	0.00718763950882971
0.26	11.6475077872615	-4.47293813130038	588.980850117773	-25.3299827649701	7.99354250484713	1.19937154399805	1.76087183996482	0.00458348450379802	0.00677588252703559
0.27	11.6415806123554	-4.5507081760109	587.883269383059	-25.0506566181059	7.99492863949401	1.20252532010246	1.76037811595852	0.0046127490214755	0.00638081723779476
0.28	11.6439768626266	-4.61823334486385	586.839072413874	-24.7873988521198	7.99229303589615	1.20278240980244	1.7574417889599	0.00463382750536007	0.00600904599695222
0.29	11.6555682196195	-4.67452946492236	585.882583931557	-24.5449708509108	7.98561365604551	1.20029245216877	1.75228541381008	0.00464585388841762	0.0056661642653844
0.3	11.6769292833746	-4.71899680812229	585.044832146467	-24.3272780826967	7.97500635430463	1.19529587378774	1.7452036927328	0.00464828539227896	0.00535657600926327
0.31	11.708267439553	-4.75144251009918	584.352461716438	-24.1372413169407	7.96073756899366	1.18811430975785	1.73655114302968	0.00464095307268918	0.0050833524304336
0.32	11.7493725927904	-4.77208972135833	583.826815010184	-23.9767037895427	7.94322985709282	1.17913835434339	1.72672788181135	0.00462409454718494	0.0048481386164156
0.33	11.799590111747	-4.78157366908373	583.483222134513	-23.8463774697345	7.92305954228947	1.16881316585002	1.71616404812172	0.00459836629980304	0.00465111059279771
0.34	11.8578189375519	-4.78092513000401	583.330529116973	-23.7458299427318	7.90094615450598	1.15762250464288	1.70530345143686	0.00456483419110815	0.00449098320741226
0.35	11.9225353056402	-4.77154203334095	583.370880978147	-23.673511811275	7.87773376846249	1.14607181187043	1.6945870905189	0.00452494215182605	0.00436506740030942
0.36	11.991841017585	-4.75515004206031	583.599763087847	-23.6268230130117	7.8543647755046	1.1346709403699	1.68443721551751	0.00448046038861166	0.00426937380926806
0.37	12.0635337700664	-4.73375302759008	584.006291148756	-23.6022151085183	7.83184702382455	1.12391713036014	1.67524259771144	0.00443341566518053	0.00419875837820823
0.38	12.1351957909445	-4.70957439415561	584.573728333304	-23.595325455948	7.81121561698155	1.1142787835836	1.66734561779036	0.00438600724194	0.00414710467954473
0.39	12.2042960224194	-4.68499026395557	585.280198334534	-23.6011382715938	7.79349095270461	1.1061805338593	1.6610316832437	0.00434051279244607	0.00410753699222097
0.4	12.2683003848922	-4.66245564119646	586.099555989473	-23.6141668812411	7.77963480112039	1.09999004334527	1.65652134311881	0.00429918903173898	0.0040726577238213
0.41	12.3247842867333	-4.64442486043757	587.002373029827	-23.6286509807665	7.77050635602761	1.09600687630962	1.65396529555449	0.00426417189215886	0.00403480244154128
0.42	12.371541525262	-4.63326790741895	587.956995437081	-23.6387624229275	7.76682024102382	1.09445372012328	1.65344229676959	0.00423738089863133	0.00398630550094625
0.43	12.4066840398363	-4.63118457485112	588.930630550118	-23.6388129052531	7.76910841412885	1.09547014059273	1.65495979932146	0.00422043197923995	0.00391976897407163
0.44	12.4287275946613	-4.64011885759306	589.890425953088	-23.6234569297154	7.77768779287486	1.09910897918901	1.65845699246793	0.00421456235823132	0.00382832725674855
0.45	12.4366593347801	-4.66167645780224	590.804507531892	-23.5878835254794	7.79263522175395	1.10533542586231	1.66380980575832	0.00422057047649084	0.00370589939975877
0.46	12.429984209101	-4.69704870164964	591.642950114563	-23.5279904699636	7.81377113239925	1.11402873448907	1.67083738066327	0.00423877312079562	0.00354742092253561
0.47	12.4087484174881	-4.74694649591917	592.378660012808	-23.4405351208296	7.84065291260658	1.12498648889528	1.67930951899165	0.0042689811597403	0.00334904672803793
0.48	12.373539241568	-4.81154810446182	592.98815389771	-23.3232565014808	7.87257861378502	1.1379312750402	1.68895467759666	0.00431049451352561	0.0031083168577661
0.49	12.3254617912548	-4.8904644377168	593.452222326688	-23.174963988312	7.90860120025762	1.15251956770657	1.69946818481104	0.00436211625157429	0.00282427732049609
0.5	12.2660942792466	-4.9827251764768	593.756468715842	-22.9955888498253	7.94755309300352	1.16835259589285	1.71052048666494	0.00442218503561921	0.00249754919020889
0.51	12.1974243733466	-5.08678837109849	593.89171572909	-22.786195996521	7.98808030244786	1.18498890808501	1.72176536729282	0.00448862452205165	0.00213034065202498
0.52	12.1217699341314	-5.20057517646325	593.85427129538	-22.5489546106292	8.02868499959047	1.20195831532647	1.73284820397694	0.00455900781791167	0.00172639868138729
0.53	12.0416880000671	-5.32153014036117	593.646046318108	-22.2870678097351	8.06777496364509	1.21877684614059	1.74341439157284	0.00463063465761628	0.00129089951326949
0.54	11.9598762241658	-5.44670602899602	593.274516251984	-22.0046631085718	8.10371798959213	1.23496230383574	1.75311808838754	0.00470061863452744	0.000830279877373337
0.55	11.8790710985337	-5.57287064512238	592.752519724866	-21.7066471071059	8.13489906196818	1.25004997587405	1.76163138970692	0.00476598157868658	0.000352013972916579
0.56	11.8019472387942	-5.69663158811321	592.097889790169	-21.3985294610378	8.1597779206609	1.26360801039548	1.76865393036598	0.00482375200957404	-0.00013565587390213
0.57	11.7310217603788	-5.81457354597903	591.332917517418	-21.0862226825789	8.17694457504449	1.27525195111022	1.77392276862001	0.00487106449687152	-0.000624024210011176
0.58	11.6685673894519	-5.92340161884925	590.483653505802	-20.7758255724406	8.18517037324378	1.2846579133864	1.77722223315732	0.00490525671897811	-0.00110425021013976
0.59	11.6165374421626	-6.02008345803542	589.579060290391	-20.4733990038041	8.18345240536865	1.29157389594752	1.77839325155638	0.0049239610089313	-0.00156769370729406
0.6	11.5765052073343	-6.10198274395461	588.650036983423	-20.1847432886043	8.17104930720271	1.29582875772135	1.77734155081768	0.00492518721993603	-0.0020062442593976
0.61	11.5496196090762	-6.16697676321986	587.728346117559	-19.9151864045172	8.14750692031809	1.29733845015323	1.77404405402806	0.00490739383978999	-0.00241262815129934
0.62	11.536578334522	-6.21355158158504	586.845480667114	-19.6693919281555	8.11267273517625	1.29610918193335	1.76855280911771	0.0048695444600283	-0.00278067928238317
0.63	11.5376189124351	-6.24086950335892	586.031515724503	-19.4511946214286	8.06669856910446	1.29223730366462	1.76099588257066	0.00481114699649425	-0.00310556179057478
0.64	11.5525275421578	-6.24880507743692	585.313993495531	-19.2634703033968	8.01003148107597	1.28590583034884	1.75157482716132	0.00473227350114124	-0.00338393488050259
0.65	11.5806648178631	-6.23794774059678	584.716891530811	-19.1080449892943	7.94339346854317	1.27737766341181	1.74055857093139	0.00463355903074011	-0.0036140534650892
0.66	11.6210068866533	-6.20957114364564	584.259722084189	-18.9856463955069	7.8677509977458	1.26698572326358	1.72827384798838	0.00451617885846771	-0.00379580166325726
0.67	11.6722000356408	-6.16557113990361	583.956805156078	-18.8958989127183	7.78427586076898	1.25512034885753	1.71509256814294	0.00438180431176292	-0.00393065967056735
0.68	11.7326262368264	-6.10837618735634	583.816749446521	-18.8373611622938	7.69429920816432	1.24221445274295	1.701416769085	0.00423253864253803	-0.00402160778927249
0.69	11.8004768028429	-6.04083540158707	583.842164720849	-18.8076033905496	7.59926085974237	1.22872702961674	1.68766198313517	0.00407083549901347	-0.00407297425411661
0.7	11.8738310341945	-5.96609059954745	584.029616832033	-18.8033203238886	7.5006561400675	1.21512569577171	1.67423996040763	0.00389940366363677	-0.0040902357550134
0.71	11.9507365807934	-5.88743933199172	584.369823847274	-18.8204737840013	7.39998251842417	1.20186898080273	1.66154171241687	0.00372110263256838	-0.00407978113658177
0.72	12.029288206348	-5.80819609058017	584.848079427674	-18.8544583975943	7.29868826140939	1.18938909900625	1.64992177762134	0.00353883423443484	-0.00404864961671369
0.73	12.1077017389216	-5.73155860770604	585.444878766039	-18.9002831505106	7.19812514106271	1.1780758966967	1.63968447676603	0.00335543574459981	-0.00400425504857894
0.74	12.1843802156334	-5.66048549086611	586.136713772757	-18.9527613236441	7.09950699755802	1.16826260669286	1.63107274273324	0.00317357981387448	-0.00395410734553253
0.75	12.2579695793375	-5.5975904248946	586.896998322677	-19.0067014744766	7.0038756499158	1.16021394846793	1.62425990253731	0.00299568601252005	-0.0039055413276717
0.76	12.3274017494964	-5.5450569305144	587.697081433623	-19.0570925409943	6.91207529824253	1.15411699955929	1.61934458353799	0.00282384794992437	-0.00386546208126957
0.77	12.3919234515961	-5.50457629274717	588.507306116131	-19.0992767802718	6.82473618295983	1.15007513920359	1.61634873343031	0.00265977885760947	-0.00384011459343348
0.78	12.4511098269769	-5.47730987470177	589.298073902896	-19.1291050448776	6.74226787482562	1.14810523697077	1.61521859902304	0.00250477732475437	-0.00383488405774846
0.79	12.5048625309505	-5.4638757094001	590.040879105785	-19.1430697834871	6.66486217667471	1.14813813446607	1.615828409221	0.00235971365821817	-0.00385413193116907
0.8	12.5533927313022	-5.46435809620651	590.709281906849	-19.1384120752718	6.59250523431738	1.15002235218442	1.61798645204075	0.002225036197529	-0.00390107160544575
0.81	12.597190109681	-5.47833797801215	591.279794704955	-19.1131999331057	6.52499808940158	1.15353084939204	1.62144321630792	0.00210079592264362	-0.00397768644428156
0.82	12.6369796125991	-5.50494117333328	591.732661046461	-19.0663760170071	6.46198457045745	1.15837057336683	1.62590127373118	0.00198668689672784	-0.00408469190206076
0.83	12.6736682655807	-5.54290108996042	592.052510491567	-18.9977737804589	6.40298511949932	1.16419445457587	1.63102659215246	0.00188209951149404	-0.00422154243015391
0.84	12.7082848247726	-5.59063233559634	592.228875684588	-18.908101934139	6.34743490112727	1.170615434487	1.63646098240437	0.00178618315114991	-0.00438648283271321
0.85	12.7419153703054	-5.64631162891889	592.256559759178	-18.7988979667059	6.29472435066407	1.17722205063866	1.64183537881786	0.00169791474833739	-0.00457664260268163
0.86	12.7756381252968	-5.70796255279797	592.135843329035	-18.672452323746	6.24424019944965	1.1835950480361	1.64678363120311	0.00161616974517749	-0.00478817051872261
0.87	12.8104608004519	-5.77354092744138	591.872521201173	-18.5317057213034	6.19540498019965	1.18932443711306	1.65095644394604	0.00153979216097374	-0.00501640541516132
0.88	12.8472636111163	-5.84101786672548	591.477760224336	-18.380122956174	6.14771307228029	1.19402637850865	1.65403504129979	0.00146766076859115	-0.00525607758772787
0.89	12.8867507943594	-5.9084578782747	590.967771975042	-18.2215474534629	6.10076150097078	1.19735924774482	1.65574407740894	0.00139874875848054	-0.00550153384309834
0.9	12.9294129804537	-5.97408965430702	590.363297806474	-18.060041629211	6.05427395604498	1.19903822394931	1.655863258618	0.00133217469219004	-0.00574697784567579
0.91	12.9755021678231	-6.03636746957849	589.688909453148	-17.8997188943287	6.00811683661284	1.19884776204459	1.65423711862122	0.00126724299365899	-0.00598671628483316
0.92	13.0250203440791	-6.09402136374203	588.972135929763	-17.744573727389	5.96230654741691	1.19665135285935	1.65078239688014	0.00120347268461385	-0.00621540060650732
0.93	13.0777220269714	-6.14609455822486	588.242436603644	-17.5983166354327	5.91700774611779	1.19239805443026	1.64549252649027	0.00114061353851017	-0.00642825373647493
0.94	13.1331302125637	-6.19196686833737	587.530050465239	-17.4642209442619	5.87252274500972	1.18612539186537	1.63843884273639	0.00107864931242104	-0.00662127145036768
0.95	13.1905644613359	-6.23136324533807	586.864761920041	-17.344988163995	5.82927277323829	1.17795837087876	1.62976827483483	0.00101778822797978	-0.00679138885680779
0.96	13.2491791736031	-6.26434703958133	586.274632855458	-17.24263813132	5.78777227398495	1.16810452632686	1.61969747129425	0.000958441416931953	-0.00693660384581208
0.97	13.3080095473211	-6.29129812188246	585.784758217997	-17.1584292301791	5.74859781279665	1.15684512325398	1.60850351907981	0.000901190618360736	-0.00705605125715207
0.98	13.3660223107164	-6.31287662781526	585.416106860506	-17.0928127583219	5.71235347913564	1.14452283270742	1.59651163007628	0.000846746989712164	-0.00715002384210429
0.99	13.4221681061259	-6.32997377417515	585.184510172843	-17.0454239873766	5.6796348501443	1.13152640454686	1.5840803659653	0.000795903428813386	-0.00721993869335106
1	13.4754323848866	-6.34365189803708	585.099857481985	-17.0151107342506	5.65099363868344	1.11827304042412	1.57158513682208	0.000749483239145686	-0.00726825054708225
1.01	13.5248818578041	-6.35507653404196	585.165549267301	-16.9999984187148	5.6269050619629	1.10518931822363	1.55940082544658	0.000708288239005598	-0.00729831605534693
1.02	13.5697039197487	-6.3654439148326	585.37824716507	-16.997588737227	5.60773974837198	1.09269162238887	1.54788444979984	0.000673049457884316	-0.00731421562481639
1.03	13.6092370052817	-6.37590769229652	585.727944218135	-17.0048873531605	5.59374166490398	1.08116708342896	1.53735877684865	0.000644383344833851	-0.00732054157206474
1.04	13.6429904981294	-6.38750887936046	586.198360896458	-17.0185545011499	5.58501312183354	1.07095601903065	1.52809774507774	0.000622755934094842	-0.00732216302750247
1.05	13.6706535644059	-6.4011129630618	586.767653365101	-17.0350712269873	5.58150742843774	1.06233679756815	1.52031444685296	0.000608456714401759	-0.0073239791303049
1.06	13.6920930546373	-6.41735781877992	587.409401740007	-17.0509132108715	5.58302927149537	1.05551391605418	1.51415227567203	0.00060158310887457	-0.0073306725296882
1.07	13.7073413666584	-6.43661546617883	588.093829086546	-17.0627237985385	5.58924240615553	1.05060990681532	1.50967966852805	0.000602035595085107	-0.00734647501871662
1.08	13.7165758251611	-6.4589698788468	588.789187989424	-17.0674780069513	5.59968382323175	1.04766147229878	1.5068886816417	0.000609522687874436	-0.00737495629485133
1.09	13.720091664347	-6.48421204604766	589.463241713351	-17.0626298603878	5.61378321893272	1.04662001006016	1.50569743939364	0.000623574364375738	-0.00741884543120942
1.1	13.7182710577947	-6.51185236175297	590.084761993852	-17.0462363992337	5.63088636470665	1.04735644619076	1.50595630090625	0.000643562094544995	-0.00747989276004813
1.11	13.7115507978051	-6.54114927310031	590.62496565231	-17.0170530116058	5.6502808677974	1.04967006125009	1.50745740469691	0.000668723475318501	-0.00755877765439999
1.12	13.700391174853	-6.57115205345904	591.058817397744	-16.9745962720633	5.67122282725771	1.05330078282259	1.5099470865341	0.000698189537184375	-0.00765506530432475
1.13	13.6852483536589	-6.60075466636798	591.366135833508	-16.9191721266536	5.69296301422431	1.05794424525068	1.513140525779	0.000731013051644724	-0.00776721318480251
1.14	13.6665521104432	-6.6287570340471	591.532452956862	-16.8518689326992	5.71477141812243	1.06326878872986	1.51673786720102	0.000766196550286658	-0.00789262565530739
1.15	13.6446902262725	-6.65392967393412	591.549593193112	-16.774516445918	5.73595927371302	1.06893349189411	1.52044099382981	0.000802719198280281	-0.00802775314330424
1.16	13.6200001761973	-6.67507764597089	591.415954966108	-16.6896132627296	5.75589798500604	1.07460630564673	1.5239700959113	0.000839562079974279	-0.00816823073585951
1.17	13.5927680726622	-6.69110005731852	591.136494667683	-16.6002264088515	5.77403465797886	1.07998137926801	1.52707919367854	0.000875731798696646	-0.00830904978412605
1.18	13.5632341758198	-6.70104196311442	590.722428433093	-16.509867677784	5.78990421468087	1.08479473787643	1.52956982723229	0.00091028253188174	-0.00844475532163803
1.19	13.5316037303515	-6.70413631694596	590.190680333174	-16.4223519509159	5.80313826267753	1.08883757614023	1.53130222241037	0.000942336799894548	-0.00856966167885914
1.2	13.4980614761836	-6.69983457671441	589.563115706726	-16.3416430847333	5.81347102035518	1.09196656842022	1.53220337145278	0.000971105202619855	-0.00867807858418368
