Time [s]	GRFml [N]	GRFap [N]	GRFv [N]	Mml [N.m]	Map [N.m]	Mv [N.m]	Mfree [N.m]	COPml [m]	COPap [m]
0.01	0.180952397093933	0.578808546047325	595.376954153353	17.3496101136977	41.3349600808597	0.294747410871582	-0.329655082802903	0.00851368357603532	-0.0101638453749175
0.02	-0.37786478535495	0.483878265012718	596.798087754756	17.2094335333007	41.5428158852366	0.311445039034236	-0.355579540441947	0.00820596831303388	-0.00997719106309025
0.03	-0.905035779105932	0.403225296478296	597.997233223907	17.0841367420271	41.737631311565	0.324557377826838	-0.378048598636349	0.00793372951258431	-0.00978631408662389
0.04	-1.37554544605233	0.348918208431562	598.786292647158	16.9852343401932	41.9066745398012	0.330417793932298	-0.393554943934524	0.00772523888430998	-0.00959044290779815
0.05	-1.76961998884202	0.331487409518238	599.041884095537	16.9202111170757	42.0383118736651	0.326267927729192	-0.399533858129598	0.00759902241416499	-0.00939454032093673
0.06	-2.07355943185067	0.359406081450743	598.719341077663	16.8920659190437	42.1231039052999	0.310689542718203	-0.394780020457673	0.00756243086754216	-0.00920911007544956
0.07	-2.27971412847363	0.43826417553675	597.852851131662	16.8998133539843	42.1553146003416	0.283950256770479	-0.379733184272429	0.00761243367672271	-0.00904769701413721
0.08	-2.38581976511645	0.569652988730785	596.544439835894	16.939587605815	42.1344449168676	0.248204790783874	-0.356582009995428	0.00773792117709937	-0.00892304642489883
0.09	-2.39420920914076	0.749962267861936	594.946538644987	17.0058216818903	42.0663094062649	0.207472582176483	-0.329136058097917	0.00792242826277811	-0.00884327978352539
0.1	-2.31148157465862	0.969476002920324	593.242696832823	17.0920431703369	41.9632430120169	0.16731421374569	-0.302432009594745	0.00814631969241764	-0.00880930649879547
0.11	-2.14892489693076	1.21225497164341	591.629039402016	17.191094055456	41.8431962583066	0.134166861509188	-0.282076675925179	0.0083880142945546	-0.00881417528592782
0.12	-1.92346651906506	1.45722477408288	590.296657368021	17.2949134872077	41.7276969053788	0.114374460852112	-0.273384823359203	0.00862448518324488	-0.0088444187733917
0.13	-1.65842577816419	1.68061418337029	589.413704357066	17.3942640338065	41.6388909578765	0.113044746091786	-0.280432716969378	0.00883172982065528	-0.00888288879462545
0.14	-1.38314278398635	1.85947306671687	589.10636668929	17.478834024323	41.5960972835827	0.132949970403712	-0.305198188356415	0.00898595643126876	-0.00891225879030266
0.15	-1.13079947370624	1.97558803955351	589.439814423853	17.5380051891982	41.6124777754309	0.173724474932035	-0.346972810536601	0.00906588965956867	-0.00891832040606094
0.16	-0.934368092043147	2.01887376201995	590.402586128823	17.5623121921835	41.6924864201235	0.231577160406209	-0.402197844887128	0.00905604486215905	-0.00889237705856072
0.17	-0.82136777819883	1.98935715687172	591.899216642537	17.545348994622	41.8306723737504	0.299633225492051	-0.464796173366338	0.00895030913825212	-0.00883234635251856
0.18	-0.808667055463774	1.89719210598914	593.755362125507	17.4856872085263	42.0121687495518	0.368877203844679	-0.526968300912512	0.00875489148318831	-0.00874252568487588
0.19	-0.898705893648817	1.76063942710574	595.737195072252	17.3883052738677	42.2148484003725	0.429532951919904	-0.580322399422763	0.0084897286408705	-0.00863226812986695
0.2	-1.07817683337826	1.60246001986243	597.583288631485	17.2650791878493	42.4127625437506	0.472625786435309	-0.617143828982931	0.00818770109609668	-0.00851400498854726
0.21	-1.31954534682969	1.44554535844984	599.043865403313	17.1340278902184	42.5802021878622	0.491446840269145	-0.631591859473398	0.00789141346197353	-0.00840111347117289
0.22	-1.58506507664278	1.30875626107392	599.920268697962	17.0172135425162	42.69561477765	0.482674102512532	-0.620635863138428	0.0076477292133682	-0.0083060641219011
0.23	-1.83240667316484	1.2038438553926	600.097345071121	16.9374519411095	42.7446935025119	0.446975629580907	-0.584593358097196	0.00750067284145906	-0.00823911582072151
0.24	-2.02081055898903	1.13403769478102	599.562930244172	16.9142704097613	42.7221951785481	0.389002928923836	-0.527190048582729	0.00748370326019487	-0.00820760325768827
0.25	-2.11678148837465	1.09449392672992	598.411157033698	16.959816366242	42.6323469081799	0.316761821259018	-0.45511789443691	0.00761268410521099	-0.00821565367969451
0.26	-2.09863322242548	1.07439690895277	596.829103260921	17.075596876466	42.487969883097	0.240423533573174	-0.377122862502957	0.00788104473214302	-0.00826405786637646
0.27	-1.95949570850984	1.06018015367489	595.068826709394	17.2509323005858	42.3086063479224	0.170717217012	-0.302716719361497	0.00825851904237362	-0.0083500629735187
0.28	-1.70859833320699	1.03912764923002	593.408864171819	17.4637719011705	42.1179674380864	0.117128768514856	-0.240679857960557	0.00869436562497272	-0.00846704813851917
0.29	-1.37072682015622	1.0025553904188	592.110784626022	17.6840441956605	41.9409725108578	0.0862072265919274	-0.197594100153332	0.00912510442622183	-0.00860430419247532
0.3	-0.983794663715225	0.947855643164707	591.377367563738	17.8790860641098	41.8006050240671	0.0803203002958806	-0.176690088714516	0.00948569583145298	-0.00874732929826127
0.31	-0.594578582253559	0.878904811398374	591.319251123903	18.0200809118074	41.7148296601169	0.0971698723318683	-0.177281518169479	0.0097220322735786	-0.00887904632230485
0.32	-0.252902048982022	0.804675925243204	591.936128349993	18.088043357712	41.69390480758	0.130254468888642	-0.194966754800563	0.00980197785331649	-0.00898210046423281
0.33	-0.00488103028594155	0.736326106996032	593.116475176713	18.07788258324	41.7385211467385	0.170258105042932	-0.222612988615468	0.00972227746212162	-0.00904198028656317
0.34	0.113841341502069	0.683474562984416	594.656434798166	17.9995088317668	41.8392063087054	0.207101857615512	-0.251937840257767	0.00950954727163167	-0.0090502896141168
0.35	0.0837857096847701	0.650724384910415	596.29449624066	17.8757118211461	41.9772907155052	0.232191766432188	-0.275330635529005	0.00921504288615349	-0.00900726900805948
0.36	-0.094751821140315	0.635564134678844	597.7551265361	17.7373982503753	42.1274401154367	0.240309820809094	-0.287472743274382	0.00890452081985227	-0.00892274130496268
0.37	-0.400862004810802	0.628505374178975	598.792756733207	17.6174433638827	42.2614154295418	0.23066696063152	-0.286359485978467	0.00864572183050061	-0.00881502792157257
0.38	-0.795206825932758	0.615678899798145	599.228168698635	17.5446688280648	42.3524454478396	0.206857273327842	-0.273488097922495	0.00849640720787725	-0.0087079219212029
0.39	-1.22500972164807	0.583291295615771	598.97211202143	17.5392406289231	42.379486686177	0.175755960983228	-0.25320767736202	0.00849537725309413	-0.00862632096174892
0.4	-1.63123818666026	0.522622470869127	598.03469984647	17.6102016040087	42.3307116358021	0.145693455962546	-0.231454141819182	0.00865775086037457	-0.00859145352389634
0.41	-1.9570610119912	0.433922435089511	596.522205509696	17.7551585116325	42.2057456672719	0.124421181197136	-0.214244214865043	0.0089744768860327	-0.0086166993707551
0.42	-2.15644062698348	0.327810906225472	594.624139316577	17.9616018616231	42.0163652790519	0.117405743336584	-0.206333519197118	0.00941508768463384	-0.00870483661075944
0.43	-2.20158082817131	0.223543727204017	592.592800653091	18.2091265003709	41.7855117707108	0.126850078216574	-0.210353336730354	0.00993239219767317	-0.00884723405355758
0.44	-2.08793449686324	0.144519654420971	590.715888344094	18.4719591944802	41.5445777884411	0.151598740085795	-0.226567961114771	0.0104681122368433	-0.0090251441077342
0.45	-1.83566687843924	0.112292090358178	589.281832668804	18.7215449276235	41.3290683352865	0.187826639970214	-0.253203641592969	0.0109590712207681	-0.00921289605037956
0.46	-1.48694168750971	0.14080905466612	588.538594954037	18.9292710889629	41.1730032613056	0.230218397082873	-0.287154126381607	0.0113440108821921	-0.00938246237218326
0.47	-1.09914792405288	0.232494366346884	588.649921297126	19.0695200706012	41.1028177525037	0.273268156369392	-0.324806531508095	0.0115711084813077	-0.00950858882845312
0.48	-0.735089207372346	0.377180802226746	589.657141108816	19.1230615022132	41.1319137803863	0.312370700091386	-0.362759471115424	0.0116057466672126	-0.0095734898232045
0.49	-0.451973770656193	0.554049282187172	591.457296580977	19.080411674925	41.2572126736366	0.344498472417415	-0.398296135760725	0.0114373169319084	-0.00957009630551164
0.5	-0.291489962450396	0.735908491012187	593.807505472005	18.9444069742859	41.4588602313486	0.368410858045807	-0.429584296515181	0.011083271875244	-0.0095030786806673
0.51	-0.273119172052336	0.894606831411699	596.360122246782	18.7310898513267	41.7035734138938	0.384469822915392	-0.455660942582939	0.0105887003646525	-0.00938736070465529
0.52	-0.392089963335439	1.0062250549086	598.724601854492	18.4682294011334	41.9511279708654	0.394207768205302	-0.47629685475134	0.0100205446390459	-0.00924449173593545
0.53	-0.622195462987911	1.05494125422936	600.542924021188	18.1913702495109	42.1624906986747	0.399803457922966	-0.491825595948391	0.00945700748177214	-0.00909785605403363
0.54	-0.922437276241829	1.03496802654759	601.559638052874	17.9380367628278	42.3074870964924	0.403586726867018	-0.502982130260869	0.0089742087024538	-0.0089680421050482
0.55	-1.24553508017295	0.950548216608514	601.667782371992	17.7413401724108	42.3699513339014	0.407639820705647	-0.51075636959711	0.00863314959433448	-0.00886961486678517
0.56	-1.54606200383943	0.814466754634184	600.918634368059	17.6244966090081	42.3490712792601	0.413517848311537	-0.516247591280789	0.00847010468002518	-0.00881002754115462
0.57	-1.78641140844319	0.645751191887935	599.494322769742	17.5975483250922	42.2568686724868	0.422086275703972	-0.520512094966205	0.00849261138035118	-0.00879064526159856
0.58	-1.93977724344599	0.467157768497932	597.653768055754	17.6569535344826	42.1129924643922	0.433468318269193	-0.524417784004728	0.00868159331747065	-0.00880912094826791
0.59	-1.99044483987529	0.302762757963546	595.669946511191	17.7878922862525	41.9387821783498	0.447097646037514	-0.52853687410554	0.00899841711533789	-0.00886194936957857
0.6	-1.93251061964545	0.175677324515483	593.777388324114	17.9684123441261	41.7525893081229	0.461868544737655	-0.533106935851867	0.00939445346771928	-0.0089460922204001
0.61	-1.76838634459403	0.105754760254122	592.14307021794	18.1741475263369	41.567644534922	0.47636080092737	-0.538069082466119	0.00982037765840227	-0.00905907662567274
0.62	-1.50806042194817	0.10724263016181	590.864015669196	18.3823807912598	41.3926382842482	0.48909640382109	-0.543162373163915	0.0102330268132526	-0.00919769662911263
0.63	-1.16930976387442	0.186588569510901	589.984998276992	18.5746302270053	41.2341090781769	0.498774028968109	-0.548033862153294	0.0105988111764115	-0.00935607879748274
0.64	-0.778260146352701	0.340870500392974	589.523535461761	18.7375214877401	41.0991285743091	0.504436952188465	-0.552327058401847	0.0108939523843334	-0.009524148580009
0.65	-0.369247068771153	0.557413883111076	589.488890879375	18.8622555959521	40.9968344420039	0.505559595801375	-0.555736227222823	0.0111027309451913	-0.00968735969614998
0.66	0.0169734083580559	0.814994327867416	589.886676067992	18.9433219108443	40.9380049881688	0.502071990174158	-0.558043958959171	0.011215224256541	-0.00982802981596015
0.67	0.337031972807972	1.08664992630417	590.708387815547	18.9771816176654	40.9327790664639	0.494359256782193	-0.559174000293647	0.011225738869349	-0.00992800386236353
0.68	0.550347025345423	1.34368949545032	591.912466279708	18.9614957626106	40.9874130739185	0.483262256157248	-0.559277911263915	0.0111325263580295	-0.00997189954640765
0.69	0.625046465580196	1.560143327378	593.407359228442	18.8951882195537	41.1013377049442	0.470070632910205	-0.55883649757751	0.0109387213624353	-0.00995003900310443
0.7	0.54309864905826	1.71676529039867	595.046379054991	18.7793175603257	41.2656345772774	0.456461538479398	-0.558714532329717	0.0106539741839821	-0.00986034491385268
0.71	0.303571087548104	1.80377423500921	596.639513711859	18.6184552780674	41.4635112296183	0.444322464844535	-0.560085974016111	0.0102960446008015	-0.00970885949251504
0.72	-0.0765190766676097	1.82177007060181	597.98091648437	18.4220737501285	41.6726608548104	0.435422043039478	-0.564166865435234	0.00989163283948158	-0.00950895567174287
0.73	-0.563706196432569	1.78061129970511	598.885123854157	18.2053631847906	41.8688168288584	0.430956211759226	-0.571758130543807	0.00947586045064941	-0.00927960426834584
0.74	-1.11146974728905	1.69644567738759	599.222132891888	17.9889478095169	42.0295339604839	0.431075844751651	-0.582693188105263	0.00909002385277391	-0.00904316961851576
0.75	-1.66494417694792	1.5874990539289	598.942069573702	17.7971759119772	42.1372961253315	0.434560048897907	-0.595370579416333	0.00877752881406257	-0.0088231445070488
0.76	-2.16646566492072	1.46958118124617	598.083703990164	17.6550048160359	42.1813839681507	0.438803340402182	-0.606588561646147	0.00857829791808506	-0.00864207475866607
0.77	-2.56161485055283	1.35245625309553	596.765958191352	17.5839263029559	42.1583789924234	0.440218929324867	-0.611856541531388	0.00852240441073249	-0.00851975203859889
0.78	-2.80542946134548	1.23813481399445	595.165970223362	17.5977613202901	42.0715620671286	0.435036077254041	-0.606233487175798	0.00862411913797456	-0.0084716406657796
0.79	-2.86828949745697	1.12170871798458	593.489831317896	17.6993538429594	41.9296641069216	0.420325400713528	-0.585566100965553	0.00887778996337152	-0.00850748673673324
0.8	-2.74069462443145	0.994623891687178	591.94234198099	17.8791072862491	41.7454095302565	0.394975239374738	-0.547827749632304	0.00925684109802205	-0.0086301328374484
0.81	-2.43593351005664	0.849457695730855	590.700572820697	18.115918738191	41.5341149030386	0.360312939078633	-0.494160421578625	0.00971662127806672	-0.00883469026227079
0.82	-1.98967749983431	0.684626401919033	589.893820807592	18.3804733836135	41.3123823327478	0.320139982363868	-0.429247013378265	0.0102009424108354	-0.00910833759905644
0.83	-1.45592711487352	0.507275250334676	589.590852440501	18.6402426407873	41.096781984645	0.280114377659415	-0.360800537212703	0.0106511778288285	-0.00943104679257534
0.84	-0.899470205480671	0.333048405676829	589.794654458397	18.865079856927	40.9024215302595	0.246616338745303	-0.298210566525434	0.0110160401860055	-0.00977743336622772
0.85	-0.385899715466858	0.182424896391891	590.444994796494	19.0321665445087	40.7414383971406	0.225403432423424	-0.250654850475301	0.0112598935278142	-0.0101196854675721
0.86	0.028984413371934	0.0745343253400895	591.429116521127	19.1292662012376	40.621632556526	0.220435575080766	-0.225171650695286	0.0113677847893177	-0.0104312115609597
0.87	0.308177396326812	0.0203926101057393	592.600085121592	19.1557168359301	40.5455650348966	0.233197425018731	-0.225223932907299	0.011346224545955	-0.0106903728543706
0.88	0.438848742496859	0.0179154695162661	593.800546267577	19.1211827829959	40.5104010492633	0.262680517982958	-0.250148816824889	0.011219849443149	-0.0108835502475382
0.89	0.432843064250372	0.0506697461199642	594.887599041295	19.0427118622122	40.5085828609108	0.305966568960591	-0.295615229591002	0.0110251142879648	-0.0110068994976844
0.9	0.322231472015038	0.091199792927333	595.753304513986	18.9409597131399	40.5291667071691	0.3591559948347	-0.35490024899343	0.0108027749806103	-0.011066447638133
0.91	0.151113143943311	0.108279050726117	596.335995197724	18.8364811129601	40.5594751738349	0.418285490442513	-0.420549682529974	0.0105909622158352	-0.0110765750022073
0.92	-0.0341630355267457	0.0760869748476148	596.620168765362	18.7467755310504	40.5866894681889	0.479915198652408	-0.485898799668165	0.0104201468827868	-0.0110572759048902
0.93	-0.193841580001872	-0.0174394827480586	596.626458324043	18.6844194259657	40.5991380751536	0.541227766944028	-0.546026101567142	0.0103104934070406	-0.0110307917736753
0.94	-0.300573166391724	-0.165718933943915	596.396434655561	18.6562664618351	40.5872465020093	0.599705462623569	-0.597956762290725	0.0102713191914999	-0.0110182288041045
0.95	-0.341168926846263	-0.343786483311034	595.978369235898	18.6634723353998	40.5442770326107	0.652645444749785	-0.640225650716782	0.0103019167472059	-0.011036647980013
0.96	-0.314620823308274	-0.513875522988145	595.418943730833	18.7020544144364	40.4670170477726	0.696852815556707	-0.672136298304512	0.0103929726345409	-0.0110969315041317
0.97	-0.227867936616197	-0.634893584947676	594.762738344057	18.7637907969377	40.3564570232156	0.728776681952954	-0.693124468690668	0.0105281446991751	-0.0112025660512686
0.98	-0.0913267125380172	-0.673171905017212	594.057568304314	18.8374004750466	40.2183056320792	0.745152082782645	-0.702531456982751	0.0106857942074734	-0.0113493799338013
0.99	0.0840585482835108	-0.611456717886598	593.361005112479	18.9100229981756	40.0630354416095	0.74396391714041	-0.699865144687572	0.0108411486795884	-0.0115262189021932
1	0.287414677983284	-0.453619935127922	592.742861429569	18.9689793461871	39.9051399112564	0.725364907644426	-0.6853783407064	0.0109691421629352	-0.0117165024559925
1.01	0.506545096844836	-0.223850413928739	592.280211054048	19.0036665196415	39.7614467563173	0.692142076786263	-0.660631308825169	0.0110478677236374	-0.0119005280739865
1.02	0.725843986734382	0.0392563273756817	592.044841044257	19.0072938964024	39.6486261738154	0.649458843884063	-0.628695812616303	0.0110621566612312	-0.0120582729148464
1.03	0.925135574457395	0.291798842265944	592.086481264052	18.9780973101883	39.5803433028104	0.603854856044887	-0.593802448646751	0.0110064944766943	-0.012172309777607
1.04	1.08063093768575	0.494115628810592	592.417335677306	18.9197183862351	39.5647055900833	0.561763186449472	-0.5604682812427	0.0108864562712279	-0.0122303631276324
1.05	1.16824962658233	0.618129879329749	593.003524460676	18.8406046338334	39.6026584578626	0.527993911571211	-0.532368367226702	0.0107181252210181	-0.0122270383813844
1.06	1.16852032362332	0.650818020846384	593.767050029344	18.7525136131811	39.687771629911	0.504658495693492	-0.511338566225379	0.0105254496055991	-0.0121643901517004
1.07	1.0715954321574	0.593583557190986	594.598601532759	18.6684165994245	39.8074971182982	0.490860987985683	-0.496867932010614	0.010336026197069	-0.012051233156859
1.08	0.880836842067194	0.45869084842117	595.378112497688	18.6002311106027	39.945585500041	0.483219330558088	-0.486270467316957	0.0101762007933063	-0.011901380430036
1.09	0.613914509114116	0.264680662107217	595.997657623404	18.5568373235173	40.0850483000417	0.477006035829646	-0.475487483321574	0.0100665380152658	-0.0117312328322933
1.1	0.301133716405382	0.032593367464751	596.380759028036	18.542754773907	40.2109461490883	0.467514588384887	-0.460257417364926	0.0100186016924629	-0.0115572654575237
1.11	-0.0185705423962821	-0.21601622937256	596.493548060783	18.5577002397431	40.3123938251548	0.451226533526105	-0.43727906193602	0.0100336488215632	-0.0113939212464813
1.12	-0.303100025560106	-0.459439623278541	596.345913885697	18.5970528316859	40.383457239125	0.426471717864649	-0.405021013513436	0.010103369962087	-0.0112522446023786
1.13	-0.513147840309265	-0.675623903537249	595.983758534566	18.6530577020872	40.42296872982	0.393482283085626	-0.363974972505814	0.0102123270987641	-0.0111393324793972
1.14	-0.617782731255366	-0.842746183155783	595.475730502827	18.7164452379473	40.4335825732596	0.353954729528996	-0.316352214207639	0.0103413667839873	-0.0110584376151779
1.15	-0.598969765976403	-0.941363532834382	594.898646798195	18.778065818146	40.4205380314511	0.310377068593941	-0.265404920170285	0.0104711185033283	-0.0110094101981868
1.16	-0.454457460138765	-0.957968021282342	594.325156795517	18.8301679819768	40.3905605562964	0.26540826014244	-0.214654027753462	0.0105847727175599	-0.0109891542237421
1.17	-0.198567300288992	-0.888818626978094	593.815549426053	18.8670816948002	40.3511501916148	0.221518017403477	-0.167293457816308	0.0106696451414868	-0.0109918956478388
1.18	0.139393630887512	-0.742462967975056	593.413776058505	18.8852736799371	40.3102661011635	0.180947662574486	-0.125929298745664	0.0107174726407894	-0.0110092575914061
