Time [s]	GRFml [N]	GRFap [N]	GRFv [N]	Mml [N.m]	Map [N.m]	Mv [N.m]	Mfree [N.m]	COPml [m]	COPap [m]
0.01	-1.36254135044584	1.61243747125629	606.998455660287	16.5845978550195	53.0629153964973	0.127911435190446	-0.306106442471042	-0.00189117880920042	0.00369690318528171
0.02	-1.40813083813873	1.47734206568308	606.756314023829	16.5677266956555	52.8792319506061	0.15807828231135	-0.32534940776689	-0.00191124809433685	0.00342622198864029
0.03	-1.42032871144578	1.36286132773595	606.499721797361	16.5548548366881	52.6958322082356	0.187930059165149	-0.345169851585825	-0.00192395171793358	0.00315811641787828
0.04	-1.37398118611682	1.2843249574043	606.22074066015	16.5485823902301	52.5137254669935	0.217101085260635	-0.365858718457982	-0.00192455709220596	0.00289542111373542
0.05	-1.26119578105272	1.24891827869955	605.924900975105	16.5486273340514	52.3365082387593	0.24490361041446	-0.387145726992766	-0.00191374406297329	0.00264329952763021
0.06	-1.09347924220397	1.25449352935488	605.631975942472	16.5516004523037	52.1706386545746	0.270335928304317	-0.408162589238791	-0.00189801480494622	0.0024095839592031
0.07	-0.898226769136114	1.29091183998757	605.371694177552	16.5518983601609	52.0246704510326	0.292226136695011	-0.427608284929456	-0.001888014728612	0.00220412650666624
0.08	-0.711029337561777	1.34346495389571	605.175894511236	16.5434232241243	51.907646342624	0.309452555986312	-0.444057631347554	-0.00189531882680416	0.00203727399272907
0.09	-0.566338461283526	1.3973094226958	605.069682530727	16.52155973759	51.8270542741048	0.321168471499227	-0.456316645864383	-0.00192874696840306	0.00191776523080284
0.1	-0.489143791902503	1.44157688820819	605.064353282874	16.4847644368798	51.7868474381574	0.326972145206824	-0.4637215743508	-0.00199140452887991	0.00185048135882138
0.11	-0.489628305993592	1.47197350576303	605.154214807316	16.4352681586261	51.7860186554441	0.326988978095719	-0.466299163892741	-0.00207937249717149	0.001834553721621
0.12	-0.561664024685646	1.49118001264374	605.31818871652	16.3786957454569	51.8181037086495	0.321859592211112	-0.464746533223442	-0.00218240991019036	0.00186232195344666
0.13	-0.684932545184657	1.50704250424309	605.525542773789	16.3227513633329	51.8717823510096	0.312649295745406	-0.460240526699854	-0.00228639175041301	0.00191951143473978
0.14	-0.829702301232706	1.52919644485773	605.743789292777	16.2753825167574	51.9324901987045	0.300708748450163	-0.454136730610301	-0.00237670775923315	0.00198676525722236
0.15	-0.962967919804663	1.56520864918348	605.946102188573	16.242943470393	51.9847122120202	0.287521338125319	-0.447652813138506	-0.00244163963922295	0.00204236285577936
0.16	-1.05468313452012	1.61743681894929	606.115830350818	16.2288187083413	52.0144669653556	0.274567953731966	-0.441635759209601	-0.00247484459409963	0.00206566046560236
0.17	-1.08304550632734	1.68157002432196	606.246783822878	16.2327888852444	52.0114585246293	0.26322407099693	-0.436481666656151	-0.00247641805470933	0.00204058125038448
0.18	-1.03808480432949	1.7473007647205	606.339581388591	16.2512048718446	51.9704771692569	0.254681907598693	-0.432217769664171	-0.0024524400263819	0.00195842833051246
0.19	-0.923103788470334	1.8009427717452	606.395882537267	16.2778519058369	51.8918340075524	0.249872573743542	-0.428691684394238	-0.00241328241146921	0.00181941309154138
0.2	-0.753820616698142	1.82923681172762	606.413174127615	16.3052733982812	51.7808496139832	0.249362343701641	-0.425771514208394	-0.00237117915868357	0.00163255737112478
0.21	-0.555384814528859	1.82324660403834	606.382567739233	16.3262814345362	51.6466113430429	0.253219652980934	-0.423463387990393	-0.00233762236975765	0.00141397610338923
0.22	-0.357774410382432	1.78123231640483	606.290831277476	16.3353838428776	51.5003196592729	0.260887851866364	-0.421900382781048	-0.00232108799960451	0.0011838918229522
0.23	-0.190377300144578	1.70969132030328	606.126105035024	16.3298823537813	51.3535512439284	0.271132575301469	-0.421225492984942	-0.00232547449104981	0.000962992379513972
0.24	-0.07673785681114	1.62227068735673	605.885164298632	16.3104375953079	51.216702551816	0.282137655720648	-0.421445820343773	-0.00234949757972491	0.000768860920828895
0.25	-0.0304464837756495	1.53682376960992	605.579345940122	16.2809668427902	51.0977863659305	0.291786376571298	-0.422346475578016	-0.00238713368849919	0.000613163524065097
0.26	-0.0529461332192698	1.47134656840162	605.236647577762	16.2478529022535	51.0016736478982	0.298093608348823	-0.423514901831464	-0.00242903424778018	0.000500095698314662
0.27	-0.133660699596782	1.43978180237449	604.898837867415	16.2185915020334	50.9298177714961	0.299678447266999	-0.424460950642971	-0.00246464519206568	0.000426314437376507
0.28	-0.2523926564213	1.4486849701596	604.614113893357	16.2001565525024	50.8804574454877	0.296124602693355	-0.424762716769723	-0.00248459015822489	0.000382279322298951
0.29	-0.383487308660038	1.49553459706391	604.427246740576	16.1974659087596	50.8492478918316	0.288094209255404	-0.424155383341086	-0.00248276870432051	0.00035465265755763
0.3	-0.500910226727004	1.56910114486703	604.369816190414	16.2123376408881	50.8302076600806	0.27713998914233	-0.422518260497135	-0.00245763980993718	0.000329212589760375
0.31	-0.583202908544601	1.6518408904912	604.452956263915	16.2432187557724	50.8168044707273	0.265270403848024	-0.419781898408258	-0.00241233368957605	0.000293650809225277
0.32	-0.617307845538764	1.72382990311048	604.664239708848	16.2857653021753	50.8029693449738	0.254414846933068	-0.415832478548971	-0.00235353717467979	0.000239679409207549
0.33	-0.600489496042885	1.76737883687446	604.969289810604	16.3341117407166	50.7838534254895	0.245969098430363	-0.410499370185295	-0.00228945137337466	0.000164057493870828
0.34	-0.539984779796532	1.77125277191933	605.317740188803	16.3824640700286	50.7562308144494	0.240560409371753	-0.403664621439756	-0.00222741358667977	6.84302329593822e-05
0.35	-0.450520068564399	1.73343357314344	605.652423586115	16.426554387885	50.7185730192993	0.238076787666591	-0.395454029933028	-0.00217190136025536	-4.18213072705398e-05
0.36	-0.35032448266217	1.66164472732658	605.92016439041	16.4645414056088	50.6709218033957	0.237900990014908	-0.386403129131343	-0.00212353417465649	-0.000159283417238254
0.37	-0.256630866199648	1.57138803917941	606.082233865812	16.4971214508808	50.6147169660836	0.239222983047032	-0.37747916789047	-0.00207937355759868	-0.000276237707568849
0.38	-0.181780705655744	1.48191128346785	606.12241778107	16.5268700663115	50.5526770902593	0.241300921803577	-0.369895776216772	-0.00203439215042711	-0.000385968394429115
0.39	-0.130883500514724	1.41115018630474	606.050845374071	16.5570789409834	50.4887150255957	0.243593681315873	-0.364757235078979	-0.00198358499715512	-0.000483424822123213
0.4	-0.101551521403574	1.37105073673077	605.902351499669	16.5905020280403	50.4277609920664	0.245764840586253	-0.362664119111034	-0.00192397780429088	-0.000565282121539501
0.41	-0.0856510153477874	1.36461755745012	605.729200980684	16.6284277120387	50.3753313372815	0.247617961797217	-0.36345061880181	-0.00185583153376645	-0.000629646354527613
0.42	-0.0724530908569743	1.3855293075917	605.589326067505	16.6703540231622	50.3367522202881	0.249038599308276	-0.366181733203933	-0.00178263700721526	-0.000675714060043131
0.43	-0.0522060181914001	1.4203647327823	605.532483960831	16.7143165169689	50.3161034596758	0.249988555988404	-0.369432120777394	-0.00170992961784289	-0.000703610044776148
0.44	-0.019097238020077	1.45267192429428	605.587542900237	16.7576885448147	50.3151219775951	0.250545823459116	-0.371747344534641	-0.0016433732384058	-0.000714448619768382
0.45	0.0271664795974529	1.46758164999549	605.754142498351	16.7981227288841	50.3324154320268	0.250942517108986	-0.372110157620532	-0.00158681412562378	-0.000710484497345842
0.46	0.08146135077722	1.45559521576372	606.001134666082	16.8342788890161	50.3633249743484	0.251546905480338	-0.370235543809733	-0.00154100479247488	-0.000695123802264164
0.47	0.134819595280309	1.41456402521719	606.272642183615	16.8660875565475	50.4006286264821	0.252766500288565	-0.36659554294614	-0.00150345165073618	-0.000672594448016484
0.48	0.176875951264188	1.3495424113302	606.500656221062	16.8944848405298	50.4360331926647	0.254897542939855	-0.362189270050652	-0.00146944134136651	-0.000647215070652463
0.49	0.198436800366384	1.27087130592346	606.621346386623	16.9207532852584	50.4621417817647	0.25798285775517	-0.358170696211511	-0.00143389020392892	-0.00062239250024948
0.5	0.193509330999603	1.19130349961857	606.591166410979	16.9457443849136	50.4743972906044	0.261743002799741	-0.355484980384439	-0.00139337801836459	-0.000599635272432508
0.51	0.160385398023144	1.12309817268947	606.398721190429	16.9692951731937	50.4724616036404	0.265612651497673	-0.354633727322072	-0.00134766199228187	-0.000577919574780372
0.52	0.101686452426975	1.0758227825611	606.069272189622	16.9900742149725	50.4606210026174	0.268863469191337	-0.355614425755212	-0.00130013770458215	-0.000553651113646414
0.53	0.0235360715666831	1.05523349019518	605.660488909616	17.0059299038519	50.4470755275334	0.270754392496632	-0.358001156448087	-0.00125706298224038	-0.000521261564373265
0.54	-0.0658266388875213	1.06321559318857	605.250190861127	17.0146237584285	50.4422872064992	0.270641958781519	-0.361088800601404	-0.00122577403404056	-0.000474248611115669
0.55	-0.157653247319075	1.09847140489562	604.918846075824	17.0146826903919	50.4568210422468	0.268011246095139	-0.364025581563772	-0.00121246216659743	-0.00040632123845824
0.56	-0.244230992317002	1.15750307336865	604.730983434485	17.0060547577472	50.4992260152713	0.262437242347431	-0.365897947212016	-0.00122022516585663	-0.000312319738128231
0.57	-0.3201748898223	1.23545900548926	604.720050881325	16.9903255922264	50.574440905726	0.253531822693484	-0.365781469284015	-0.00124800462512165	-0.000188738392159327
0.58	-0.383345038180114	1.32656906369516	604.88046788975	16.9704222135312	50.6830105647374	0.240949725041256	-0.362804898192266	-0.00129070442075907	-3.39024628389084e-05
0.59	-0.435291929609361	1.42413596361587	605.168848932823	16.9499299577293	50.8211508854871	0.224506669321882	-0.356275613784631	-0.00134037511133156	0.000151983711408898
0.6	-0.481123360002426	1.52030468146043	605.514077302827	16.9322936205373	50.9815004440611	0.204408914843828	-0.345882341163595	-0.00138800257992244	0.000366688114771641
0.61	-0.528690576456619	1.60600629669697	605.833712362455	16.9202033301847	51.1543025344114	0.181525626817198	-0.331938100671948	-0.001425288399304	0.000605623093645646
0.62	-0.58706855756328	1.67148259271613	606.052714606511	16.9153672749999	51.3287739629023	0.157581926620273	-0.315575754371995	-0.00144590134720812	0.000861491218576982
0.63	-0.664485407057911	1.70760548948753	606.120049201839	16.9186926967539	51.4944885492068	0.135139747880225	-0.298786075505583	-0.00144595698121186	0.00112423934447026
0.64	-0.76609925508422	1.70785497426679	606.019431386313	16.9307154298206	51.642669399286	0.117281959339979	-0.284213006652711	-0.00142381295945293	0.00138167097530317
0.65	-0.892216697820704	1.6704377687648	605.77204150351	16.9520164119173	51.7673004991178	0.107015949059021	-0.274693844082841	-0.00137950861263947	0.00162087980900771
0.66	-1.03756093986904	1.59978556123694	605.430992840551	16.9833824395763	51.8659335874169	0.106532604366532	-0.272630981302933	-0.00131423815479204	0.00183033899633223
0.67	-1.1919557032557	1.50670485064845	605.069166540048	17.0255954084418	51.9400205887023	0.116544901020877	-0.279366047862347	-0.00123012439261661	0.00200214826875117
0.68	-1.34234231953956	1.40679722647931	604.763326587002	17.0789119421564	51.9946035782528	0.135941336780446	-0.294755675034471	-0.00113032886887399	0.0021337583091936
0.69	-1.4755668785318	1.31733167817994	604.577984894593	17.1424478731894	52.0372866688918	0.161906290594407	-0.317100335576002	-0.00101930949964624	0.0022285605939516
0.7	-1.58108448847284	1.25332507097936	604.552300580918	17.213746486504	52.0765968307985	0.190506919956435	-0.343467202010559	-0.000902921297254999	0.00229505261958901
0.71	-1.65278108539241	1.22394389268724	604.692516995561	17.2887600129167	52.1200595636951	0.217583394988386	-0.370318070929782	-0.00078809922143952	0.00234475512162863
0.72	-1.68950096719309	1.23032415785638	604.971279058138	17.3623314656899	52.1724804261841	0.239673053262341	-0.394257165630501	-0.000682040774941051	0.0023894922376026
0.73	-1.69441273225971	1.26550454878342	605.333846541501	17.4290863662475	52.234947366385	0.254692699721953	-0.412688042642477	-0.000591035247968219	0.0024388737937891
0.74	-1.67378583396997	1.31651890643512	605.709916023955	17.4845002871043	52.3049102371409	0.262196164596857	-0.424217755544866	-0.000519262176680524	0.00249874549805906
0.75	-1.63587188528381	1.36802992313033	606.028659796425	17.5258488951153	52.3773831142773	0.263174157959421	-0.428741727028832	-0.000467928740812029	0.00257102183820562
0.76	-1.59033679778901	1.40643690089216	606.23386113267	17.5527851207045	52.4469484918244	0.259508989276461	-0.427241631958811	-0.000435021150045345	0.00265482018286389
0.77	-1.54820930933456	1.42329683277209	606.295850232923	17.5673992443508	52.509947515973	0.253286432366697	-0.42139583929468	-0.000415755505979831	0.00274835617174207
0.78	-1.52185736115752	1.41716329122111	606.217461594597	17.5737582433485	52.5661270842654	0.246179800104822	-0.413124392898872	-0.000403607020678765	0.00285080058441406
0.79	-1.5243244385242	1.3934513261047	606.032458736222	17.5770477529657	52.6191346988823	0.239068759729603	-0.404176579897558	-0.000391643994555824	0.00296331925824567
0.8	-1.56756521145963	1.36249525797432	605.796620180721	17.5825249197784	52.67558097189	0.231968722216798	-0.39583736651677	-0.000373833245527422	0.00308880718407428
0.81	-1.65963525706721	1.33641051666624	605.573541349477	17.5945215949968	52.742834785296	0.224257860945979	-0.388794481317913	-0.000346017597552373	0.00323029247260331
0.82	-1.80148695612657	1.32560299139511	605.418639247063	17.6157153167093	52.8261440281532	0.215118073669167	-0.383175662802385	-0.000306368228196074	0.00338848457612267
0.83	-1.98443808359333	1.33577866137022	605.365374938479	17.6468177762957	52.9259505764398	0.204060123997274	-0.37873328252428	-0.000255251278589608	0.00355932043448409
0.84	-2.18942410008702	1.36614128058144	605.417133369848	17.6867292316484	53.0362950187886	0.191382153437193	-0.375120002895435	-0.000194589579120441	0.00373249118128444
0.85	-2.38877800519685	1.40919090154435	605.546700518851	17.7330914243984	53.144957477578	0.178416961859628	-0.372170570067547	-0.000126923415110891	0.00389173932427872
0.86	-2.5506068280706	1.45220027480211	605.703338392801	17.7830680591275	53.2355113432056	0.16746265883528	-0.370094167564148	-5.44559359093588e-05	0.00401722261218335
0.87	-2.64505136966665	1.48008482799174	605.825651457188	17.8341229774743	53.2909037009953	0.161366288485654	-0.369500827842517	2.16182263919062e-05	0.00408957184530473
0.88	-2.65105534651346	1.47904102535856	605.85719418273	17.8845782203531	53.2976839286917	0.162831117140548	-0.371235740324876	0.000101282420542081	0.00409463430167317
0.89	-2.56193259998006	1.44008436977383	605.761266074004	17.9338223667434	53.249735123725	0.173618762607297	-0.376063494193043	0.000185319613341783	0.00402752271278656
0.9	-2.38813345102496	1.36156662101255	605.531548633381	17.9821768568705	53.1504198216406	0.193879832221201	-0.384305465860033	0.000274561811488327	0.0038946495344816
0.91	-2.15619121586308	1.24995457623664	605.196048798371	18.0305593352416	53.0124384521604	0.221839077367755	-0.395561693066329	0.0003691254802064	0.00371294594047472
0.92	-1.90376484588129	1.11858785532926	604.813116857407	18.0801474098471	52.8553194665619	0.253974030917134	-0.408628856170326	0.000468037311564196	0.00350630172837185
0.93	-1.67174941218424	0.984680650845951	604.45996842073	18.1322086143898	52.7011346469775	0.285682205799023	-0.421662899836846	0.000569511647918297	0.00330013955768255
0.94	-1.49529832496252	0.865317829702572	604.215912199882	18.1881372589411	52.5695526141588	0.312279259111874	-0.432551515410795	0.000671844315784598	0.0031156439711455
0.95	-1.39600658363253	0.773465163410618	604.14397154684	18.2495890010683	52.4735401945135	0.330063292996708	-0.439390170074174	0.000774561624127701	0.0029652809509193
0.96	-1.37728338814696	0.714994770630027	604.275321862574	18.318511185588	52.4168302474133	0.33715635229323	-0.440922306392563	0.000879267832450625	0.0028508258223558
0.97	-1.42412866041636	0.687445816670978	604.600590913271	18.3968886672596	52.393758639491	0.333899713942342	-0.436819897206278	0.00098968412593714	0.00276432040853886
0.98	-1.50735038453911	0.680793847680991	605.070525473323	18.4861604551172	52.3913997625617	0.322709761781349	-0.427735501599094	0.00111067095823958	0.00269148943042313
0.99	-1.59107098069611	0.680013600971113	605.606149659562	18.5864506482016	52.3933106141748	0.307451805024676	-0.415128729284978	0.00124645624916864	0.00261646258768383
1	-1.64152910895118	0.668804373745503	606.115993155662	18.6959049765509	52.3838100712547	0.292513796273347	-0.40093307037264	0.00139866756753382	0.00252637833165487
1.01	-1.63493039797499	0.633590044739897	606.516034818401	18.8104537748592	52.3516679671686	0.281826851275686	-0.387164329809657	0.0015649176445397	0.00241463374367096
1.02	-1.562483804876	0.566856242073132	606.747309872123	18.9242082691132	52.292343233163	0.278071832861827	-0.375571899050909	0.00173854475949864	0.00228207941888298
1.03	-1.43162344514256	0.469051150675696	606.786893640156	19.0304793757268	52.2083822366434	0.282240017504728	-0.367403410658916	0.00190971497424031	0.00213612620528947
1.04	-1.26346306776561	0.34861654929511	606.649944602564	19.1231734688463	52.1081078952103	0.293607434142238	-0.363306105546528	0.00206760657892469	0.00198830579633547
1.05	-1.08743831809426	0.220156540592336	606.38301302511	19.1981633164466	52.0031431535332	0.310071963178116	-0.363343344450226	0.00220300885324309	0.00185114879788595
1.06	-0.934623856078619	0.101193498352916	606.05108808637	19.2542183445502	51.9055180213195	0.328722285794776	-0.367079032641055	0.00231052452146385	0.00173526112138156
1.07	-0.831289298537147	0.00829906351194306	605.722193259223	19.2932126912347	51.825083956446	0.346477649074211	-0.37368432594765	0.00238971418448641	0.00164724905165464
1.08	-0.79395792223127	-0.0464652494322228	605.453447669552	19.3195600933321	51.7677522710358	0.360657281675191	-0.382044794634838	0.00244489279245408	0.00158878843537857
1.09	-0.826725388523159	-0.0579546993638368	605.281538703288	19.3390647644735	51.7347784988856	0.369390620505013	-0.390875775844636	0.00248373345432595	0.00155678741563325
1.1	-0.921056661344037	-0.0286669370030621	605.218977622297	19.3575416359177	51.7230325513059	0.371837990689281	-0.39886902818239	0.00251518721173261	0.00154435160025795
1.11	-1.05782324461328	0.0322851334573808	605.255908747923	19.3795961579751	51.7259985003372	0.368233326939618	-0.404882667152795	0.00254737352808398	0.00154216495514664
1.12	-1.21101527783602	0.111558094857515	605.366052031945	19.4078623662575	51.7351679171521	0.359776890159908	-0.408152230625997	0.00258600958415089	0.00153993633329264
1.13	-1.35236851004597	0.194589245055283	605.514766138022	19.4428232698691	51.7415145163156	0.348403962552043	-0.40846317543887	0.00263369054943474	0.00152768379843199
1.14	-1.45608256944105	0.268400499400624	605.667185783663	19.4831495257737	51.7368249472323	0.336452261067851	-0.4062101455472	0.00269002422586884	0.00149677603714093
1.15	-1.50287482800282	0.323517233720005	605.794758784608	19.5263563720014	51.7147621861488	0.32626076002732	-0.402292950803479	0.00275237824006691	0.00144076406029592
1.16	-1.48280124237268	0.354677372145546	605.879122979842	19.5695322339492	51.6716157779499	0.31975669744378	-0.397858860024932	0.00281688715655182	0.00135607697161316
1.17	-1.39653875521755	0.360428959672401	605.91299245455	19.6099340817148	51.6067310561834	0.318111214609254	-0.393968886539325	0.00287939614100119	0.00124261439037054
