Time [s]	GRFml [N]	GRFap [N]	GRFv [N]	Mml [N.m]	Map [N.m]	Mv [N.m]	Mfree [N.m]	COPml [m]	COPap [m]
0.01	1.96423777599268	-2.14573997667391	547.465877684403	0.621197968676875	31.795625718828	1.18207253746733	-1.05516844084839	-4.77466284958261e-05	0.00178881878482878
0.02	2.11082221967985	-2.04938747535785	548.900536220529	0.585322898088986	31.7860604720038	1.18071548052387	-1.05974923043633	-0.000115597155294966	0.0016203259533219
0.03	2.25173558860024	-1.97529448905644	550.431168832091	0.547392962483165	31.7870896589364	1.179357207494	-1.06304544503699	-0.000187274847097463	0.00146117464792112
0.04	2.3809313636418	-1.94115063692121	552.123424210736	0.505172858538087	31.8066934448908	1.17764246727444	-1.06368205928681	-0.00026686867162673	0.00131912370947795
0.05	2.48971071327072	-1.95649401775527	553.97028078217	0.458037830549634	31.847176290175	1.17477160015693	-1.06030770861453	-0.000355449865691027	0.001199184065101
0.06	2.5680444494126	-2.02090101550968	555.891440099221	0.407455982067411	31.9048393512895	1.16963209065845	-1.05182908812656	-0.000450216850571339	0.00110307612825533
0.07	2.60739810684599	-2.12441944305599	557.757264853634	0.35700277530873	31.971490970328	1.1611683276029	-1.037754547071	-0.000544525135806051	0.00102946449042418
0.08	2.60358727678867	-2.25019622489778	559.424494975816	0.311932970339507	32.0370097145898	1.14883889219624	-1.0184998189555	-0.00062872681710413	0.000974876612123365
0.09	2.55821634171538	-2.37862402086177	560.768498905368	0.278372877944779	32.0918860781056	1.1329771525	-0.995511351816224	-0.000691673807958315	0.000934948070608344
0.1	2.47805336425765	-2.49182486472987	561.701425435835	0.262222465639541	32.128858169807	1.11491980117733	-0.97114011813654	-0.000722704122004814	0.000905500548613936
0.11	2.37278578202101	-2.57714179439573	562.174188274304	0.267910626476975	32.1432940016173	1.09686442613775	-0.948302715676927	-0.000713854939552783	0.000883040832491855
0.12	2.25239948530503	-2.62864321832122	562.168286246655	0.297228684853483	32.1325896606734	1.08151238509114	-0.930041654492551	-0.000661917639784848	0.000864545982275589
0.13	2.1255333600486	-2.64637455845982	561.687360988262	0.348535551772814	32.0952691673783	1.07160885675069	-0.919110089307784	-0.000569834649451595	0.000846747092819178
0.14	1.99955443379084	-2.63394216428758	560.75671185581	0.416623149541939	32.0305182640273	1.06949487012092	-0.917660934113314	-0.000446940475633206	0.000825380153481547
0.15	1.88210418494476	-2.5956366532467	559.432951412134	0.493412094498683	31.9385639267151	1.07674940069197	-0.927049215604865	-0.000307746249446739	0.000794915834207433
0.16	1.78299730216523	-2.53442957394247	557.818706189805	0.569423970831997	31.8217871406457	1.0939513426575	-0.947702524114071	-0.000169350251146172	0.000749083391582916
0.17	1.71505622187166	-2.45174133164447	556.07229592498	0.635714056041341	31.685974565489	1.12055765684382	-0.979006951324213	-4.80155719635444e-05	0.000682145826585878
0.18	1.69290233298471	-2.3490456109549	554.402128898889	0.685749821646173	31.540899654565	1.15488631794244	-1.01919592402098	4.4188656786015e-05	0.000590515857530616
0.19	1.72970032376747	-2.23048635532036	553.040511851794	0.716681774815163	31.399587152961	1.19420352695188	-1.06528991218633	0.000101705486934556	0.000474088895473124
0.2	1.83289988783402	-2.1051237385436	552.199833398282	0.729615245753175	31.2761094743689	1.23492634220452	-1.11317676749221	0.000126062825457018	0.0003367169031252
0.21	2.00062903782096	-1.98746901358287	552.022293063101	0.728812402372041	31.1823986121528	1.27294921851687	-1.15791543229012	0.000124551714184129	0.000185555594397591
0.22	2.22025938367924	-1.89564227305548	552.539026201825	0.720116914146053	31.1250707925958	1.30408208198405	-1.19428541042915	0.000107500811849626	2.94701660545904e-05
0.23	2.46983468399147	-1.84752826394171	553.653416875886	0.709155964489186	31.1034230425548	1.32455624056878	-1.21751402422712	8.51081034966006e-05	-0.000122910438365653
0.24	2.72191486950697	-1.85624693284712	555.156612938641	0.699928601398734	31.1094698785716	1.331525860981	-1.22403283544232	6.49005070394448e-05	-0.000264731385849981
0.25	2.94847551277986	-1.92663848911387	556.773039289941	0.694213365795264	31.1302212204287	1.32347893296212	-1.21208115483366	5.05966536881175e-05	-0.000391445148586689
0.26	3.12524141206952	-2.05407484977696	558.22372432754	0.691894160147501	31.1515940192089	1.30047965994363	-1.18200653059951	4.25704594284593e-05	-0.000500189983314192
0.27	3.23431922920009	-2.22591596595774	559.289167666337	0.691946320179439	31.1627068840574	1.26419504745923	-1.13620027273878	3.94876734186589e-05	-0.000588411670430666
0.28	3.26494683209629	-2.42480872076301	559.853524921781	0.693585364129499	31.1590900787616	1.21770621473036	-1.07871707121973	4.02612880197051e-05	-0.000652530000940288
0.29	3.21308405777402	-2.6323251891603	559.918072241041	0.697049864040292	31.1436626923055	1.16515613117924	-1.01471725622428	4.54065849884167e-05	-0.00068750901583875
0.3	3.0809561172439	-2.83148691947186	559.582041931383	0.703675468909976	31.1250934052412	1.11132098359556	-0.949900981742599	5.71906692375945e-05	-0.000687840471951195
0.31	2.87733671722795	-3.00747014546105	558.999422361878	0.71524252644799	31.1141036265087	1.06119462867203	-0.890061719076289	7.85334767167134e-05	-0.000649813217039719
0.32	2.61851648345193	-3.14683641463033	558.327538466798	0.732911427618405	31.1190416944242	1.01963898985634	-0.840789446100356	0.000111195384954854	-0.00057427967321011
0.33	2.32902068183371	-3.2364539126293	557.684728675094	0.756257956697573	31.1423525714106	0.991092015319508	-0.807246335109688	0.000154135806432865	-0.000468743286958451
0.34	2.04073616831936	-3.26346551584217	557.129835625767	0.782896790135481	31.1792568719491	0.979270996636844	-0.793874263468082	0.000202890247317122	-0.000347680510537962
0.35	1.78947290846131	-3.21712821655076	556.667365887448	0.808938450125268	31.2191359235206	0.986798281963332	-0.80391445483742	0.000250394042006885	-0.000230585134345207
0.36	1.60902739281949	-3.09233932432661	556.272427826815	0.830163702899465	31.2491001628135	1.0147267355141	-0.838728520813919	0.000289052650674582	-0.000138075368034396
0.37	1.52408200877675	-2.89363852612073	555.922590089929	0.843476284551853	31.2583913178195	1.06203843528865	-0.897065162086309	0.000313294322530799	-8.71928717778858e-05
0.38	1.54415670356275	-2.6379063074875	555.622165688711	0.848054136007213	31.2419620958985	1.12528530976579	-0.974543925369755	0.000321593697758304	-8.74135854218028e-05
0.39	1.66084765264589	-2.3541577903271	555.408573560185	0.84572687293522	31.2019149589512	1.19857839256878	-1.06365424436922	0.000317140750733191	-0.000138702574570604
0.4	1.84963237361123	-2.07973825768031	555.33855730393	0.8404194186907	31.146330463373	1.27407815014662	-1.1544611717184	0.000306873212032377	-0.000232236612506431
0.41	2.0759281439532	-1.8535342383173	555.460819283535	0.836884300810589	31.0860357853742	1.34299979991111	-1.23599582331993	0.000299258147443915	-0.000353464867467901
0.42	2.30351302014881	-1.70800487827729	555.787528806558	0.839232339311561	31.030646983573	1.39697465926475	-1.2980681915477	0.000301710342514916	-0.000486360802018804
0.43	2.50253903690373	-1.66241166149844	556.277848796616	0.849839138254613	30.9854536358922	1.42947073995912	-1.3330702829405	0.00031865461311642	-0.000617362817584843
0.44	2.65458625449807	-1.71931056685257	556.841851061145	0.869024738352961	30.950315036276	1.43693020986071	-1.33731052519065	0.000350926997900625	-0.000737740187146951
0.45	2.7534501333044	-1.86526329411563	557.364870195628	0.895556098471326	30.9208739914809	1.41934845621202	-1.311550739446	0.000396605900243707	-0.000843839981174876
0.46	2.80209390756156	-2.07526023334414	557.743794921459	0.92766028004506	30.8914249735777	1.38017571095629	-1.26065609958185	0.000452736261317366	-0.000935558844764206
0.47	2.80767811297408	-2.31912565273222	557.921450860725	0.964020409256639	30.8580970398561	1.32561073733739	-1.19252581900645	0.000517036002857241	-0.00101406587879155
0.48	2.77716000233139	-2.56768823693695	557.905331324557	1.00425332816393	30.8209080067647	1.26350973437142	-1.11665305247709	0.000588721082385502	-0.00107999952056848
0.49	2.71539870936591	-2.79691222152075	557.762633736226	1.04862721822429	30.7837602357296	1.20220042150391	-1.04270574688139	0.000668034269800555	-0.0011330046353763
0.5	2.62628492315757	-2.98926330401783	557.592778598576	1.09715487527717	30.7523680393053	1.14945402755354	-0.979422051194619	0.000754713142663954	-0.00117273958674119
0.51	2.51580688279688	-3.13281952045675	557.487722075937	1.14852347724197	30.7310434174836	1.11175087411795	-0.933927365147085	0.000846189858502155	-0.00120070756832646
0.52	2.3949288332977	-3.21948746505963	557.495658971041	1.19944388012629	30.7198131150812	1.09383453224702	-0.911391666452727	0.000936520229692595	-0.00122181133081783
0.53	2.2801945374681	-3.24381679983567	557.602774314005	1.2448592492432	30.7132448586243	1.09844934870116	-0.914838033389587	0.0010167881655152	-0.00124461175469914
0.54	2.19107662595101	-3.20332982600509	557.740650939693	1.2790999199333	30.7016470323974	1.1261396783724	-0.944928809189042	0.00107712334924914	-0.00127985853441931
0.55	2.14475724526386	-3.10031311914011	557.816492637493	1.29765845716917	30.6742725037207	1.17505756514399	-0.99967812284112	0.00110976440267074	-0.00133768728749101
0.56	2.15044700927638	-2.94411365029721	557.753774876459	1.29896244861818	30.6232545732583	1.24083663016925	-1.07420075054399	0.00111209856888295	-0.00142455545032066
0.57	2.20582106095337	-2.7525410462701	557.526368621855	1.28546790182457	30.5466350392725	1.31667874062669	-1.16072077987597	0.00108852276881055	-0.00154119559477789
0.58	2.29740545444158	-2.55118196426694	557.171665473468	1.26360487217597	30.4491842346235	1.39381221968228	-1.24906491119066	0.00105033188633763	-0.00168249202109233
0.59	2.405095854558	-2.3701883100007	556.776855752603	1.2424932974783	30.3406220720034	1.46239963954294	-1.32774341251553	0.00101349868464906	-0.00183939488324741
0.6	2.50918408703714	-2.23909013071092	556.443723747244	1.23176032695746	30.2319383242727	1.51282937190917	-1.38552385889519	0.000994909676570455	-0.00200212724738408
0.61	2.59713764358786	-2.18099733702492	556.246439359672	1.23908131649417	30.1313133427084	1.53717822645994	-1.41321123759576	0.00100811235289988	-0.00216339317895747
0.62	2.66743987885351	-2.20785872639446	556.200023169969	1.26814471951088	30.0413181175992	1.53054376520877	-1.40524197002808	0.00105976292850662	-0.00232029461965022
0.63	2.72902042774991	-2.31812262284709	556.253094900661	1.31760023032218	29.9585550426989	1.49194901530444	-1.36072029460341	0.00114773274497859	-0.00247420511968943
0.64	2.79663141938516	-2.49733535737567	556.308834991772	1.3812555282177	29.8759086486197	1.42461580748284	-1.28366223774189	0.00126134540691736	-0.00262869341885374
0.65	2.88415016089096	-2.72126542423281	556.266705854935	1.44944080350034	29.7865187429386	1.33555049993861	-1.18241146749801	0.00138364017517179	-0.00278638330153802
0.66	2.9985281946356	-2.96044011471636	556.068926707973	1.51115950249097	29.6878914204578	1.23453842040003	-1.06838287416216	0.00149504717464155	-0.00294605553950728
0.67	3.13669039339808	-3.18478455934313	555.733313019922	1.55645879417444	29.5844943421235	1.13275776665617	-0.954416452662491	0.00157753087090007	-0.003101185405811
0.68	3.28635598271657	-3.36737557782446	555.358763416008	1.57842025548267	29.4877535749088	1.04127526625477	-0.853059872033935	0.00161817354777383	-0.00324052942704123
0.69	3.43012126936214	-3.48694509093876	555.099590760431	1.57429303867461	29.4133440100606	0.969671923963302	-0.775051401059678	0.00161134500853777	-0.00335057702078023
0.7	3.55091400557181	-3.5293543962681	555.116325672272	1.54553852865099	29.3766640653497	0.924983088726048	-0.728178571225879	0.00155900164739542	-0.00341898969314613
0.71	3.63658436389076	-3.48852894446478	555.51937614904	1.49686521562989	29.3880376272104	0.911048539378188	-0.71658299848222	0.00146918316899036	-0.00343782390293795
0.72	3.68200712745292	-3.36720086624855	556.324869740923	1.43461902530908	29.4492692309677	0.928282524639105	-0.740500989276992	0.00135328490338937	-0.00340547166158839
0.73	3.68828991195382	-3.17738806324819	557.438130262992	1.36506894285008	29.5526883298002	0.973811729673472	-0.796387794095333	0.00122301975608463	-0.0033267655065477
0.74	3.65993557806986	-2.94012755950083	558.670972041547	1.293129663294	29.6829548806144	1.04190074261364	-0.877366219115027	0.00108802852732748	-0.0032113588963556
0.75	3.60155436661176	-2.68385487269729	559.787635468125	1.22188521770088	29.8209787908422	1.12458677037849	-0.973950353504038	0.000954823078897604	-0.00307105585950762
0.76	3.51569712795573	-2.44110252936585	560.564742093607	1.15297497568632	29.948647203719	1.21246477604648	-1.07500221212319	0.000827236505079876	-0.00291703939198412
0.77	3.40268508903009	-2.24377885775772	560.846398016171	1.08757824271011	30.052866386025	1.2955830119575	-1.16886960097889	0.000707980661903806	-0.00275787464867144
0.78	3.2623247455928	-2.11791091247754	560.577910962977	1.02750232364187	30.1277492904512	1.36441234844389	-1.24462594420901	0.000600481002211328	-0.00259880280140889
0.79	3.09657466403075	-2.07909168216711	559.809514445514	0.975831450541461	30.1744815999522	1.41083596739033	-1.29329735763023	0.000510040027345005	-0.00244234097619561
0.8	2.91189084370318	-2.12978511761515	558.672013698299	0.936758393356719	30.1992214611276	1.42907632183757	-1.30893551445206	0.000443636900730238	-0.00228973659278192
0.81	2.72017967125465	-2.25914359812921	557.335511078835	0.914546154637562	30.2100408902305	1.41644959227531	-1.2893916823091	0.000408224662087675	-0.00214253944143589
0.82	2.53786060566375	-2.44529121806895	555.967032314019	0.911936354180295	30.2141740990184	1.3738300400371	-1.23667363927684	0.00040803684143409	-0.00200353883430315
0.83	2.38320646565552	-2.65939777766008	554.701435942945	0.928590120569064	30.2166141910413	1.30572559782832	-1.15681761104896	0.000441906784783064	-0.00187657176249179
0.84	2.27264790648425	-2.87052114569525	553.633225785906	0.960202963462505	30.2204798840097	1.21990921806687	-1.05926910260707	0.000501726707512695	-0.00176516303570201
0.85	2.21698500990206	-3.05019270397085	552.827552015442	0.998742542035373	30.228787961374	1.12660873320426	-0.955826957410734	0.000572857008142025	-0.001670463717794
0.86	2.21845061258001	-3.17598279856036	552.340467986088	1.03388074611962	30.2466140662594	1.03732161961916	-0.859257874252142	0.000636642203117321	-0.00158933167837455
0.87	2.26938519114026	-3.23365769342784	552.234667276036	1.0552682473551	30.2823683561436	0.963383218911748	-0.781733902342538	0.000674439807034299	-0.00151349196240758
0.88	2.35297179404962	-3.2178852747017	552.579072575876	1.0549905708836	30.3471828089152	0.91447153405672	-0.73328331971572	0.000672007205220648	-0.00143045109933299
0.89	2.44606788813295	-3.13168985162366	553.428099805771	1.02946611104777	30.4521382599014	0.897268720075334	-0.720469151867717	0.0006229314189099	-0.00132626871171426
0.9	2.52368123836891	-2.98499468771516	554.786348880163	0.980225897378785	30.6039982636851	0.914503609138551	-0.745504512081325	0.000530085050164719	-0.00118958785057471
0.91	2.5641428387675	-2.79265671599823	556.572876143602	0.913382865443579	30.8009025447722	0.964556305503176	-0.805964354877657	0.000404733437832983	-0.00101574476921368
0.92	2.55368471225319	-2.57241185283346	558.602407994117	0.838017448479914	31.029768275927	1.04171174327042	-0.895155865776344	0.000263663993207541	-0.000809559172526841
0.93	2.48912468422266	-2.34309905291059	560.597015923135	0.764024074527091	31.2667780282272	1.13702103658492	-1.00308308526345	0.000125288095732534	-0.000585676944701907
0.94	2.37781426043496	-2.12338956261947	562.231778385823	0.700070174733695	31.4813741128656	1.23960333596774	-1.11782318484298	5.87930585538299e-06	-0.000366052311134624
0.95	2.23485540512599	-1.93101629696949	563.205283062868	0.652191174331999	31.6429486670349	1.33813795269574	-1.22706291580121	-8.30927223498534e-05	-0.000175091330233024
0.96	2.07855367094664	-1.7822412418789	563.315313120317	0.623251040613351	31.7283708038188	1.42228386929243	-1.31954701603331	-0.000136080652907045	-3.3804512203417e-05
0.97	1.9257410244332	-1.69113547562003	562.516017726915	0.613170380722046	31.7280412143946	1.48382058127304	-1.38625756933031	-0.000153159577839346	4.52784860572319e-05
0.98	1.7886349464315	-1.66829470220891	560.937266353865	0.619598577432984	31.6485171404089	1.51740192319624	-1.42123879477243	-0.00013885280015713	6.08657172395666e-05
0.99	1.67422583050742	-1.7189121658924	558.858463656876	0.638662393701917	31.5108124000846	1.52091142773271	-1.42206150320431	-0.000100729444555303	2.25009955156508e-05
1	1.58606066980572	-1.84058974460786	556.643753349217	0.665551303316969	31.344880046791	1.49546964157579	-1.38995659870255	-4.82187990954452e-05	-5.27888566369539e-05
1.01	1.5272088733526	-2.02168245347373	554.657913937918	0.694911150141887	31.1820247555075	1.44515910261994	-1.32963786729624	8.26974748235898e-06	-0.000145614186245202
1.02	1.50265443124502	-2.24111110936456	553.18786140257	0.721192020260618	31.0476197300908	1.37651480371675	-1.24880774551777	5.81346620684986e-05	-0.000239366067098401
1.03	1.51962609843105	-2.47030645498705	552.391648276946	0.73914072931334	30.9562972185526	1.29780506212999	-1.15733193926094	9.15769827241064e-05	-0.000323701436188317
1.04	1.58535932705604	-2.677311114494	552.286582244147	0.744523034106069	30.9108316189451	1.2181261717563	-1.06610360806948	0.000100930428554191	-0.000395354828916172
1.05	1.70305660579186	-2.83229093814708	552.774601305789	0.734966341065384	30.9046045503503	1.14636465250059	-0.985692950614571	8.21316792034565e-05	-0.000456284904899296
1.06	1.86780645940422	-2.91311154474362	553.691348511438	0.710640272627026	30.9263331144456	1.09013280189529	-0.924964611787583	3.58467278718244e-05	-0.000510150967408918
1.07	2.06447007091778	-2.90948280989378	554.859553905813	0.674443563032291	30.965099291973	1.05483024226371	-0.889901670286345	-3.23060030017475e-05	-0.000558680438637937
1.08	2.26889796245893	-2.8245510613763	556.128988827302	0.631486301578203	31.0138527187682	1.04299736375147	-0.882866911867306	-0.000112779373497296	-0.000599415616229448
1.09	2.45253961402354	-2.67359337597795	557.393113847232	0.587908769046614	31.0703708163507	1.0540895371179	-0.902450650570075	-0.000194271191065853	-0.00062566556535304
1.1	2.58909786425643	-2.48034394024274	558.583021837617	0.549356779778642	31.1357820736179	1.0847187377285	-0.943921624848626	-0.000266468973793232	-0.000628534710986783
1.11	2.66096812832206	-2.27212686924264	559.648045060311	0.519612808127403	31.2117145592383	1.12930673283183	-1.00015768001032	-0.00032248172992666	-0.000600069286265326
1.12	2.66319953653639	-2.07515779363777	560.536124606807	0.49987276780227	31.2975438946622	1.18100519881437	-1.06283319245712	-0.000360100627029403	-0.00053620010769434
1.13	2.60364046228364	-1.91108003568171	561.184727502204	0.488947697481045	31.3889618590925	1.23269185056747	-1.12361102711184	-0.000381407388967414	-0.000438381113859632
1.14	2.49939698445725	-1.79519075279755	561.526362376313	0.484329824311726	31.478346156901	1.27786085216431	-1.17513138353653	-0.000390849954992833	-0.000313472511333512
1.15	2.37111620488073	-1.73617015525911	561.505004757876	0.483721966159018	31.5565620403941	1.31128401504546	-1.21168536798994	-0.000392504168151953	-0.000172160886039829
1.16	2.23732822059455	-1.73671474911176	561.09461332223	0.486422584122512	31.6152599803969	1.32940386198792	-1.22956955600695	-0.000387602466212389	-2.67068217152389e-05
1.17	2.11086249363346	-1.79442020137185	560.310570212128	0.493975050079486	31.64867503715	1.33049921433628	-1.22720045023441	-0.000373379737622193	0.000111120270602338
1.18	1.9983294870036	-1.9025079281477	559.209100983668	0.509737901303058	31.6543491174099	1.31470895597056	-1.2050980476565	-0.000343846358023314	0.000231380466149844
