Time [s]	GRFml [N]	GRFap [N]	GRFv [N]	Mml [N.m]	Map [N.m]	Mv [N.m]	Mfree [N.m]	COPml [m]	COPap [m]
0.01	1.86589009038255	1.25430496083528	620.637821514909	-1.56033286405215	-0.0659759043104481	0.784402634269944	-0.789026363569769	0.00161841909904226	-0.00102901365197633
0.02	1.39447958568541	1.17498763696488	619.132650207282	-1.63133345774859	0.147942247582523	0.834308493466557	-0.838047912430262	0.00149998420078323	-0.000676126474824124
0.03	0.941118069053542	1.12664155639293	618.269593798159	-1.69819701255891	0.384507740929738	0.877124662420641	-0.880088244583974	0.00139118471572486	-0.000289726484663855
0.04	0.523755812766775	1.13471004158308	618.57187206657	-1.76018493073719	0.659455239057858	0.906280849331168	-0.908677028662049	0.00129590491732434	0.000152896864921204
0.05	0.154594050739469	1.21959215408211	620.370257340365	-1.82206667504128	0.982421119798038	0.916409268684519	-0.918577330949909	0.0012087586172429	0.000664452896551815
0.06	-0.161941348604957	1.39551878197802	623.75627635483	-1.89392887820359	1.3565491229057	0.903839623017026	-0.906283134607063	0.00111516162885039	0.00124716292002036
0.07	-0.429602825751582	1.66946929602716	628.57729358235	-1.98840302070634	1.77907647670346	0.867110736131469	-0.870510548996321	0.000995502775221091	0.00189417370651779
0.08	-0.659009208921226	2.03991406416131	634.472214684165	-2.11615155648559	2.24230640828035	0.807466426084578	-0.8126522598279	0.000832124472491702	0.00259179615887417
0.09	-0.864938562183782	2.49541468317501	640.939146137747	-2.28115279092696	2.73439357605313	0.729208875814062	-0.73707776548758	0.000616734457080326	0.00332143634388399
0.1	-1.06283127731371	3.01352590297332	647.421071886428	-2.47748788328789	3.23964124249238	0.639707634815004	-0.651092462463173	0.000355611844459758	0.00406050754597648
0.11	-1.26519870825016	3.56083184997705	653.393222266494	-2.68890308950638	3.73838659547482	0.548863301329375	-0.564371628882192	7.06256588252074e-05	0.00478227602058495
0.12	-1.47856162362902	4.09503343134196	658.436478300522	-2.89153975024356	4.20687604607964	0.467931441176208	-0.487788955469296	-0.000204572229673849	0.00545522314422153
0.13	-1.70139628949454	4.56958706945098	662.284582844464	-3.05918289517951	4.61768883331683	0.40780468554349	-0.431743680732275	-0.000432230690784685	0.00604287986923291
0.14	-1.92341347548636	4.9405246356761	664.838482842168	-3.16952204501074	4.94120246424477	0.377063234963308	-0.404291357172664	-0.000579805224951935	0.00650508640425834
0.15	-2.12635552813312	5.17408312477546	666.147876528661	-3.20953948592348	5.14832199268215	0.380250318222658	-0.409518277461073	-0.000628051912159977	0.00680124919558417
0.16	-2.2863432154435	5.25310552048063	666.366788814752	-3.17838734457383	5.21428889391283	0.416840874044213	-0.446603851546289	-0.000575435526327994	0.00689551516290454
0.17	-2.37759959631349	5.18021792424578	665.695369628882	-3.08692018231933	5.12295753023303	0.481228014342315	-0.50987084734707	-0.000437578222397539	0.00676304873401223
0.18	-2.37710747722496	4.97662577212487	664.32278923063	-2.95414426587084	4.87060970643088	0.563790468034903	-0.589868929535158	-0.000242109811615432	0.00639601064662942
0.19	-2.26945220079615	4.67673102767559	662.385230516011	-2.80183799585102	4.46828984097476	0.652808424116994	-0.675253772274512	-2.07668875084055e-05	0.00580761218687764
0.2	-2.05085264712838	4.32013516447411	659.948540455655	-2.64912590335124	3.94185372267353	0.736762641068162	-0.755005998013606	0.000198617348137531	0.00503288309334876
0.21	-1.73132523426796	3.94342569382596	657.018130251075	-2.50866288334959	3.32941691015859	0.80645811475723	-0.820452482641448	0.000397769150550897	0.00412553025415918
0.22	-1.33418778035731	3.57412637680023	653.571094423651	-2.38537710727715	2.67655049943492	0.856485442521915	-0.866629850391286	0.000569859634665826	0.00315129630261729
0.23	-0.892734811210408	3.22834092706045	649.599445079423	-2.27773068712984	2.03021156738798	0.885739498551704	-0.89273380125169	0.000717670551452887	0.00217924359216398
0.24	-0.444784987507503	2.91227078707021	645.150601742841	-2.18058686674275	1.43280271348756	0.896982135644197	-0.901655263192854	0.000849383762998701	0.00127304916629495
0.25	-0.0266247683011943	2.62644574103213	640.35260320515	-2.08834853372013	0.917773336068921	0.895675599394664	-0.89883083701339	0.000973966418647776	0.00048444825204158
0.26	0.331726143393588	2.37065619575116	635.416446664302	-1.99717681534553	0.5077632124216	0.888456925652278	-0.890765893537551	0.00109790712300806	-0.000149658100792538
0.27	0.608319773185509	2.14750940185772	630.614997870384	-1.90569035713774	0.215544047922071	0.881642352188906	-0.883599724945489	0.00122417627107774	-0.000606054654941068
0.28	0.787624943475085	1.96325071523794	626.244967648216	-1.81429260830823	0.0471515735037294	0.880062167956607	-0.881993138392406	0.00135317554944836	-0.000870960872877358
0.29	0.856405756400457	1.82571084549476	622.583425870371	-1.72384659971399	0.00589151902086055	0.886381217165166	-0.888480258447611	0.00148460099442349	-0.000934676292411507
0.3	0.799484157725539	1.74049107841164	619.851673239953	-1.63458937520943	0.0955947927008078	0.90091835415828	-0.903295091095568	0.00161890580667845	-0.00078754518947699
0.31	0.598239784314546	1.70729462870404	618.196448744728	-1.54591763989443	0.321729801751961	0.92188300426245	-0.924598716911903	0.00175745834065755	-0.00041924151552819
0.32	0.233905395193302	1.71833185505336	617.692119225418	-1.45714038827974	0.689723434235827	0.945910208203414	-0.949002153544714	0.00190130225666418	0.00017782846700426
0.33	-0.304290338979772	1.7599377589563	618.359639982789	-1.36875241334283	1.20088438416094	0.968778396677756	-0.972281767296461	0.00204922928088436	0.00100184088735839
0.34	-1.00859864489273	1.8172195533415	620.191470130733	-1.2834898991759	1.84731684150436	0.98620502953195	-0.99018737641381	0.00219628658183335	0.00203392360546961
0.35	-1.84423159048134	1.88019281205611	623.168969235554	-1.20651262117345	2.60778656652446	0.994612750978899	-0.999229759603913	0.00233367790482342	0.0032327014729458
0.36	-2.74750379268608	1.94899920048983	627.261598031158	-1.14446206368548	3.44639428304811	0.991746362264036	-0.997312703982264	0.00245037712222629	0.00453381064212088
0.37	-3.63344307020198	2.03580558872385	632.404960517911	-1.10366785890063	4.31509259859482	0.977023293459841	-0.984074415866437	0.00253597545359596	0.00585572269592954
0.38	-4.41218171686554	2.16194278763021	638.46467175206	-1.0881665477497	5.15979642304784	0.951542665330339	-0.960851848521667	0.00258371260846924	0.00711107607835137
0.39	-5.00962759790759	2.35048443420532	645.201229702688	-1.0982810007197	5.92853767869481	0.917763079591284	-0.930280594150359	0.00259255666003222	0.00822064080206913
0.4	-5.38547199293737	2.61624613182067	652.253800194281	-1.13026372378833	6.5793044916247	0.878957684021387	-0.895658124517898	0.0025676138789813	0.0091258588286478
0.41	-5.54179294365137	2.95644773647416	659.156319889861	-1.17706460843395	7.08522718381839	0.838619299228193	-0.860274690204041	0.00251884818367709	0.00979613955804476
0.42	-5.51856142521913	3.34549476564458	665.38873524604	-1.22985574317243	7.43565831041644	0.799981779473671	-0.826911064633165	0.0024587354411908	0.0102287464060239
0.43	-5.37718083735427	3.73630156674451	670.45336307722	-1.27971882531084	7.63312552123122	0.765746136091146	-0.797612763803031	0.00239978872985169	0.0104416130607634
0.44	-5.17783800006282	4.06855667351697	673.956343568577	-1.31894999814625	7.68756778629899	0.737991722818277	-0.773719681782855	0.00235276625166325	0.0104618387410482
0.45	-4.95893526367886	4.28198557457924	675.671128034747	-1.3417041384516	7.61014199011965	0.718172840316963	-0.756024883355027	0.00232592358545358	0.0103140048100941
0.46	-4.72609874155807	4.33085033640677	675.566325724426	-1.34403544036099	7.40887457510054	0.707091843597669	-0.744908756482034	0.00232514306184217	0.0100123007758051
0.47	-4.45449653460493	4.19534782546624	673.791993596553	-1.32363139006906	7.08755960069598	0.70480190898933	-0.740353250644762	0.00235441948650383	0.00955883414927117
0.48	-4.10300905515431	3.88649124293351	670.631907907647	-1.27958454238678	6.64794534950507	0.71048520299114	-0.741846883378408	0.00241614716934713	0.00894809287876802
0.49	-3.63431484461262	3.4431686682177	666.439199426697	-1.21240416436514	6.09396646922859	0.722417670517591	-0.74828250817621	0.00251091754540067	0.00817529259567912
0.5	-3.03298504766995	2.92258677841317	661.575355570512	-1.12423129061138	5.43607362511651	0.738128815912513	-0.757975930148372	0.00263693887164174	0.00724512494660584
0.51	-2.31490783017263	2.38729621926932	656.36760918321	-1.01901940965998	4.69382924564182	0.754791119554418	-0.768881355241796	0.00278951305187491	0.00617762124516702
0.52	-1.52512201657497	1.89275555888987	651.090006689757	-0.902387008467759	3.89576299774673	0.769765337118834	-0.778978342878259	0.00296108114044014	0.00500925288007464
0.53	-0.725747523903204	1.47873171211872	645.96360691807	-0.780969014311343	3.07661491981742	0.781139703597562	-0.786707864776687	0.00314213660810025	0.00378932812059418
0.54	0.0207603386556259	1.16613240995023	641.165485555015	-0.661331872006087	2.27304400031636	0.788078285568499	-0.791292139002301	0.00332290743840502	0.00257338592250239
0.55	0.666655717121769	0.958876433726429	636.836371779441	-0.548749856898827	1.51928044905559	0.790850781969556	-0.792806706833338	0.00349532295268074	0.00141602157838605
0.56	1.18730812257563	0.848920339010202	633.081721827051	-0.446244916193769	0.843964529558252	0.790531231174529	-0.791970203031183	0.00365460601084666	0.000365258671044644
0.57	1.58115437760231	0.822060914897039	629.967589748042	-0.354205971085328	0.268744722355062	0.788479657279366	-0.789735750818052	0.00379996462904331	-0.000540468994766174
0.58	1.86269356553685	0.862621014335965	627.517171901447	-0.270657867074537	-0.19153476266811	0.785807562133135	-0.786857177881105	0.00393424745528892	-0.00127285558184737
0.59	2.05216841409186	0.95617876554993	625.714205278901	-0.191960481489581	-0.527710185274742	0.783040101685481	-0.783624590078429	0.0040628912227173	-0.00181270779907383
0.6	2.16592582075378	1.09052229000006	624.515710601521	-0.113532136559783	-0.734966232005783	0.78011792498639	-0.779905226345853	0.00419279170518516	-0.0021484554748864
0.61	2.21026027129866	1.25554975625595	623.871184443183	-0.0302158451941512	-0.811768740479103	0.77675279951718	-0.775505305411629	0.00433170202021138	-0.00227489634851663
0.62	2.17968949961378	1.44278031185737	623.741302524784	0.063849703182919	-0.759176075274469	0.773007014868198	-0.770728436780388	0.004488388480964	-0.00219234244203742
0.63	2.05904807185513	1.6447355611385	624.108681473268	0.175637590933649	-0.580408041950082	0.769857469142009	-0.766897139567926	0.00467322190015262	-0.00190598503105494
0.64	1.82806560529941	1.85409275485444	624.976513487081	0.31341763685148	-0.280543528048464	0.769473329817228	-0.766570714362323	0.0048984369879832	-0.00142529776547817
0.65	1.46717609557254	2.06249502130638	626.356235119198	0.48617590191734	0.133625541013975	0.775002679882405	-0.773259459949667	0.00517722328914638	-0.000763552532538847
0.66	0.963695490682985	2.25924364657093	628.25011717085	0.70199385845472	0.65340637199754	0.789820785108212	-0.790595677997619	0.0055212257553181	6.22386777686668e-05
0.67	0.317667691766713	2.43052954013815	630.636482758418	0.965606029763718	1.26752167837699	0.816399606118166	-0.82113424626199	0.00593679987692652	0.00103066958872877
0.68	-0.45359320244851	2.56002422571347	633.463437001532	1.27586038421748	1.96099101253468	0.855145776188412	-0.86514752622336	0.00642115079818728	0.00211464110903875
0.69	-1.31367778385375	2.6313207766807	636.65261823309	1.62407231960029	2.7139594298607	0.90364334024083	-0.919867956573371	0.00695989561862453	0.00327999341876045
0.7	-2.20943546731	2.63195678983055	640.109826071778	1.99412370920531	3.50107948884703	0.956669893992902	-0.979556057957678	0.00752736240140139	0.00448499001678782
0.71	-3.07816953461626	2.55789934138473	643.736678405149	2.36462113629649	4.29201046705774	1.00712600329309	-1.03652801636315	0.00809009238032288	0.0056814970671808
0.72	-3.85870812652358	2.41685672693303	647.437784634802	2.71268865903	5.05325825868458	1.04769378975438	-1.08293592539633	0.00861285366632158	0.00681815261683355
0.73	-4.50354347601376	2.22890276300666	651.120801423057	3.01833705319163	5.75107445835352	1.07274204745819	-1.11278292574955	0.00906548809509855	0.00784501950511907
0.74	-4.98811528671106	2.02366617823284	654.690485652483	3.26810217202919	6.35470056631603	1.07985092691436	-1.12351016967612	0.00942853486853867	0.00871854431896263
0.75	-5.31369813202431	1.83446358710821	658.040589369459	3.45689741548479	6.83909970974401	1.07041650404785	-1.11659283657628	0.00969598757731149	0.0094054478455774
0.76	-5.50237070969399	1.69079614245197	661.048023898713	3.5876760606827	7.18654402754251	1.04909846397506	-1.09690910106241	0.00987457872042796	0.00988457376241864
0.77	-5.58552242252516	1.61119315623813	663.572261816042	3.66927135376146	7.38691899951247	1.02228259484536	-1.07108044242825	0.00998020772714958	0.0101465513521154
0.78	-5.59005648887396	1.59829317745769	665.460580956846	3.71335589943798	7.43713009336025	0.996083880097407	-1.0453536345255	0.0100330275862699	0.0101919981108416
0.79	-5.52764225170733	1.63739312864374	666.557923949237	3.73162219017606	7.34029732238322	0.974575369646979	-1.02375597156336	0.0100529417700775	0.010029483808017
0.8	-5.39140371811631	1.69875004303306	666.719766453796	3.73401301646818	7.10535174268345	0.958832708117747	-1.00714403461658	0.0100568078190436	0.00967435725576077
0.81	-5.1615782832455	1.74301745954895	665.827350560538	3.72828788857444	6.74723660309617	0.947077291158582	-0.99343103718415	0.0100577620296755	0.00914885144718286
0.82	-4.81804713630103	1.72858671328584	663.805895845637	3.72065170622821	6.28736406582335	0.935805332852644	-0.978851781776097	0.0100661799253324	0.00848295499047813
0.83	-4.35470783154387	1.61938152066137	660.646573530885	3.71681318966867	5.75356180488313	0.92145364775449	-0.959766960811749	0.0100912258053739	0.00771481709595323
0.84	-3.78965558085594	1.39177986860133	656.431254980913	3.72278309249649	5.17868893294616	0.901990636831077	-0.934342923560149	0.0101418858893159	0.00688931189830899
0.85	-3.16652123980389	1.0396758339023	651.355591154558	3.74493344594925	4.59748132431968	0.877876968953074	-0.903514800906098	0.010226767428212	0.00605395219782712
0.86	-2.54558738213119	0.577084548669421	645.742311927884	3.7891986556303	4.04188465808407	0.852080856752722	-0.87091064586186	0.0103525730171269	0.00525243030249245
0.87	-1.98722970961052	0.0380113785191608	640.034865114969	3.85966478556721	3.53588101150199	0.829165587789613	-0.841779563642287	0.01052177431371	0.00451724840402323
0.88	-1.53331384177043	-0.526490065468325	634.763432386866	3.95705152477045	3.09129591541405	0.813777583046198	-0.821301675482214	0.0107304093172095	0.00386367913675656
0.89	-1.19323774812593	-1.05400117903017	630.481460375221	4.07767900975947	2.70605068168013	0.80905288825376	-0.812854876680631	0.0109670023969914	0.00328729042284565
0.9	-0.939922077316399	-1.47888435343468	627.679825469515	4.21341410640239	2.36574337993709	0.815474748200783	-0.816816242348465	0.0112133450484965	0.00276638741452834
0.91	-0.717693650456545	-1.74222983959294	626.69475102447	4.35283328097479	2.04846193429093	0.830558763873822	-0.830292745242931	0.0114473512566665	0.00226922315265227
0.92	-0.459886122739186	-1.80237314489612	627.631187582956	4.48348287429675	1.73168427089961	0.849471685965927	-0.847872606384581	0.0116475545391574	0.00176422861384568
0.93	-0.110583923099572	-1.64414629055542	630.322912748969	4.59475586345971	1.39938211152363	0.866393949172328	-0.863165131566816	0.0117982286618017	0.00123040380834077
0.94	0.356515702366914	-1.28466472295916	634.343420541525	4.68064905203334	1.04729831126602	0.876207337747936	-0.870655271360837	0.0118937812946269	0.000664824999556224
0.95	0.928146977816918	-0.7736402614305	639.069450983271	4.74161493762136	0.684884663049654	0.875996662930393	-0.867312369508856	0.0119411285152758	8.50547998565432e-05
0.96	1.5533954616543	-0.187116453969199	643.78535041326	4.78492209522631	0.33340073261111	0.86592316287873	-0.853483199464013	0.0119592340534435	-0.000474186252328979
0.97	2.15649048053178	0.384953907012051	647.805588452915	4.82334483376462	0.0208422357576149	0.849231463454193	-0.832833246008004	0.0119757707175795	-0.000968958327830949
0.98	2.65600874699305	0.855118584391991	650.588085832736	4.87249171079941	-0.224700366765162	0.831422134954811	-0.811397382979947	0.0120216908588275	-0.00135615579545489
0.99	2.98426349281539	1.15524287202018	651.813936175294	4.94748634834097	-0.381256085538348	0.818868178115133	-0.796062419781347	0.0121250969102088	-0.00160265951218502
1	3.10109380962576	1.24962656557064	651.418630118901	5.0598900931703	-0.437015171169787	0.817296210223629	-0.792944931953228	0.0123059708454443	-0.00169103968225554
1.01	2.99861650818338	1.14096838487141	649.572992421667	5.2156447722459	-0.391248396194683	0.83055019570022	-0.806108440942986	0.0125729987166763	-0.00162052589566247
1.02	2.69681626544205	0.867481434224245	646.624708467512	5.41446326902227	-0.252214166903594	0.859919042307128	-0.836903052806037	0.0129230400644323	-0.00140357606752367
1.03	2.23291638878582	0.491857599407382	643.019828706799	5.6506401293524	-0.033132623260627	0.904098721028989	-0.883977171632753	0.0133429974195255	-0.00105979398070705
1.04	1.64923940105737	0.085097149076766	639.225733335412	5.9148568157266	0.252134883057912	0.959657748516704	-0.943796634061843	0.0138132171345938	-0.000609697617238281
1.05	0.984188180494173	-0.290276942400555	635.67257466902	6.19634214000772	0.592089606203308	1.02175518905317	-1.01138956561319	0.0143112904377174	-7.06893391829722e-05
1.06	0.269182540050363	-0.592930925209104	632.721158423173	6.48476150295375	0.978261950089805	1.08485756541776	-1.08104895923642	0.0148152587937506	0.000543405350419746
1.07	-0.468382095701875	-0.807947040758337	630.654947303601	6.77140585671055	1.40345922749317	1.14329893920661	-1.14684615112897	0.0153056453113415	0.00121932324634283
1.08	-1.19873127620297	-0.943525354870019	629.685977652947	7.04953540727606	1.85846367162488	1.19166888811053	-1.20296873874057	0.0157662358974439	0.00193937287454055
1.09	-1.88391468790029	-1.02085644577717	629.961568737351	7.31400121800675	2.32866962951815	1.2251240730117	-1.24401459604168	0.0161839330478682	0.00267680721744312
1.1	-2.47638371802273	-1.06107303499975	631.5614583272	7.56045076217129	2.7922132804191	1.23974818396924	-1.26539287459346	0.016548197690986	0.00339385577870149
1.11	-2.92379403813858	-1.0741214308412	634.481971791348	7.78449677257119	3.22063449151831	1.23302337937089	-1.26389760306435	0.0168505778662605	0.00404379388704107
1.12	-3.17913878820991	-1.0536859942132	638.612033190566	7.9811998645014	3.58221036170713	1.20436050155358	-1.23837624658024	0.0170846629049572	0.00457697200058638
1.13	-3.21290325663991	-0.980134881260688	643.71191238547	8.14510333660951	3.84714939488397	1.15552740059854	-1.19028874653723	0.0172465789474656	0.00494928089644675
1.14	-3.02285762178675	-0.830532997438576	649.407202953853	8.27088490834029	3.99318392340428	1.09077138556588	-1.1239078773179	0.0173359160398533	0.00513063090565852
1.15	-2.63779035175911	-0.592093635748708	655.207136560869	8.35448608797621	4.00997197660218	1.01647934797075	-1.04597656365383	0.0173567863495138	0.00511099443864144
1.16	-2.11359333692172	-0.273984286098751	660.549394279669	8.39439613190398	3.90113317324405	0.940344160672989	-0.964791373676271	0.0173185920671101	0.00490237319815889
1.17	-1.52273262991253	0.0872578754860181	664.865714719636	8.39266968659727	3.68350629473467	0.870164234716023	-0.888867070328388	0.0172360735066366	0.00453635501927807
1.18	-0.940233582093323	0.431365939796058	667.656527427021	8.35529898377087	3.38402712705014	0.812538053935676	-0.825487058269576	0.0171283476218695	0.00405821270297307
