Time [s]	GRFml [N]	GRFap [N]	GRFv [N]	Mml [N.m]	Map [N.m]	Mv [N.m]	Mfree [N.m]	COPml [m]	COPap [m]
0.01	-0.162860712588441	1.19154560880737	616.461382068371	40.2854334164219	-20.0513071026282	1.35276603837972	-1.32467713554758	-0.00709827998924129	-0.00374338349367975
0.02	-0.511165572083892	1.3150481574912	616.740602909298	40.3329534305173	-20.0424850892083	1.35762497055117	-1.34837067150489	-0.00704700483623977	-0.00371852309780063
0.03	-0.811809273614475	1.45106627113167	617.152422816378	40.3778034306094	-20.0466318194146	1.36277860695355	-1.3687902968325	-0.00701410364688748	-0.00370762913565581
0.04	-1.02698934046778	1.61208468670271	617.812177401467	40.4170223126862	-20.0749235577759	1.36855741321387	-1.38335379765532	-0.00701660236963342	-0.00372262021472936
0.05	-1.13241081350207	1.80387234658682	618.768165868007	40.4489389564846	-20.1348739299588	1.37598680121212	-1.39128721789332	-0.00706236208221112	-0.0037729988511378
0.06	-1.11965305064572	2.02290791740586	619.987136612997	40.4737045444927	-20.2291822883141	1.38685129646136	-1.39392963541159	-0.00714769458717712	-0.00386478303596138
0.07	-0.995399165487556	2.25557082102941	621.359198000834	40.4934580993975	-20.3552210006733	1.40339593564949	-1.39441049339115	-0.00725761754740717	-0.00399946687194475
0.08	-0.778137661957429	2.47952189558134	622.719494724633	40.5120563405268	-20.5052771153214	1.42773800924041	-1.3967989678488	-0.00736857020608761	-0.00417331715542324
0.09	-0.493635841387065	2.66731045822607	623.880450284666	40.5343726080744	-20.667550751235	1.46114915097947	-1.40496993022532	-0.00745292236069472	-0.00437731256373036
0.1	-0.170687391909959	2.79169300417967	624.666866878164	40.5652718598703	-20.8277592500152	1.50340371182217	-1.42149850397216	-0.00748429427249464	-0.00459787091992619
0.11	0.161745497103675	2.83159470367338	624.946707465782	40.6084839309272	-20.9710608675105	1.55237612686064	-1.44687493338208	-0.00744258613442006	-0.00481827848307048
0.12	0.475683206802566	2.77730620490739	624.652464927566	40.6656824592616	-21.0839552870528	1.60401891416703	-1.47923800061744	-0.00731770398267484	-0.00502055116878874
0.13	0.744145924348144	2.63355100735025	623.790831510533	40.7360791637069	-21.1558665130689	1.65277666246437	-1.51468871379288	-0.00711125934725421	-0.0051873991729281
0.14	0.941183610355191	2.41951490753471	622.441027864023	40.8167309160479	-21.1802414491551	1.692401000049	-1.5481023485192	-0.00683596874614412	-0.00530403498842913
0.15	1.04306746671193	2.16567982894048	620.743944443873	40.9035459262685	-21.1551417192492	1.71703918442713	-1.57423959565088	-0.00651299165956709	-0.00535969436065092
0.16	1.03120730932748	1.90812747451277	618.884907299189	40.9927315923433	-21.0834007669958	1.7223913301589	-1.58889185072278	-0.00616789173612775	-0.00534884165236066
0.17	0.896427551357943	1.68163063586528	617.072596248983	41.0822430261992	-20.9724281419731	1.70668939248005	-1.58979484816827	-0.00582616289431315	-0.00527204520159402
0.18	0.643349282269074	1.51314753877339	615.515959080836	41.1727470652679	-20.8336819041226	1.67126347866068	-1.5771073755961	-0.00550926381013839	-0.00513643434926286
0.19	0.29316986752168	1.41720291893466	614.400503402951	41.2677404679682	-20.6817524014539	1.62053422143288	-1.55336076726897	-0.00523187049571883	-0.00495554639139406
0.2	-0.116682465879745	1.39412776832531	613.865501423936	41.3727169445931	-20.5329725007782	1.5613912666766	-1.52291147248087	-0.00500068258685848	-0.00474832514625706
0.21	-0.536753061119163	1.43139008715516	613.984373864993	41.4935792722414	-20.4035344103911	1.50205771672481	-1.49104069714372	-0.00481473279025313	-0.00453711246522198
0.22	-0.9132342166918	1.50748945497737	614.751363230807	41.6347378650445	-20.3072486884028	1.45066151448237	-1.46291546132687	-0.00466685904528741	-0.00434469449020353
0.23	-1.19763651348447	1.59731074072453	616.07789258541	41.7974461176702	-20.253275230306	1.41380525509622	-1.44264103901545	-0.00454585792801421	-0.00419077272905544
0.24	-1.35629262985701	1.67757578652209	617.801190212977	41.9788643245116	-20.2443085733162	1.39542853737968	-1.43259715253982	-0.00443883743066065	-0.00408852202543181
0.25	-1.3774165059204	1.73113892429178	619.705722983388	42.1721412181888	-20.2757341142571	1.39619286806295	-1.4331730190926	-0.00433338000240069	-0.00404205595199469
0.26	-1.27392212565413	1.74928655348282	621.555139588807	42.367520440086	-20.3361456521884	1.41350567446545	-1.44292006264766	-0.00421925696018799	-0.00404555766646014
0.27	-1.08113585457192	1.73179180710261	623.12960498969	42.5542021350915	-20.4093377363637	1.44216470150521	-1.45904858690329	-0.00408956194907595	-0.00408452688563699
0.28	-0.849680546615118	1.68507486874059	624.261529129295	42.722493481792	-20.4775199698618	1.47547709805226	-1.47812621822828	-0.00394123391024759	-0.00413909538776858
0.29	-0.634911908454015	1.61926581737658	624.862418877482	42.8657149198484	-20.5251419083129	1.50661467191327	-1.49680521786139	-0.00377501385109613	-0.004188798120769
0.3	-0.485115716569531	1.54514512913203	624.935087692151	42.9814020144876	-20.5424738271936	1.5299251025045	-1.51241732835111	-0.00359492609391809	-0.00421771815226768
0.31	-0.431050733562908	1.47181253469634	624.568404422019	43.0715301840453	-20.5280480336657	1.54193471793095	-1.52332322193908	-0.00340739821588576	-0.0042187084213024
0.32	-0.479245139642005	1.40556689115819	623.915446710146	43.1417376585614	-20.4892672447565	1.54184774129466	-1.52897499908745	-0.00322014274009086	-0.0041955297762214
0.33	-0.610718680546142	1.35000456584634	623.159497656562	43.1997664201995	-20.4409028999521	1.53145643677625	-1.52972564806443	-0.00304092837118242	-0.00416223027395446
0.34	-0.78561703508566	1.3069294894514	622.474994588875	43.2535224097598	-20.4017391645539	1.51450546099617	-1.52647959785013	-0.00287637662137619	-0.00413980787679874
0.35	-0.952838492268503	1.27745253166233	621.991705094629	43.3092347240772	-20.3901212109023	1.49567566014103	-1.52030860145083	-0.00273092864634217	-0.00415094348357614
0.36	-1.06243642849075	1.26269804758486	621.769752041365	43.3701546044978	-20.4194868141452	1.47943936994328	-1.51215056726259	-0.00260612376577829	-0.0042141368461342
0.37	-1.07776211139538	1.26378986384031	621.790690614691	43.4360913735265	-20.4949917926148	1.46906655992588	-1.50266887059135	-0.00250029967419751	-0.00433875231648673
0.38	-0.984266681249032	1.28114183278394	621.966144331181	43.5038699309794	-20.6120619666584	1.46601605866746	-1.49228836850504	-0.00240875987454281	-0.00452222803987196
0.39	-0.792707293509032	1.31339106709357	622.161423734069	43.5685645776099	-20.7571950285261	1.46983510376742	-1.48136017790025	-0.00232437123776597	-0.00475010048131669
0.4	-0.536020041738004	1.35647803181191	622.228175371407	43.6251736126959	-20.9107483647417	1.47854274198505	-1.47036044774435	-0.00223848356966627	-0.00499873441832044
0.41	-0.260891216159787	1.40335396082346	622.038384711448	43.6702973056466	-21.0509606472677	1.48933424413563	-1.46001536369376	-0.00214203012372294	-0.00523996000155774
0.42	-0.0165136823551482	1.44460642218649	621.512411245154	43.7033959900732	-21.1582052947444	1.49936231963222	-1.45127238233442	-0.00202667701494252	-0.0054464023732208
0.43	0.15632539859655	1.47000673399897	620.635887449838	43.7273309661572	-21.218516825093	1.50635610923676	-1.44509939496087	-0.00188591738909261	-0.00559624540128034
0.44	0.233023123246225	1.47068179019323	619.463400621387	43.7480906740705	-21.2257217571243	1.50892801281877	-1.44216893814741	-0.00171601955931266	-0.00567647204339444
0.45	0.208195837464775	1.4413755386001	618.109838423522	43.773816742533	-21.1819249629547	1.50655534666149	-1.4425458842441	-0.00151672022967309	-0.00568413506544013
0.46	0.093943603365199	1.38215610584216	616.732318281689	43.81340527553	-21.0965074611513	1.49935269129824	-1.44551846322008	-0.00129152028018642	-0.00562574812400968
0.47	-0.0852897294335343	1.29898864148975	615.506483003438	43.8750260703807	-20.9840695442241	1.48781836952733	-1.44968015616644	-0.00104743214784719	-0.00551528296656401
0.48	-0.299163007090852	1.20284330969798	614.600892627415	43.9648704782752	-20.8618555481776	1.47271696825373	-1.45328898452777	-0.000794083421218783	-0.0053714242176191
0.49	-0.517203759569507	1.10740034266904	614.152777005262	44.0863349006062	-20.7471452731755	1.45516004271021	-1.4548259659939	-0.00054221072084204	-0.00521467807663017
0.5	-0.712694257337979	1.02584513468006	614.247939967043	44.2397157370615	-20.6549613626629	1.43681581444484	-1.45358438332648	-0.000301751814156148	-0.00506474436941773
0.51	-0.864524177391464	0.967572333518691	614.907233517592	44.4223738915076	-20.5963003679118	1.4200786567563	-1.45008398910397	-7.99043215943263e-05	-0.00493836109284584
0.52	-0.95768806874895	0.935710106115892	616.081579713546	44.6292475050932	-20.5769992801377	1.4080106197986	-1.44614035489685	0.000120396367506159	-0.00484770604204277
0.53	-0.983404312865098	0.926180925403464	617.656740728316	44.8535575970154	-20.5973054289824	1.40394335404957	-1.44452177874344	0.000301162805297572	-0.00479941363223985
0.54	-0.939553686898615	0.928587520749519	619.467777836981	45.0875583366257	-20.6521940842166	1.41076889128305	-1.44825920344082	0.000468951630822834	-0.00479429239520029
0.55	-0.831497453299747	0.928696027345257	621.321510145602	45.3232222760397	-20.7324313511621	1.43009208319765	-1.45978973232103	0.000633378684568253	-0.00482783462686387
0.56	-0.67269250278467	0.91185699296272	623.023647887809	45.5528087015717	-20.8262852584102	1.46150530930272	-1.48017060719013	0.000804855980656605	-0.00489153726722541
0.57	-0.484203548574895	0.866492154382887	624.406112721299	45.7693235651955	-20.9216569866161	1.50224197381035	-1.50858177786425	0.000992095063476861	-0.00497489831103803
0.58	-0.292389175608381	0.78682536660829	625.349774748668	45.966920988999	-21.0082808670791	1.54737148265702	-1.54225422521448	0.00120002708377986	-0.00506776703725487
0.59	-0.124660682906433	0.674299019782501	625.798608853214	46.1412993925489	-21.0795795185294	1.59054891822552	-1.57685002019307	0.00142870714058119	-0.00516258644356243
0.6	-0.00403718536132535	0.537478764458906	625.7629767144	46.290102781019	-21.1337952975032	1.62517648037235	-1.60721355394501	0.00167350248013109	-0.00525603614397546
0.61	0.0560963573761135	0.390585335283038	625.31197833477	46.4132642064733	-21.174153347698	1.64571647882937	-1.62833576729362	0.0019264815980865	-0.00534968634026151
0.62	0.0553923800479326	0.251019057076526	624.557027393267	46.513158937958	-21.2080138568082	1.64884719164299	-1.63633409811149	0.00217854699643749	-0.005449485941667
0.63	0.00684738783958966	0.13634317872858	623.63042408464	46.5944110834559	-21.2451905680468	1.63418335957395	-1.62924947296264	0.00242162211619867	-0.00556417687541039
0.64	-0.0663445972947607	0.0612062961756954	622.663331505565	46.6632469759934	-21.2957952846374	1.60438384210428	-1.60749414948843	0.00265020438093833	-0.00570298628385213
0.65	-0.136631570146086	0.0346682369092245	621.767112247139	46.7264093230814	-21.3680714038653	1.56461588131145	-1.57384739685151	0.00286183941884144	-0.00587313581411308
0.66	-0.178962801241019	0.0583743601849477	621.020692389773	46.7898031417258	-21.4666802175571	1.52150307440486	-1.53298500808206	0.00305647246837781	-0.00607777341489862
0.67	-0.176645812058806	0.125974105255672	620.464973177022	46.8571824314387	-21.591801076423	1.48181206020153	-1.49063111864325	0.00323504610336567	-0.00631485187879194
0.68	-0.124538314435296	0.224041020450217	620.103830755968	46.9292493400482	-21.7392215089399	1.45119500880352	-1.45251389044375	0.00339798708183403	-0.0065772560885029
0.69	-0.0288398249132078	0.334482226323425	619.91028562014	47.003488447775	-21.901365241892	1.4332811747991	-1.42336150185343	0.00354425863828878	-0.00685416226682745
0.7	0.0961214030289597	0.438054143266183	619.836052096012	47.0748941313075	-22.0689863496414	1.4293061063401	-1.4061684445915	0.00367143455473995	-0.00713327769700456
0.71	0.232806338160573	0.518239713822645	619.822710629383	47.1375036003148	-22.2331010316995	1.43831301417801	-1.40188954121296	0.00377685572656905	-0.00740335691225374
0.72	0.365422680917958	0.564541820225682	619.812911381601	47.1863900766675	-22.3866789478639	1.45780556165907	-1.40959961915201	0.00385949967780752	-0.00765630618763974
0.73	0.483501116398422	0.574322685449016	619.760146951985	47.2195838021529	-22.5256921931732	1.48462273563503	-1.42702839087918	0.00392188305604302	-0.0078883104975111
0.74	0.583347652192359	0.552681641414405	619.635750563589	47.2393465297274	-22.6493043331363	1.51577437385824	-1.45128508110781	0.00397124024820605	-0.00809971425692962
0.75	0.667419247630646	0.510409176403812	619.432050939736	47.2523614279291	-22.7592221966269	1.54902269308707	-1.47955561774852	0.00401941067090983	-0.00829376345050009
0.76	0.742261020463215	0.460605817671094	619.161195934958	47.2686894281115	-22.8584579225058	1.58309745273938	-1.50959295314309	0.00408126341702342	-0.00847464722971497
0.77	0.815870318230601	0.414931299558275	618.850024046212	47.2997025119267	-22.9498920132041	1.61755254049778	-1.53990954019317	0.00417196054324087	-0.00864545623916041
0.78	0.895243903025543	0.380536243524375	618.532289045668	47.3555202681845	-23.0350521346453	1.65237248959895	-1.56968523763361	0.004303753898241	-0.00880665603107444
0.79	0.984585224456616	0.358503568291804	618.2401982319	47.4426425712093	-23.1134291020245	1.68749346361968	-1.59848749442346	0.00448319560947463	-0.00895548076436714
0.8	1.08438298381018	0.344162985612206	617.997353743737	47.5624294842338	-23.1824782399729	1.72240626790044	-1.6259393815636	0.00470955590231403	-0.00908636146855946
0.81	1.1914120271977	0.329082528226393	617.814740969308	47.7108390644891	-23.238257083409	1.75596588989777	-1.65146019992731	0.00497490566250869	-0.00919220853963215
0.82	1.29962028377405	0.304057924611947	617.690556504874	47.8794702327818	-23.276483854734	1.78645958514035	-1.67415609454424	0.00526583691722293	-0.00926614852225405
0.83	1.40175251870325	0.262161435013402	617.613687881951	48.0575869403477	-23.2937043629328	1.81190432082554	-1.6928768848593	0.00556631539806807	-0.00930321723019123
0.84	1.49136376079191	0.200951120541428	617.569799279433	48.2345376059513	-23.2882460189618	1.83047536037429	-1.70640214093012	0.00586084263390851	-0.00930154891924823
0.85	1.56464571681511	0.123255519482966	617.548393089391	48.4019077267036	-23.2607143732074	1.84092922455463	-1.71368858728816	0.00613705720939794	-0.00926276158067646
0.86	1.62138103508869	0.0364246206370296	617.54897427838	48.5548681353655	-23.2139292059587	1.84288820739223	-1.71410591864989	0.00638714018615238	-0.00919148339420001
0.87	1.66450761270347	-0.0495849429284914	617.584580826659	48.6924558715512	-23.1523658897793	1.83690083849827	-1.70760366445356	0.00660782013925809	-0.00909423112594354
0.88	1.69825464788431	-0.12459883574696	617.68148195607	48.8168529626783	-23.0813137166241	1.82426951778765	-1.69477748301139	0.00679923902229851	-0.00897805578123928
0.89	1.72545826033083	-0.180324768766667	617.874742134336	48.932003361158	-23.0060374453446	1.80671722143251	-1.67682914581495	0.00696327227623328	-0.00884943813776928
0.9	1.74518976432716	-0.211591867037858	618.200425142275	49.0420483823081	-22.9312025840388	1.78602027393641	-1.65543467927494	0.00710198580160715	-0.00871381104834923
0.91	1.75193750993495	-0.216534384962479	618.686160170317	49.1500369897904	-22.8607052054177	1.763742040652	-1.63254866307907	0.00721675114691078	-0.00857583548354085
0.92	1.73712830448475	-0.195937794662067	619.342279248126	49.2572085316967	-22.7978767409257	1.74115821961325	-1.61018069317274	0.00730821925253922	-0.00844025304551949
0.93	1.69286499269486	-0.152255314961202	620.155572412774	49.3629239288357	-22.7458779460993	1.71938311293763	-1.59018258280778	0.00737701373387256	-0.00831289484124786
0.94	1.61673710652786	-0.0888571579304256	621.086964368834	49.4651201304377	-22.708013939514	1.69961784969152	-1.57408021381627	0.00742477312726986	-0.00820133729922856
0.95	1.51587192820156	-0.00987595897060801	622.073409710874	49.5610438946376	-22.6877249145035	1.68338044942901	-1.56297069540053	0.00745510764753299	-0.00811479074360133
0.96	1.40837195759124	0.0793515438968212	623.033437586876	49.6480051726413	-22.6881264648209	1.67256963228843	-1.55748574823438	0.00747412098312783	-0.00806304875150171
0.97	1.32100855312912	0.171614437751612	623.875329088324	49.7239566518161	-22.7111478250132	1.66926610157968	-1.55780252630784	0.00749031179313275	-0.00805463223034653
0.98	1.28328317518431	0.257503072700917	624.506891360765	49.7878097001353	-22.7564877768362	1.67527103847104	-1.56367206411187	0.0075138394410792	-0.00809453855799919
0.99	1.31928624488953	0.325945412218167	624.845969241091	49.8394942452343	-22.8207213198524	1.69148920579861	-1.57443955829051	0.0075552732491575	-0.00818217872050669
1	1.43970025028208	0.365803187834237	624.830912937756	49.8798356618066	-22.8969079442218	1.71734529950043	-1.58904965807553	0.00762404127372329	-0.00831011175549412
1.01	1.63647273950884	0.36826917648487	624.430051247787	49.9103511143929	-22.9749633751219	1.75044633064394	-1.60605575684073	0.00772686517534471	-0.00846405656713406
1.02	1.88204960707468	0.329391649248704	623.648902520851	49.933067604888	-23.0428784625011	1.7866568003377	-1.62367151507771	0.00786651012939843	-0.0086243974583648
1.03	2.13380661773394	0.251856930649055	622.533660154855	49.950440164949	-23.0886433583628	1.82064672447991	-1.63990307082195	0.00804116764817819	-0.00876905121206717
1.04	2.34283849406558	0.145286366254839	621.169677240679	49.9654031483703	-23.1025192128847	1.84683544701643	-1.65277726422573	0.00824469389107496	-0.00887720483917354
1.05	2.46500871168453	0.0247281164571095	619.674340789586	49.9815245471445	-23.0791528382405	1.86052901116962	-1.66064213004502	0.00846774052356136	-0.00893315373443981
1.06	2.47149277931669	-0.0923951301917252	618.184748318187	50.00316679755	-23.0190002891344	1.85897630270812	-1.66247751830109	0.00869957721814807	-0.00892935545653772
1.07	2.35613814144254	-0.190096258389123	616.841699893593	50.0355119158689	-22.9286361063808	1.84207381621224	-1.65813384959875	0.00893018886891261	-0.0088679203372754
1.08	2.13776455393124	-0.257334521008991	615.772373992931	50.084309075106	-22.8197631523042	1.81253017118699	-1.64842579263393	0.00915211829953078	-0.00876008763418185
1.09	1.85679738129761	-0.290256506065849	615.074411972881	50.1552618875305	-22.7070518736583	1.77543429785256	-1.63504251041348	0.00936157056295395	-0.00862371899059716
1.1	1.56701281167915	-0.292603873734723	614.803895210924	50.2530828659827	-22.605246451909	1.73731569925798	-1.6202835532852	0.00955849864650427	-0.0084793557285523
1.11	1.32432577575567	-0.274291667279995	614.968952332045	50.3803748217436	-22.526189651674	1.70490141329814	-1.6066719758087	0.00974569505916634	-0.00834578328491603
1.12	1.17520368420831	-0.248675699617191	615.529722995788	50.5366107936137	-22.4764685704466	1.6838349790696	-1.59652052244286	0.00992722079872532	-0.00823619593305341
1.13	1.14731790020941	-0.22931776784737	616.404415023088	50.7175320872239	-22.4562439629846	1.67761956354891	-1.59152899413652	0.0101067067782495	-0.00815589606400652
1.14	1.24447574798677	-0.227061064906852	617.480429884201	50.9152380790958	-22.4595273247304	1.68698965359801	-1.59247702061015	0.0102860884875159	-0.00810202991606945
1.15	1.4468601342624	-0.248004834598549	618.629053891626	51.1190971828221	-22.4757958549647	1.70982317798978	-1.5990570002094	0.010465168231394	-0.00806528579021965
1.16	1.71637799460776	-0.292651609513864	619.721943084669	51.3173937911056	-22.4924972638581	1.74160069587309	-1.60987520885929	0.0106420950787431	-0.00803294638912272
1.17	2.00575771713386	-0.356224440123392	620.647455858231	51.4993990356122	-22.4977954242653	1.77631878630096	-1.62263582501032	0.010814517326609	-0.00799236594704689
1.18	2.26920244265776	-0.429981406952957	621.324767496939	51.6573872900548	-22.4828979807768	1.80768378947762	-1.63450606137552	0.0109809176701354	-0.00793392695151429
