Time [s]	GRFml [N]	GRFap [N]	GRFv [N]	Mml [N.m]	Map [N.m]	Mv [N.m]	Mfree [N.m]	COPml [m]	COPap [m]
0.01	6.2050189931073	9.32971320647988	584.970252028128	-54.3542733434895	0.956437598751442	-0.811442295908159	-0.250141604498622	0.00353419058120839	0.00394598181060231
0.02	6.29963587622131	8.86759402908283	584.373424054088	-54.5193680887536	0.966078007936385	-0.76934468576379	-0.196223918521463	0.00355186626676105	0.00433590110614197
0.03	6.39244068826972	8.4130690567001	583.773564503674	-54.6768053586376	0.975997974108399	-0.728360096565459	-0.143609377533052	0.003570965913195	0.004712530692267
0.04	6.48123390810662	7.97383062867363	583.175256384561	-54.8203941958314	0.986494263725341	-0.689300820075113	-0.0934118111597483	0.0035919136335032	0.00506442484020177
0.05	6.56387778232938	7.55703678713373	582.583187862389	-54.944281483562	0.997888378920013	-0.652891105968185	-0.0466531662389731	0.00361513671434923	0.00538072219111294
0.06	6.63837477796223	7.16904883264704	582.002179633795	-55.0432344724011	1.01051106390491	-0.619733079386509	-0.00421683045781298	0.00364104755716493	0.00565162773786712
0.07	6.70293944495533	6.81520872544803	581.43719995	-55.1128904118569	1.02468590521847	-0.590279412564688	0.0331918368223857	0.00367002548698321	0.00586883971543907
0.08	6.75606051852791	6.49966652222838	580.893358184534	-55.1499594389695	1.04071289449654	-0.564814345471207	0.0650754144932926	0.00370239913165011	0.00602589901863056
0.09	6.79655073670271	6.2252648245686	580.375869657099	-55.1523702341114	1.05885285112042	-0.543444064420179	0.0911630687867397	0.00373843016357073	0.00611844424161014
0.1	6.82358260806996	5.99348373394594	579.889986920792	-55.1193518088366	1.07931356866976	-0.526096814194024	0.111417006197135	0.00377829922596008	0.00614436167319045
0.11	6.83670918379264	5.80444632055522	579.440895710346	-55.0514488527838	1.10223845123695	-0.512532488863565	0.126026612895473	0.00382209481800311	0.00610382611364405
0.12	6.83586970821729	5.65698135715807	579.033577022807	-54.9504720617099	1.12769824877708	-0.502360864870177	0.135390965857153	0.00386980578561748	0.0059992347598443
0.13	6.82138078848979	5.5487372436801	578.672640123002	-54.8193885501882	1.15568629695186	-0.495067144951447	0.140091124459643	0.00392131786675008	0.00583504224360198
0.14	6.79391438644291	5.47633880089406	578.362134386838	-54.6621606135012	1.18611743359998	-0.490043101136995	0.140854202000725	0.00397641449189126	0.00561750988145986
0.15	6.75446445762003	5.43557703239028	578.105350573227	-54.4835435852637	1.21883052118603	-0.486621856222183	0.138511635483934	0.00403478176689109	0.00535438606439889
0.16	6.70430441819802	5.42162107529897	577.904624131201	-54.2888552356061	1.25359427312558	-0.484114231569331	0.133954298043225	0.00409601729311655	0.00505453733445098
0.17	6.64493780171696	5.42924136062119	577.761154325068	-54.0837300203348	1.29011588094452	-0.481844610223658	0.128087129054604	0.00415964223491828	0.00472755100438461
0.18	6.57804448056126	5.45303341739722	577.674853176963	-53.8738715296947	1.32805178448583	-0.479184405000403	0.121785806871506	0.00422511584771463	0.00438333020443124
0.19	6.50542469323272	5.48763268145161	577.644237431157	-53.6648157512813	1.36701982959222	-0.475581461845195	0.115857686467101	0.00429185154749709	0.00403170109041665
0.2	6.42894287067597	5.52791198801098	577.666374960089	-53.4617163530505	1.40661202190886	-0.470584045863883	0.11100880649561	0.00435923354333348	0.0036820497870924
0.21	6.35047293435302	5.56915500811602	577.736894353721	-53.269161240466	1.4464071108371	-0.463858425801734	0.107818279128475	0.00442663307068219	0.00334300368189264
0.22	6.2718463898544	5.60720060381571	577.850063022551	-53.091027300874	1.48598231797761	-0.455199467668086	0.106720852969056	0.00449342335057328	0.00302216817000631
0.23	6.19480420538498	5.63855481065979	577.998935215024	-52.9303776843756	1.52492364892129	-0.444534046857572	0.107997921967935	0.00455899254758185	0.00272592613571729
0.24	6.120953180935	5.66046881055984	578.175567152884	-52.7894033509445	1.56283438214122	-0.431917470687817	0.111776772694406	0.00462275419289637	0.00245930358704922
0.25	6.05172730753077	5.67098275904935	578.371292291744	-52.6694080962374	1.59934149856067	-0.417523453349145	0.118037442052262	0.00468415475930268	0.00222590117128518
0.26	5.98835449982719	5.6689366282346	578.577045785115	-52.5708339933273	1.63409998462823	-0.401628489829725	0.126626213265117	0.0047426783027194	0.0020278879869594
0.27	5.9318290583365	5.65395029404074	578.78372381542	-52.4933222692077	1.66679509631998	-0.384591724468967	0.137274518344642	0.0047978483005831	0.00186605133185935
0.28	5.88289026467293	5.62637592870241	578.982560767121	-52.4358031580798	1.69714279992369	-0.366831595989055	0.149621843087494	0.00484922700370183	0.0017398938982206
0.29	5.84200760709863	5.58722636894035	579.165505421693	-52.396607290081	1.72488869974206	-0.348800658860781	0.16324114422193	0.00489641276183237	0.00164776850804271
0.3	5.80937323830587	5.53808354119144	579.325576565357	-52.3735907029478	1.74980581897056	-0.330960027243624	0.177665282696931	0.00493903587588753	0.00158703978674699
0.31	5.78490234228806	5.48099126881718	579.457178675769	-52.3642655920774	1.77169161798446	-0.313754860964906	0.192413045061878	0.00497675356863557	0.00155426216999723
0.32	5.76824209267492	5.4183368955316	579.556359695	-52.3659294000618	1.79036461780965	-0.297592213740822	0.207013457590859	0.00500924465373932	0.00154536425422881
0.33	5.75878978763739	5.35272616510917	579.620995251339	-52.3757857246569	1.80566095227789	-0.282822395494561	0.221027285151162	0.00503620442734397	0.0015558306317862
0.34	5.75572052431993	5.2868557248343	579.650886961527	-52.3910517107333	1.81743110882356	-0.269724769909888	0.234064837533776	0.00505734021773934	0.00158087386874065
0.35	5.75802442192417	5.22338748644328	579.647766484549	-52.4090479913336	1.82553704440094	-0.25849862577182	0.245799467653985	0.00507236791906966	0.00161559104608597
0.36	5.76455292781574	5.1648288922183	579.615201627869	-52.4272687541565	1.82984978860775	-0.249259440636829	0.255976425204649	0.00508100971676842	0.00165510114821929
0.37	5.77407317390671	5.11342289599218	579.558405816395	-52.443431031737	1.8302475785563	-0.242040516053662	0.264417011611992	0.00508299309603193	0.00169466140774224
0.38	5.78532873540085	5.07105117300044	579.483957388818	-52.4555037517883	1.82661451513763	-0.236799625873582	0.271018252612633	0.00507805111848896	0.00172976237911356
0.39	5.79710453675262	5.03915370825491	579.39944023425	-52.4617183555925	1.81883969151127	-0.233430005588859	0.275748548709972	0.00506592386168545	0.00175620291460363
0.4	5.80829311226162	5.01866746825684	579.313021964736	-52.4605638296044	1.8068167228952	-0.231774743285089	0.278639967498893	0.00504636084371583	0.00177014728171379
0.41	5.81795902213214	5.00998632463631	579.232989877781	-52.4507697499883	1.79044360076103	-0.231643431571957	0.27977799378148	0.00501912420168624	0.00176816735086346
0.42	5.82539800234721	5.01294376426004	579.167268151781	-52.431281383667	1.76962280132846	-0.232829820393518	0.279289645086152	0.00498399235669034	0.00174727308762265
0.43	5.83018742761315	5.02681918907272	579.122941815254	-52.401231015785	1.74426159368128	-0.235129182572528	0.277330887247314	0.00494076387822269	0.00170493452815042
0.44	5.83222491136771	5.05036779013403	579.105813856552	-52.3599094956589	1.71427251242671	-0.238354169803659	0.274074247353559	0.00488926125652178	0.0016390980499264
0.45	5.83175235415582	5.08187309409082	579.120021265867	-52.3067415428232	1.67957397948082	-0.242348091361584	0.269697424718615	0.00482933430232229	0.00154819914335415
0.46	5.82936345798523	5.11922035740691	579.167733764348	-52.24126767816	1.64009107609493	-0.246994778332732	0.2643735541904	0.0047608629211138	0.00143117312765274
0.47	5.82599360532698	5.15998806446111	579.248955492208	-52.1631347999098	1.59575647771131	-0.252224483521138	0.258263593435243	0.00468375905515309	0.00128746442599702
0.48	5.82289199599798	5.20155391806576	579.361445100475	-52.0720964750921	1.5465115700668	-0.258015587310858	0.251511102654367	0.00459796765288848	0.00111703420659176
0.49	5.82157697042483	5.24121094736831	579.500763709303	-51.9680230306284	1.49230776574697	-0.264392206069372	0.244239478325703	0.00450346661257521	0.000920365484844726
0.5	5.82377644585341	5.27628875116421	579.660453334064	-51.8509205709065	1.43310803755026	-0.271418105409322	0.236551508221714	0.00440026575270338	0.000698464228149703
0.51	5.83135627713851	5.30427449296514	579.8323409894	-51.7209571801727	1.36888868031371	-0.279187581436936	0.228530947280068	0.00428840498111621	0.000452854650866336
0.52	5.84624005918975	5.3229281077179	580.006956171409	-51.5784938412638	1.29964130787864	-0.287814169269674	0.220245683869362	0.00416795195832456	0.000185566753714408
0.53	5.87032436278396	5.33038629610616	580.174042237815	-51.42411705844	1.22537508764482	-0.297418156196837	0.21175198071799	0.0040389996659721	-0.000100885750982743
0.54	5.90539360831844	5.32525028210744	580.323135815002	-51.2586698408429	1.14611921181807	-0.308113910826566	0.20309923732079	0.00390166438359229	-0.000403538697587288
0.55	5.95303872505847	5.30665298600373	580.444183198818	-51.0832776007131	1.06192560123023	-0.319997990949077	0.194334730187237	0.00375608462976136	-0.000719023020645401
0.56	6.01458343139507	5.27430219266137	580.528159170286	-50.899365650164	0.972871833009631	-0.333138870279792	0.185507839617838	0.00360242162285117	-0.00104362313243175
0.57	6.09102144007641	5.2284974300519	580.567652021258	-50.7086653327267	0.879064275564922	-0.347568942291792	0.176673359790851	0.00344086175096241	-0.00137334799325795
0.58	6.18296719294888	5.17011955670907	580.557379071844	-50.5132063803862	0.780641401617679	-0.363279236844684	0.167893603761044	0.00327162140553481	-0.00170401405306679
0.59	6.29062192422548	5.10059341848859	580.494599623857	-50.315293812906	0.677777231296517	-0.3802170434255	0.1592391461771	0.00309495433181508	-0.00203133856483526
0.6	6.41375600490542	5.02182529713211	580.379397055583	-50.1174685553064	0.570684832493445	-0.398286394975294	0.150788183240252	0.00291116139400432	-0.0023510411391416
0.61	6.55170769572393	4.93611815681758	580.214808405561	-49.9224518966513	0.459619775853806	-0.417351148295657	0.142624620968637	0.00272060236449257	-0.00265895085092339
0.62	6.70339768497966	4.84606882535062	580.006787971013	-49.7330748997891	0.344883409125142	-0.437240217505784	0.134835119366533	0.00252370905347012	-0.00295111574212049
0.63	6.86735815054539	4.75445215864353	579.764000706158	-49.5521948460933	0.226825783205694	-0.457754388168882	0.127505413216639	0.00232099883036439	-0.00322391119999353
0.64	7.04177458638052	4.66409787938893	579.497451013894	-49.3826017099179	0.105848033678331	-0.478674068697221	0.120716293390634	0.00211308738579989	-0.0034741434400116
0.65	7.2245382809289	4.57776611950456	579.219962303056	-49.2269184544919	-0.017595999508746	-0.499767324414997	0.114539661495805	0.00190069947231054	-0.00369914419384211
0.66	7.41330712149958	4.49802771641401	578.945531846513	-49.0874995780626	-0.142999142025861	-0.520797585144526	0.109035063448792	0.00168467636587096	-0.00389685270860403
0.67	7.60557230759681	4.42715502045726	578.688593465299	-48.9663327757554	-0.269801469932872	-0.541530511896755	0.104247064798812	0.00146597891839294	-0.00406588131706194
0.68	7.79872856296481	4.36702838778486	578.46322688607	-48.8649487860568	-0.397392316915333	-0.56173964111727	0.100203755391529	0.00124568531892325	-0.00420556115492263
0.69	7.99014551456676	4.31906269853519	578.282356871551	-48.7843444378459	-0.525113878876539	-0.58121058233384	0.0969165686824546	0.00102498302835826	-0.00431596509417935
0.7	8.17723803275005	4.28415720431045	578.156987119784	-48.7249235925542	-0.652266543085716	-0.599743711944916	0.094381479169735	0.000805154765483236	-0.00439790563796581
0.71	8.357533481813	4.26267083005898	578.095513313593	-48.6864600869235	-0.778116007915639	-0.617155467077819	0.0925815092442469	0.000587558858013615	-0.00445290637966381
0.72	8.52873400266021	4.25442379518756	578.103156562346	-48.6680859390072	-0.901902186916381	-0.633278484746885	0.0914903447451055	0.000373604684530854	-0.00448314664977771
0.73	8.68877213528173	4.25872513880085	578.181552940128	-48.6683070113537	-1.02284981075408	-0.647960940878794	0.0910767378530604	0.000164724278658071	-0.00449138012448654
0.74	8.83585829084494	4.27442449317567	578.328527147944	-48.6850470720606	-1.14018055629044	-0.661065512081436	0.0913092778320814	-3.76585876521623e-05	-0.00448082939929192
0.75	8.96851880790309	4.29998530167002	578.538068892737	-48.7157198105209	-1.25312644820698	-0.672468404936843	0.0921610448438008	-0.000232160397659553	-0.00445505977513076
0.76	9.08562358285283	4.33357566970524	578.800519863853	-48.7573269150338	-1.36094419979124	-0.682058871812248	0.0936136380399333	-0.000417469508985874	-0.00441783668853918
0.77	9.18640255851841	4.3731722108267	579.102967755961	-48.8065788773362	-1.46293009049092	-0.689739561622066	0.0956600918847804	-0.000592376046222538	-0.00437297226444607
0.78	9.27045069047462	4.41667163758268	579.429832242806	-48.8600338331046	-1.55843492295912	-0.695427945545464	0.098306265775277	-0.000755798895033084	-0.00432416730579067
0.79	9.33772138725355	4.46200447510256	579.7636167736	-48.9142485574513	-1.64687856523502	-0.6990589217584	0.101570408516694	-0.000906808856601292	-0.00427485559385983
0.8	9.3885088305456	4.50724516195831	580.085790155266	-48.9659347869622	-1.72776356714035	-0.70058855267919	0.105480753253224	-0.00104464727308057	-0.00422805760715332
0.81	9.42342001090732	4.55071295760953	580.377753666169	-49.0121134031925	-1.80068734546748	-0.699998737336673	0.110071177740351	-0.00116873968372519	-0.0041862506430502
0.82	9.4433377429512	4.59105849815091	580.621843413336	-49.0502587418086	-1.8653524603927	-0.697302484559075	0.115375153571371	-0.00127870430244196	-0.00415126183404159
0.83	9.44937632580031	4.62733152100789	580.802314186255	-49.078425423984	-1.9215745548966	-0.692549342704678	0.121418388333428	-0.00137435531404093	-0.00412418969804149
0.84	9.44283186058299	4.65902619167381	580.906250442844	-49.0953506579453	-1.96928759794722	-0.685830468975813	0.128210718751634	-0.00145570116837333	-0.00410535867975635
0.85	9.42512949698715	4.6861015763111	580.924352411057	-49.1005259205534	-2.00854615819075	-0.677282792808298	0.135737924640444	-0.0015229382116015	-0.00409430967572832
0.86	9.39777002796205	4.70897606578372	580.851550572472	-49.0942332685087	-2.03952453478114	-0.667091746170888	0.143954190592283	-0.00157644013407702	-0.0040898278549376
0.87	9.36227826408643	4.72849591123462	580.687409822895	-49.0775431892431	-2.06251268230341	-0.655492097441074	0.152775937620707	-0.00161674383326906	-0.00409000726969366
0.88	9.32015548465717	4.74587941154342	580.436295033531	-49.0522728042829	-2.07790898375987	-0.64276652961318	0.162077679250139	-0.00164453238205618	-0.00409234988918872
0.89	9.27283798060871	4.76263962587675	580.107282073564	-49.0209052865841	-2.086210045225	-0.629241739573665	0.171690430713864	-0.00166061584825468	-0.00409389487908494
0.9	9.22166328739198	4.78048969504244	579.713811983525	-48.9864734391166	-2.08799780356663	-0.615281992471225	0.18140302637823	-0.00166591072069632	-0.00409137229607695
0.91	9.16784517931266	4.80123587095312	579.273100192383	-48.9524123890129	-2.08392434966753	-0.601280232063736	0.190966493902575	-0.0016614186538348	-0.00408137396492113
0.92	9.11245789732237	4.82666410900407	578.805326669203	-48.9223881637067	-2.07469496857365	-0.587647012413517	0.200101411232315	-0.00164820514703015	-0.0040605332465232
0.93	9.05642945506429	4.85842652049209	578.332645888665	-48.9001104227327	-2.06104997948485	-0.574797667203475	0.208507952366051	-0.00162737863613623	-0.0040257047636722
0.94	9.00054326266768	4.89793407470471	577.878066686293	-48.8891387241518	-2.0437460172275	-0.563138260444231	0.215878127057445	-0.00160007031360931	-0.00397413497883166
0.95	8.94544677364718	4.94626166633753	577.464260770423	-48.8926923299108	-2.0235374282039	-0.553050958550954	0.221909552946539	-0.00156741483663383	-0.00390361484207621
0.96	8.89166544153417	5.00407102918095	577.112364244897	-48.9134736463973	-2.00115845436913	-0.544879523081742	0.226319977396509	-0.0015305319611307	-0.00381260654203534
0.97	8.83962000441622	5.07155601063644	576.840838537949	-48.9535149304917	-1.97730684673705	-0.538915642714152	0.228861697922362	-0.00149050907942291	-0.00370033766140326
0.98	8.78964501941129	5.14841347529836	576.664455380231	-49.0140568747861	-1.95262948542997	-0.535386801684109	0.229335017846017	-0.00144838465613348	-0.00356685769294922
0.99	8.74200665213176	5.23384165144608	576.593464899226	-49.0954661583706	-1.92771048867408	-0.534446321749743	0.227599917131202	-0.00140513264928332	-0.00341305381714843
1	8.69691797921083	5.32656615962976	576.63299670177	-49.1971970835122	-1.90306217286599	-0.536166119808649	0.223585213193932	-0.00136164815150122	-0.00324062496436493
1.01	8.65455046028168	5.42489236553324	576.782731437402	-49.3178001141386	-1.879119086323	-0.540532599473171	0.217294625811243	-0.00131873465349422	-0.00305201535868574
1.02	8.61504074130472	5.52678118106888	577.036865425751	-49.4549776133152	-1.85623518862596	-0.547445949440305	0.208809334573648	-0.00127709347305398	-0.00285031084263712
1.03	8.57849251573465	5.62994409492307	577.384374329564	-49.605684484465	-1.83468409470844	-0.556722962426379	0.198286815304361	-0.00123731596355813	-0.00263910319681182
1.04	8.54497374016584	5.73195213141473	577.809564538777	-49.7662689038861	-1.81466215759616	-0.568103324033385	0.18595595098974	-0.00119987908366536	-0.00242232929704783
1.05	8.5145100229882	5.8303526810914	578.292883957161	-49.9326460383314	-1.79629403513452	-0.581259159120916	0.172108620133305	-0.00116514476250115	-0.00220409321652969
1.06	8.48707542944008	5.92278776129939	578.811948320207	-50.1004957092447	-1.77964028213091	-0.595807471299261	0.157088158633309	-0.00113336324400757	-0.00198848022647651
1.07	8.46258223528435	6.00710726742818	579.342726028013	-50.2654735141016	-1.7647064360896	-0.61132497529918	0.141275259188569	-0.00110468027441089	-0.00177937204530847
1.08	8.44087128877872	6.0814711567129	579.860814624381	-50.4234240382484	-1.75145302561127	-0.627364707453875	0.125072005826366	-0.00107914765724743	-0.00158027262199809
1.09	8.42170459725547	6.14443523284862	580.342736169815	-50.5705845482153	-1.73980592625018	-0.643473710644528	0.108884833992964	-0.00105673639528538	-0.00139415322356216
1.1	8.4047615477908	6.19501621661393	580.767177269107	-50.7037679737283	-1.72966651712269	-0.659211030300055	0.0931072551963481	-0.00103735141624933	-0.00122332465547167
1.11	8.38963982425891	6.23273302433678	581.116102567015	-50.8205150460574	-1.72092114846838	-0.674165230189881	0.0781031887442125	-0.00102084677290632	-0.00106934311919618
1.12	8.37586163201437	6.25762255081744	581.375677962733	-50.9192071122326	-1.71344950964803	-0.687970642892483	0.0641917035808779	-0.00100704023113103	-0.000932954560197735
1.13	8.36288533264622	6.27022967997445	581.536951168644	-50.9991332996728	-1.70713158183383	-0.700321611209061	0.0516338946720859	-0.000995726304352061	-0.00081408045369516
1.14	8.35012207583316	6.27157263979284	581.596251841714	-51.0605082444851	-1.70185296299101	-0.710984053557075	0.0406225065494324	-0.000986687033592033	-0.000711845898791502
1.15	8.33695654438747	6.26308609926896	581.555290422396	-51.1044393750743	-1.69750845840335	-0.719803797198535	0.0312747783609479	-0.000979700111182589	-0.000624648739703471
1.16	8.32277054808081	6.24654550586407	581.420952949976	-51.1328456002585	-1.69400393282195	-0.726711264907234	0.023628827566859	-0.000974544260050178	-0.000550266309767275
1.17	8.30696794809083	6.22397702848637	581.204807331026	-51.1483320201105	-1.6912565164824	-0.731722268192774	0.0176437209786886	-0.000971002068086539	-0.000485994407717044
