Time [s]	GRFml [N]	GRFap [N]	GRFv [N]	Mml [N.m]	Map [N.m]	Mv [N.m]	Mfree [N.m]	COPml [m]	COPap [m]
0.01	-2.7191223387573	0.251176215676966	542.858487210142	-0.685729608237174	-2.29478476361933	0.795817190313667	-0.791018372060059	0.00575712308393184	0.00434479234577856
0.02	-2.48456976251745	0.0456004244610231	537.566385583533	-0.75707178747276	-2.51616468001441	0.784651894992573	-0.780994713739028	0.00560947293518776	0.00387709340167181
0.03	-2.23549084799548	-0.159818470481291	532.553348352293	-0.818180725913714	-2.74410316274144	0.774561009819925	-0.772188162558212	0.00548159737606124	0.00339779565810039
0.04	-1.96492512224584	-0.36326252053852	528.080393646673	-0.861120303419982	-2.98267958793095	0.766282427441284	-0.765437159656868	0.00538893816797148	0.00290036077263978
0.05	-1.68225914722716	-0.555429821152454	524.387132553864	-0.884495925541226	-3.23254037877699	0.760018102598972	-0.760902719632738	0.00533465998078886	0.00238560166675639
0.06	-1.41299531807321	-0.719232486144356	521.669171608523	-0.894161232652938	-3.49071596430409	0.755475397230628	-0.758096072572108	0.00530828259870553	0.00186192583733574
0.07	-1.19202262936504	-0.832817573622514	520.048659325296	-0.901574003709992	-3.75131618490174	0.752097894715477	-0.756149705609349	0.00528869379944341	0.00134348115904787
0.08	-1.05318614767434	-0.874908866610587	519.547310722302	-0.920464860671885	-4.0066725654843	0.749362494111388	-0.754193775964031	0.0052503183119883	0.000847198710322128
0.09	-1.01913752673775	-0.83073631798618	520.072422657973	-0.962981151017965	-4.2485125164643	0.746992093867791	-0.751661027610702	0.00517029046942685	0.000389794703648916
0.1	-1.09498178878619	-0.696700651177182	521.423588723234	-1.03651994513913	-4.46896188461721	0.744981151568904	-0.74838954423392	0.00503438071795648	-1.46044445336613e-05
0.11	-1.26747474944769	-0.482387267994895	523.322227538874	-1.1421024389358	-4.66140422699424	0.743430332385252	-0.744498763930972	0.00484009451513767	-0.000356080610857457
0.12	-1.50930698298749	-0.209393988502738	525.459318629317	-1.27454902458002	-4.8213304194349	0.742285954922043	-0.740126276267717	0.00459645613275017	-0.000630008014390837
0.13	-1.78627588099028	0.0926298578264541	527.550812570069	-1.42412881232862	-4.94724041246868	0.741130115245041	-0.735176286847149	0.00432106550146427	-0.000837859980354072
0.14	-2.0645420973445	0.391609764090401	529.386941626631	-1.57897748201211	-5.0414699725169	0.739144156360067	-0.729216975420924	0.00403570995307145	-0.00098776678750262
0.15	-2.31577630898808	0.658877152383272	530.862463252876	-1.72749460586882	-5.1106384633611	0.73528457439553	-0.721584182005544	0.00376196183869837	-0.00109455834495514
0.16	-2.51936047082687	0.873826299426754	531.97991223669	-1.86011704877241	-5.16537600451818	0.728608626459401	-0.711645384266968	0.00351785751570011	-0.00117888751053224
0.17	-2.66217275485406	1.02642619419129	532.825864553618	-1.97020180227774	-5.21914519330454	0.71861591386087	-0.699101855442238	0.0033161504441197	-0.00126517534340403
0.18	-2.73723334032401	1.11719977711636	533.528392171573	-2.05409283084086	-5.2862758084675	0.705464121546839	-0.684192535502765	0.00316402624709455	-0.00137851271766037
0.19	-2.7424076595443	1.15489276948542	534.209358214984	-2.11067312228856	-5.37964952174798	0.689972996165406	-0.667713065194201	0.00306376938620023	-0.00154111338498836
0.2	-2.67970039326463	1.15257330482852	534.945948966717	-2.14076060089349	-5.50865532089517	0.673422226512163	-0.65084979209125	0.00301376993247782	-0.00176920917605
0.21	-2.55492666760345	1.12324577016516	535.751694899866	-2.14661193758025	-5.67798958324621	0.657233248585753	-0.634908579441287	0.0030094194359509	-0.00207124206091008
0.22	-2.37715994677727	1.07616276356101	536.579955010151	-2.13162128028829	-5.88760460958133	0.642664917681577	-0.621055258631359	0.00304374339679059	-0.00244782562972501
0.23	-2.15748655600595	1.01483624261145	537.345306572958	-2.10013067574	-6.13372373685187	0.630633371925933	-0.610164669457536	0.00310790106695302	-0.00289336829646175
0.24	-1.90707915903481	0.93728634102519	537.953234170305	-2.05718005413509	-6.41049845909101	0.621699901281137	-0.602812346257016	0.00319182560220466	-0.00339871397196712
0.25	-1.63509598768455	0.838403623278958	538.327442827603	-2.00805235687457	-6.71171893405426	0.616190374980521	-0.599370368565203	0.00328522105064177	-0.00395388341904795
0.26	-1.34712734901968	0.713607974143996	538.426825168062	-1.9575989645379	-7.03205555002131	0.614353068671523	-0.600122195649996	0.00337890422823639	-0.00455008657417821
0.27	-1.04475946414089	0.562497209279061	538.249002554354	-1.90950223233819	-7.36755551006928	0.616452558830843	-0.605310724019252	0.00346618311591218	-0.00518055525175787
0.28	-0.726436507611369	0.391105436370484	537.82230483594	-1.86576112785703	-7.71542389052782	0.622736271932083	-0.615075711375548	0.00354374642358102	-0.00584022985889054
0.29	-0.389396213370911	0.211825973035887	537.191303941849	-1.82669608160212	-8.07335434975181	0.633276218697045	-0.629297580002185	0.00361153621413246	-0.00652471492716444
0.3	-0.0321932176308525	0.0408870489676981	536.40180642907	-1.79162741938282	-8.43876169202589	0.647750460676171	-0.647414575955669	0.00367134518510326	-0.00722906406256613
0.31	0.342769136211013	-0.105798214429971	535.489844012604	-1.76012299512578	-8.80820412981805	0.665260972777925	-0.668298055698558	0.00372435962035367	-0.00794685541736306
0.32	0.727276759477149	-0.216929051932454	534.476708192473	-1.73343372943903	-9.17712808707241	0.684276261899577	-0.690252185630933	0.00376837885395953	-0.00866976921017015
0.33	1.10645821757175	-0.288686148038569	533.369658031673	-1.71556736975819	-9.53990890485064	0.702745316887312	-0.711161473087098	0.003795750705467	-0.00938761895483109
0.34	1.45951201236669	-0.325113252854793	532.166465889973	-1.71348887848444	-9.8900672448078	0.718372927070105	-0.728761930786477	0.00379298885705481	-0.0100886348298638
0.35	1.76223555881086	-0.335873104843272	530.86173220993	-1.73619784397384	-10.2205412586169	0.728996369938006	-0.740976832091895	0.00374254839032306	-0.0107598001476156
0.36	1.99115364862348	-0.332193057038816	529.453581663089	-1.79283596947904	-10.5239686829675	0.732975513405989	-0.746244944797949	0.0036264810323533	-0.0113871707205048
0.37	2.12848623360588	-0.322434346427223	527.95027542593	-1.89036393133764	-10.7930267927567	0.729508228788186	-0.743777295722885	0.00343096143822796	-0.011956274801063
0.38	2.16671843495907	-0.308794109346255	526.376755683191	-2.03155206790629	-11.0209297034221	0.718806652684176	-0.733700768805733	0.00315027618080099	-0.0124527948827686
0.39	2.11139099418109	-0.286199327147335	524.780816146623	-2.21395772108312	-11.2021515335853	0.702106491905414	-0.717073506993435	0.00278897973845638	-0.0128637002633098
0.4	1.98106640567693	-0.243685324052901	523.23761183454	-2.43023419853974	-11.3333324929361	0.68151806313978	-0.695779454136282	0.00236151527524531	-0.0131788255223954
0.41	1.8041918410526	-0.167760618106966	521.850201446717	-2.66966126485643	-11.4141798966961	0.659753452314373	-0.672322388251665	0.00188944074806052	-0.0133926418278768
0.42	1.61352486103069	-0.0467026603706252	520.743574376218	-2.92038334677141	-11.4480701977932	0.639775189033906	-0.649543986879734	0.00139716735652173	-0.0135057574308692
0.43	1.43957210787647	0.125454265590504	520.050734934915	-3.17163894363605	-11.4420569748429	0.624412278612777	-0.630291651393777	0.000907530364383957	-0.0135256198449533
0.44	1.30482982227421	0.346289495533448	519.891845031115	-3.41532493734916	-11.40611889425	0.615987795838272	-0.617067208075238	0.000438449844129218	-0.0134660316239235
0.45	1.22038629909329	0.604332665403393	520.350339097169	-3.64652118020955	-11.3517086959531	0.616004301414239	-0.611699601940585	1.462950329989e-06	-0.0133454086859228
0.46	1.18572429390446	0.880446719665298	521.452008721734	-3.86298633123204	-11.2899066823649	0.624936842222743	-0.615097124586991	-0.000397780064439579	-0.0131840993341459
0.47	1.19157737493774	1.15087787503221	523.153136137498	-4.06398304667536	-11.2296398763238	0.642179011911436	-0.627135487732554	-0.000757616211511825	-0.0130013959860029
0.48	1.22475675079989	1.39129301262067	525.341469109119	-4.24898451417847	-11.1764286735587	0.666166445435088	-0.646717396087365	-0.00107803019378838	-0.0128129818831302
0.49	1.27326741299527	1.58100253253501	527.849931937821	-4.41680284278229	-11.1319586794505	0.694663502846192	-0.671997892622655	-0.00135888234201431	-0.0126294116355632
0.5	1.32996936323513	1.70659055745671	530.479070584504	-4.56548293146315	-11.0945105293683	0.72515356472466	-0.7007210370427	-0.00159940690339333	-0.0124558816189429
0.51	1.3935483162823	1.76430059272415	533.022030374006	-4.69300021867294	-11.0600219757786	0.755239468647435	-0.73057789299422	-0.0017991481933104	-0.0122931395143632
0.52	1.46649773753452	1.76072581626296	535.286266766733	-4.79849145677577	-11.0234040133443	0.782954798419143	-0.759490728662286	-0.0019599171715694	-0.0121390668603013
0.53	1.55088619349327	1.71162290692694	537.108820432958	-4.88353292642741	-10.9797330571495	0.806915391898875	-0.785758961004981	-0.00208790716174978	-0.0119903512358265
0.54	1.64352942503093	1.63900218672963	538.365389723507	-4.9529268015681	-10.925071654851	0.826295346611486	-0.808058002370317	-0.00219495307854678	-0.0118437639436836
0.55	1.73250029804728	1.56701199095813	538.975841830129	-5.01458282421413	-10.8568577332115	0.840672383304653	-0.825339974161944	-0.00229811890060583	-0.0116968082011091
0.56	1.7965612491364	1.51745314369248	538.909073106094	-5.07835663278078	-10.773962314162	0.849829206701408	-0.836720289434938	-0.00241731219110286	-0.0115477877841837
0.57	1.80819429178275	1.50591976165502	538.188302117612	-5.15405010137489	-10.6765891155212	0.853603489532573	-0.841431261235005	-0.0025713059984781	-0.0113955539275765
0.58	1.73973125603782	1.53946769068295	536.895118841245	-5.24908626099704	-10.566163249423	0.851848177856455	-0.838885536046909	-0.0027731774536619	-0.0112392484455898
0.59	1.57103359994871	1.61633344143878	535.168566610138	-5.36653472037112	-10.4452616310648	0.844511196253973	-0.828836899509844	-0.00302651808984489	-0.0110782682603931
0.6	1.29656620282326	1.72764396912909	533.195480083574	-5.50411197996078	-10.3175327372365	0.831792992225972	-0.811579086648011	-0.00332367524612265	-0.0109124901409711
0.61	0.929729666707922	1.86045208370671	531.190517928142	-5.6545131202494	-10.1874956879926	0.814311924757913	-0.788103807309378	-0.00364673664664972	-0.0107426113630716
0.62	0.502949236389343	2.00102821266663	529.367948454243	-5.80702772137715	-10.0601286136419	0.793208787459895	-0.760151617525337	-0.0039711372069664	-0.0105703705614125
0.63	0.0630883170524224	2.13731247167215	527.910681557533	-5.94999455982671	-9.94024173867444	0.770145827394638	-0.730122839011927	-0.00427094325211808	-0.0103984488430088
0.64	-0.337025179576699	2.25982285467952	526.943734294813	-6.07340417447463	-9.83173338555965	0.747187243911297	-0.700852512410517	-0.00452436401910516	-0.0102299813844893
0.65	-0.649123058485127	2.36099723887395	526.518478795151	-6.17095590496865	-9.73689086425848	0.726573762817219	-0.675279105940916	-0.0047180422484453	-0.0100677583906427
0.66	-0.839638385412871	2.43365752867971	526.610983505652	-6.24110699955208	-9.65589240882126	0.710419060455947	-0.656048261021015	-0.00484916453309536	-0.0099132929823933
0.67	-0.897049205096949	2.46972834532894	527.133791462519	-6.28701022908301	-9.58660405560599	0.700365575409486	-0.64509769861622	-0.00492518652840102	-0.00976596140240676
0.68	-0.834639669064989	2.46031061012706	527.957150847512	-6.31557061489335	-9.52469226354502	0.697249346010407	-0.643277694445524	-0.00496166987925928	-0.00962240633028161
0.69	-0.687968175715944	2.39767025409611	528.934137720904	-6.33603358886979	-9.46403331823693	0.700839791875671	-0.650076383463267	-0.00497911172962229	-0.00947637822053671
0.7	-0.507569272932398	2.27882816897561	529.924479635918	-6.35850112166597	-9.39740336355293	0.709732605905817	-0.663531901494642	-0.00499962206681381	-0.00931918077851751
0.71	-0.348508360564446	2.10956035953448	530.813527123275	-6.39261206363072	-9.31744447536274	0.721467467893202	-0.680407251433259	-0.00504397922017719	-0.00914084432446965
0.72	-0.259105877800486	1.90710960339756	531.524693657163	-6.44643474036995	-9.21787138621371	0.732905176532092	-0.696664094565358	-0.00512920785550197	-0.00893201628040613
0.73	-0.271310896644949	1.70003876539424	532.025020813356	-6.52551799482458	-9.09478570809061	0.740831148921679	-0.708196769336549	-0.00526660641599608	-0.00868631555627591
0.74	-0.394815269836449	1.52445815332512	532.324168164185	-6.63208053461668	-8.94783235044422	0.742670699639115	-0.711695133521768	-0.00546019763393102	-0.00840261828924038
0.75	-0.616147934312003	1.41709731858645	532.467446499277	-6.7644457577879	-8.78084752800666	0.737136001299001	-0.705428040020477	-0.00570580088893213	-0.00808656974422656
0.76	-0.902847636529951	1.40692122630573	532.523984157729	-6.9169430501614	-8.60169209647357	0.724607634319859	-0.68971658184837	-0.00599111936675745	-0.00775069150370133
0.77	-1.21161756179361	1.50772607394309	532.571891450285	-7.08048945501983	-8.42116437400139	0.70710530530183	-0.666922769792367	-0.00629719586453903	-0.00741281652979908
0.78	-1.49839266961764	1.71406260108905	532.683050190598	-7.24389824770061	-8.25118285931579	0.687817467126905	-0.640911087710964	-0.00660125432346692	-0.00709312998145106
0.79	-1.72776955276143	2.00189942695286	532.910351718967	-7.3956935269333	-8.10269541347389	0.67030388015165	-0.616108987851929	-0.0068804365453774	-0.00681059751643959
0.8	-1.87944630086268	2.33396191739374	533.279487351518	-7.52597611661829	-7.98387965596957	0.657605022527406	-0.596435738870968	-0.00711552361238876	-0.00657979322337554
0.81	-1.95020848036773	2.6681909742637	533.785939864062	-7.62782051206026	-7.8990905605337	0.651536381892945	-0.584426279679941	-0.00729364625656792	-0.00640897930326145
0.82	-1.95135476500367	2.96680540695947	534.396318733231	-7.69784216497568	-7.84873153355946	0.652388880150353	-0.580816584397357	-0.00740932655776216	-0.00629980570672489
0.83	-1.90285237269945	3.20336691518495	535.052424781046	-7.73589871480253	-7.82990421189088	0.659114222060149	-0.584695275084739	-0.00746382136556301	-0.00624841140754773
0.84	-1.82644709909466	3.36604883451803	535.676813585049	-7.74422507501644	-7.83747537513088	0.669898187880428	-0.594122632411421	-0.00746335951977162	-0.0062472837232217
0.85	-1.74005928863317	3.45667412028545	536.179823499208	-7.72648415516796	-7.86517191871022	0.682884918238917	-0.606953022107153	-0.00741717668882824	-0.00628713971072048
0.86	-1.65502796785925	3.48648969100278	536.469121424086	-7.68715239856272	-7.90645916347122	0.696768005224458	-0.621536826017833	-0.00733610797145245	-0.00635832952976262
0.87	-1.57644742190371	3.47057177469931	536.462815017423	-7.63138916127918	-7.95516855109421	0.7110298147146	-0.63704730339846	-0.00723199325423585	-0.00645165724867014
0.88	-1.50555184540288	3.42291425446472	536.105678708637	-7.56520732934475	-8.00598808394883	0.725762774972706	-0.653346747301728	-0.00711756757461068	-0.00655883743235086
0.89	-1.44241157939421	3.35366208214322	535.385568766275	-7.49554748243866	-8.0549332440204	0.741183246176008	-0.670503842973837	-0.00700616859960368	-0.00667289048380515
0.9	-1.38739049016422	3.2689204963333	534.344952129213	-7.42987531375817	-8.09979245947367	0.757077514369679	-0.688218215794593	-0.00691068031892617	-0.00678861517668572
0.91	-1.34073351645107	3.17253592047937	533.082070980438	-7.37516572935786	-8.14038643206035	0.772447558949669	-0.705440371781444	-0.00684159842973664	-0.00690300242068154
0.92	-1.30080951719839	3.06858830884178	531.738386332761	-7.33648319850103	-8.17841351932688	0.785540086883793	-0.720384815576087	-0.00680469676252271	-0.00701526941625291
0.93	-1.2623346762014	2.96324569275626	530.47318957372	-7.31563995099477	-8.21674177180951	0.794280344421636	-0.73096107988454	-0.00679917461329127	-0.00712623648946303
0.94	-1.21595874398588	2.86506360911917	529.431094286209	-7.31047228851997	-8.25822662994237	0.796958353338267	-0.735464431600702	-0.00681715032571251	-0.00723703694310524
0.95	-1.14991465688295	2.78353911742326	528.711450984457	-7.31508710195237	-8.30437443766532	0.792900057343935	-0.733249939808255	-0.00684492702519468	-0.00734750236015302
0.96	-1.0533854983575	2.72645527998061	528.348924266029	-7.32108152983938	-8.35430486644074	0.782846450398755	-0.725107368010469	-0.00686579536420617	-0.00745480454687308
0.97	-0.920365960955884	2.69702465278333	528.311157967068	-7.31938778213066	-8.40440685123644	0.768865227273509	-0.713161653662004	-0.00686356445373604	-0.00755291666150493
0.98	-0.752507323656216	2.69192727757846	528.513791895638	-7.30219484932548	-8.44884352275152	0.753793243574515	-0.700301728664338	-0.00682578249287169	-0.00763316792065227
0.99	-0.559840528756837	2.70105000727175	528.847319931721	-7.2644216186516	-8.48074364532235	0.740387007611621	-0.689319657186943	-0.00674580178713113	-0.00768573581300097
1	-0.359135905445793	2.70919376634799	529.20669685168	-7.20442562135722	-8.49366309173961	0.730473353689633	-0.682053965984051	-0.00662333119599856	-0.00770154871752532
1.01	-0.170550030720303	2.69940390023192	529.51453199872	-7.12391196079244	-8.48282304179771	0.724399242325857	-0.678834334441797	-0.00646364921315123	-0.00767393384573567
1.02	-0.0137329002473601	2.65707302668459	529.731935761935	-7.0272286943535	-8.44575985488992	0.720976270155454	-0.678420434122663	-0.0062759847694206	-0.00759949821755607
1.03	0.095454311078234	2.57369736490742	529.856055067059	-6.9203223457309	-8.38228595944236	0.717941929465642	-0.678456716537204	-0.00607160799108741	-0.0074780881432005
1.04	0.146927713842732	2.44920404367996	529.907951203916	-6.80958787421389	-8.29393293165959	0.712781162223215	-0.676290998453997	-0.00586197836420344	-0.0073120532438315
1.05	0.137012467721749	2.29210891394783	529.917052307834	-6.70075287003561	-8.18320524688251	0.703632683114387	-0.66988883191651	-0.0056570520298328	-0.00710526329289474
1.06	0.0681162574778887	2.1173452670927	529.908321302546	-6.59786986118045	-8.052960737974	0.689984031115117	-0.658553909746991	-0.00546372808945428	-0.00686230422957074
1.07	-0.0520339114354048	1.94228912292684	529.896025930379	-6.50249779054226	-7.90608479138103	0.672938383511051	-0.64323732398665	-0.00528448617479216	-0.00658806128807016
1.08	-0.211264304783815	1.78210411539886	529.884820212795	-6.41321510296589	-7.74543545589643	0.654980792365628	-0.626353612464657	-0.00511646574751035	-0.00628762664451921
1.09	-0.393939858869797	1.64582715600521	529.876078026407	-6.32565563422131	-7.5739075184767	0.639328789090161	-0.611170971330759	-0.00495140013833539	-0.0059662993986544
1.1	-0.582303620049427	1.53445854390578	529.875930271068	-6.23322325175244	-7.394448708967	0.629071548589179	-0.600960915873123	-0.00477678743409016	-0.00562945350117072
1.11	-0.75840245880687	1.44169244617879	529.90142015602	-6.12849248973576	-7.20994408571814	0.626351067275713	-0.598149432904658	-0.00457839626968282	-0.00528220003257934
1.12	-0.906572150759715	1.35700395883282	529.982211776474	-6.00507602982097	-7.02299811135881	0.631811546750604	-0.603698854869588	-0.00434374682651495	-0.00492895114278324
1.13	-1.01608654569328	1.26993486933934	530.156767921759	-5.85952451308262	-6.83571542179732	0.644455177965296	-0.616877306872391	-0.00406576158859917	-0.00457308721172989
1.14	-1.08330284640992	1.1739613652081	530.463404880067	-5.69272111116309	-6.6495757723924	0.661923355683302	-0.635463023379935	-0.003745552346199	-0.00421688528277608
1.15	-1.11261665143048	1.06851113956021	530.927961771869	-5.5103088702842	-6.4654338196654	0.681105816182918	-0.656312888320413	-0.00339343047753171	-0.00386172383275279
1.16	-1.11580838744375	0.958479835493456	531.550958120868	-5.32194129656748	-6.28360273163027	0.698896266019987	-0.676128094329858	-0.00302769200813147	-0.00350843288761171
