Time [s]	GRFml [N]	GRFap [N]	GRFv [N]	Mml [N.m]	Map [N.m]	Mv [N.m]	Mfree [N.m]	COPml [m]	COPap [m]
0.01	-1.45188203266677	1.04522757531077	728.074077841762	-1.79645916335858	24.5284815353389	0.557466895422451	-0.58908670977476	0.00520481812721663	-0.0168066838864151
0.02	-1.39142816357853	1.00922226067456	727.711396823648	-1.78811466460269	24.4960080949335	0.528961350266511	-0.559494663081503	0.00521608528666218	-0.0168336482614843
0.03	-1.32031297066116	0.976130900963975	727.37511603935	-1.78615006528088	24.456289161162	0.503924033143852	-0.533480468326174	0.00521867900485118	-0.0168717267084506
0.04	-1.22971369252405	0.947650049916113	727.078970651703	-1.79409628699996	24.403442170693	0.485053279542627	-0.513811366604949	0.00520779579204622	-0.0169295951832212
0.05	-1.11434383220072	0.925114832740679	726.825757708566	-1.81246836100411	24.3356209087938	0.473620192589704	-0.501814887802704	0.00518274409310771	-0.0170099062703744
0.06	-0.973521188675649	0.909894233850754	726.607685966101	-1.8388475599582	24.2555493855766	0.46926827987028	-0.497189230950297	0.00514683414249129	-0.0171085721360548
0.07	-0.811498714617893	0.903837642216709	726.411079371785	-1.86903304178438	24.1698249316409	0.470258022688276	-0.498259303925583	0.00510581098904639	-0.0172159298690034
0.08	-0.636948713470404	0.909456085393239	726.224171233487	-1.89882528190261	24.0873764605226	0.474054457438837	-0.502567469212697	0.00506542766982065	-0.0173192045575489
0.09	-0.461606707809115	0.929580892899003	726.045301807956	-1.92577756692632	24.0176351475861	0.47805487373083	-0.507589195170463	0.00502906196506903	-0.0174053864585277
0.1	-0.298237534336404	0.96647749451415	725.888251677017	-1.95027664908709	23.9689185227921	0.480228238364885	-0.511345499831179	0.00499624480542582	-0.0174636887627224
0.11	-0.158261114914498	1.02069509562693	725.782056860925	-1.9755623845268	23.9473245251655	0.479492161989618	-0.512747183852969	0.00496262900712963	-0.0174870590683869
0.12	-0.0495200481088799	1.0901452078304	725.764373550791	-2.00667255916692	23.9561960645635	0.475760225130985	-0.511618643703522	0.00492141527006273	-0.0174726176007338
0.13	0.025276052847436	1.16989808461073	725.86975010954	-2.04867495294527	23.9960472678439	0.469707583849378	-0.508463172023756	0.00486574266088202	-0.0174212301146073
0.14	0.0689833543048031	1.25294194114075	726.116193627378	-2.10480119676194	24.0647848494272	0.462383053386469	-0.504103717713525	0.0047912094961241	-0.0173365946284363
0.15	0.0891283914571868	1.33175956402133	726.494389186308	-2.17514199309527	24.1580978860214	0.45481757057263	-0.49934257227219	0.00469763121268219	-0.0172242118662583
0.16	0.0958261340735802	1.40021183332594	726.963412461578	-2.25638084732745	24.2699726580943	0.447745133785727	-0.494738934709816	0.00458939101218803	-0.0170904737897895
0.17	0.0990091737828508	1.45504713071828	727.454909960535	-2.34268874407422	24.3933538979046	0.441487603815788	-0.490534555337795	0.00447422162209943	-0.016941933810532
0.18	0.105710082393557	1.49646722046809	727.885166664679	-2.42749365202002	24.5209789518151	0.435990675716897	-0.486698579142743	0.00436081137427036	-0.0167847011384916
0.19	0.118171804694656	1.52753690917623	728.172137316559	-2.50552112626964	24.6463536824696	0.43095795812445	-0.483034648152265	0.00425605797781325	-0.0166238747610198
0.2	0.133345606483889	1.55267894686313	728.253149636368	-2.57439435233808	24.7647500999676	0.426019695206491	-0.479297418387982	0.00416293709389126	-0.0164629905335475
0.21	0.143923916214374	1.57585424112285	728.098943865842	-2.63522890038133	24.8740342019019	0.42088377949386	-0.475287161820068	0.0040797486483074	-0.0163035473591011
0.22	0.140577702673671	1.59913855179308	727.720851500233	-2.69200955721001	24.9751187871741	0.415435288218753	-0.470911438089181	0.00400102000288405	-0.016144744454738
0.23	0.114692494551449	1.62222686727101	727.169739118228	-2.74996612595024	25.0718935204911	0.409766779874228	-0.466211099863697	0.00391975700879077	-0.0159835616644815
0.24	0.0607618071969544	1.64300789849548	726.527244822273	-2.81351524390343	25.1705956385296	0.404133399344504	-0.46134587304421	0.00383025689304584	-0.015815246772971
0.25	-0.0222494979215962	1.65892152950117	725.891335601206	-2.88448125728738	25.2787122064117	0.398839082041631	-0.456532957118319	0.00373050221070359	-0.0156341679712107
0.26	-0.130879143911796	1.66851859202683	725.359084866509	-2.96120529089341	25.4036103283345	0.394077438356173	-0.451940932276867	0.00362330499326247	-0.0154348884022477
0.27	-0.258325941235902	1.67259480218751	725.009814321059	-3.03884500987885	25.5511499211874	0.389772030799777	-0.447562719829706	0.00351579872888452	-0.0152132571266212
0.28	-0.396269935650055	1.67447033192806	724.891491121606	-3.11077458539633	25.7245373038627	0.385477043008101	-0.44311612312605	0.00341742115867094	-0.0149673012825002
0.29	-0.536677670243356	1.67933454954223	725.012659561038	-3.17065175332085	25.9236340933453	0.380398471098676	-0.43803236709864	0.00333700333671161	-0.0146977424861038
0.3	-0.673020306956275	1.69292327597166	725.341313877122	-3.21453192912336	26.1448590262608	0.373569402735907	-0.43157819816599	0.00327983411860744	-0.0144080297165927
0.31	-0.80064016740234	1.72001086848859	725.81105020933	-3.2424192531108	26.3817250662198	0.364162611078041	-0.423113014245525	0.00324554791784104	-0.0141038623539258
0.32	-0.916384258777328	1.76321710298786	726.3336408597	-3.25882458090327	26.6259518955635	0.351863949580461	-0.412421772399258	0.00322742538342269	-0.0137922574744866
0.33	-1.01792527077926	1.82246976177175	726.815965381995	-3.27217831655361	26.8689926296812	0.337183597078464	-0.400011093969639	0.00321330368325623	-0.0134802895194568
0.34	-1.10328559973688	1.89521241405205	727.178197559753	-3.29323615372315	27.1037214299371	0.321571659288902	-0.387236089785584	0.00318788538056003	-0.013173697467228
0.35	-1.1709253795083	1.97720660665438	727.369554962314	-3.33284795119331	27.3259591480294	0.30724288610861	-0.376155678637221	0.00313591131148094	-0.0128756119703555
0.36	-1.2204159235628	2.06362703898666	727.378066143775	-3.39959290975366	27.5354896095557	0.296698181740322	-0.369092970806058	0.00304548153225914	-0.0125856895501908
0.37	-1.25334804031136	2.15011662038983	727.231885525565	-3.49780507036231	27.7362674390184	0.292035052375923	-0.367981992757689	0.0029107872616797	-0.0122999262496323
0.38	-1.27389931975741	2.23353768481325	726.991592508543	-3.62642854856609	27.9356592591329	0.294228900800725	-0.373675095723343	0.00273364530135323	-0.0120113278122472
0.39	-1.28853039000224	2.31228126729383	726.735193034277	-3.77896966925855	28.1427861699194	0.302605958062763	-0.385428602261725	0.00252347709643241	-0.0117114237014358
0.4	-1.3046057254719	2.38613075068954	726.53948908488	-3.94458044284932	28.3662985066252	0.314696162163848	-0.400755413247662	0.00229570600507778	-0.0113923561552924
0.41	-1.32822056495107	2.45578464716002	726.462417647194	-4.11005518241488	28.6121309356267	0.326556051473739	-0.415737210228273	0.00206889924291931	-0.0110490306065182
0.42	-1.36196108503895	2.52220699537396	726.530558968847	-4.26230536546643	28.8818673103739	0.333518640275144	-0.42575648231515	0.00186127717411699	-0.0106806854536162
0.43	-1.40353072061057	2.58598670665205	726.734457139668	-4.39075855843888	29.1722343300847	0.331203363639266	-0.426484459787523	0.00168736895489463	-0.0102913133122092
0.44	-1.44602552147679	2.64685407497171	727.032275877337	-4.48914931423043	29.4759499320325	0.316544335182659	-0.414885622917389	0.00155555277949382	-0.00988866044039322
0.45	-1.48015171298178	2.70344047984922	727.360331047082	-4.55633449830762	29.7837554695714	0.288590515535159	-0.389994617336204	0.00146698299494818	-0.00948197335843609
0.46	-1.49799630943619	2.75330152398288	727.647701576835	-4.59602159711034	30.0870842217189	0.248893828750591	-0.353284528530843	0.00141604695963626	-0.00907910655424043
0.47	-1.49731771614525	2.79317644403284	727.83158322676	-4.61556174753786	30.3805887448058	0.20140734397634	-0.308552996512954	0.00139212782708686	-0.00868388740858717
0.48	-1.48495574732923	2.81943336217105	727.870206361957	-4.62414917957681	30.6637500757655	0.15193167717822	-0.261369920829975	0.00138218500910958	-0.00829463386521417
0.49	-1.47803174088237	2.82863930887769	727.750795823785	-4.63084388630595	30.9410352569723	0.107241442981118	-0.218223681567187	0.00137355893272906	-0.00790441220497107
0.5	-1.50214320951372	2.81818011138765	727.491070220696	-4.64280282496133	31.2204901716823	0.0740733532926678	-0.185549245682955	0.00135645083883673	-0.00750309325449205
0.51	-1.58661763299056	2.78683367382938	727.134079321853	-4.66400842142207	31.5111263452255	0.0581576665126585	-0.168815765997736	0.00132566652609667	-0.00708068706323839
0.52	-1.75781381509749	2.73518246040333	726.737634599115	-4.69466689141472	31.8198358749728	0.0634350079669008	-0.171805039117798	0.00128138375434206	-0.006631004884466
0.53	-2.03214121497745	2.6657558005175	726.360926806116	-4.73133861015557	32.148726958366	0.0915416020216424	-0.196148660889243	0.00122886942147427	-0.00615456284401966
0.54	-2.41066822908195	2.58283180437385	726.051742396399	-4.76776003173929	32.4936598836474	0.141590488455629	-0.241136010008466	0.00117722790772534	-0.00565985175645173
0.55	-2.87682741750595	2.49189919462122	725.837608261108	-4.79621242724015	32.8444133101658	0.210240359760923	-0.303774158168577	0.00113741284740709	-0.00516258084671695
0.56	-3.397909254819	2.39886442433916	725.723077037202	-4.80918736512995	33.1864345835794	0.292030030430832	-0.379076178268723	0.00111987633080612	-0.00468309613864476
0.57	-3.93002889074995	2.30916470154468	725.69347382739	-4.8010142522997	33.5036782182372	0.379954355623849	-0.460562571497762	0.00113233194444007	-0.00424268159574481
0.58	-4.42536968720044	2.22698764195251	725.723382590965	-4.76908952399451	33.7817547676514	0.466248989269488	-0.540960561996147	0.00117812322173516	-0.00385971587326905
0.59	-4.84000840902562	2.15478325322195	725.786707738875	-4.71441368302594	34.010578653873	0.543323718892755	-0.613061751423931	0.00125557855575742	-0.00354661505520809
0.6	-5.14061906444329	2.09317762432176	725.864853818236	-4.64130521149789	34.1859108421084	0.604738731792002	-0.670650075897289	0.00135849944324662	-0.00330818650879272
0.61	-5.30877850229304	2.04127685290887	725.950519082726	-4.55638043771048	34.3095522035208	0.646073047915615	-0.709358064668842	0.00147762850824207	-0.00314157938439519
0.62	-5.34227929185102	1.99722592079398	726.046391677797	-4.46709282984258	34.3883248990453	0.665516175533424	-0.727279994348651	0.0016026760219543	-0.00303759976168932
0.63	-5.253576965064	1.95881280688767	726.159947389776	-4.38023683256777	34.4322611399	0.664044007171937	-0.725191216394539	0.00172434884034089	-0.00298288572091815
0.64	-5.06607756639931	1.92391983086765	726.296849549842	-4.30079559246044	34.4525338323194	0.645120770725959	-0.706299868767265	0.001835877725195	-0.00296235806925949
0.65	-4.80930117312102	1.89071936832602	726.455706831555	-4.23136047336814	34.4596135237527	0.613980264776866	-0.675571048411219	0.00193375561968456	-0.00296144680447846
0.66	-4.51401015046592	1.85764405524554	726.626150692541	-4.17213879924557	34.4619756886641	0.576645681176009	-0.638776333154322	0.00201768792317913	-0.00296776557525352
0.67	-4.20820240025762	1.82326609470126	726.790745846732	-4.12138465685897	34.4654857215104	0.538911566854526	-0.601493043179872	0.00208999452039571	-0.00297208852678971
0.68	-3.91451700948463	1.78624517086515	726.92975146841	-4.07600746378158	34.473416511217	0.50551196907637	-0.568282432081132	0.00215479897106208	-0.00296862987872276
0.69	-3.64918377003703	1.74544181057733	727.026777841648	-4.03215427313383	34.4869365210041	0.479635914107072	-0.542213049851114	0.00221727154634688	-0.00295472813905029
0.7	-3.42227480722399	1.70018107360459	727.073248908323	-3.9856853462426	34.5058503727147	0.46284624057317	-0.52478706829232	0.00228301788635366	-0.00293010589511061
0.71	-3.2387727296671	1.65055123685991	727.070244985667	-3.93259217807062	34.5293711183171	0.455344134090967	-0.516209728293619	0.00235752982189541	-0.00289592110909015
0.72	-3.09989983172504	1.59758321423733	727.027412879268	-3.86946851333853	34.5567424115328	0.456434589438085	-0.515852883388016	0.00244553931523983	-0.00285384091771873
0.73	-3.00424715743598	1.5431932003585	726.959707660505	-3.79410207441647	34.5875975820717	0.465013059568035	-0.522729591075954	0.00255018548106167	-0.00280534095454427
0.74	-2.94844395049957	1.48986130958375	726.883362502607	-3.70612854806948	34.6220263374673	0.479918716415293	-0.535825232034223	0.00267208534057295	-0.00275135738493248
0.75	-2.92733924599852	1.44012094032815	726.812493680044	-3.60754898584939	34.6604002040994	0.500072680799081	-0.554207648234963	0.00280859385557253	-0.00269230930246855
0.76	-2.93385983733855	1.39600656215364	726.757233561343	-3.50284245700677	34.7030661626537	0.524411859331957	-0.576933963949893	0.00295363080562017	-0.00262839735847625
0.77	-2.95882335717196	1.35862627040854	726.723535305444	-3.39846585298383	34.7500405910672	0.551706633604236	-0.602849726723441	0.0030983633792947	-0.00256000697547487
0.78	-2.99101169125944	1.32798544503408	726.714143528708	-3.30171939344589	34.8008190191048	0.580386786220321	-0.630409670295584	0.00323277090697927	-0.00248802676068882
0.79	-3.0177544415428	1.30310542992032	726.729908874207	-3.21919991438794	34.8543693745365	0.608485221989009	-0.657630121165327	0.00334778025267657	-0.00241393824856856
0.8	-3.02614508380349	1.28238713181074	726.770694744552	-3.15525728347215	34.9093139742303	0.633753999435767	-0.682223345461839	0.00343739508858132	-0.00233962255859954
0.81	-3.00482853259365	1.26409728595652	726.835468034046	-3.11092020088397	34.9642474109628	0.65393719477114	-0.701891122250368	0.00350017521731338	-0.00226693018270963
0.82	-2.94608666597828	1.24682684446792	726.921586798084	-3.08363607172673	35.0180989229096	0.667128177230825	-0.714697648755573	0.00353959272626236	-0.00219713910852387
0.83	-2.84775902027165	1.2297885973244	727.023625505079	-3.06792150533884	35.0704370738715	0.672113647458688	-0.719419004084336	0.00356313508903239	-0.00213046202595901
0.84	-2.71443879167539	1.21287018961471	727.13223963979	-3.05674205870063	35.1216324717387	0.668616223482622	-0.715779495364564	0.00358040761811917	-0.00206574975329055
0.85	-2.55744565059492	1.19642071573864	727.233591748598	-3.04323227606579	35.1728350746251	0.657380627688188	-0.704521974633225	0.00360077173326878	-0.00200048455426854
0.86	-2.39332507647695	1.18081323929281	727.309800288095	-3.02229203202895	35.2257751715182	0.640089107145136	-0.687302263794032	0.00363115711991746	-0.00193108235617501
0.87	-2.24101835097259	1.16588896277448	727.340745548725	-2.99166050336363	35.2824464113572	0.619126250566924	-0.666433772316468	0.00367459516780022	-0.001853447771473
0.88	-2.11827291299402	1.15044565399157	727.307320469424	-2.95223737775127	35.3447598500295	0.597236322655498	-0.644531993423929	0.00372978955686665	-0.00176366742159223
0.89	-2.03816413855893	1.13196469010501	727.195792265648	-2.90763161636696	35.4142590957002	0.577128675777761	-0.62412076052714	0.00379175001964249	-0.00165869636054744
0.9	-2.00664542668865	1.10674946013756	727.002389558911	-2.86310995189928	35.4919574350282	0.561091595689325	-0.607265136700837	0.00385325069153253	-0.0015368939919983
0.91	-2.02178950518095	1.07055428177473	726.736750659504	-2.82424447182041	35.5783097337234	0.550672816212352	-0.595289720254976	0.00390669814930167	-0.00139829828286531
0.92	-2.07490060070183	1.01963063175578	726.422755259257	-2.79559923780084	35.6732850069484	0.546474222388905	-0.588624726936087	0.00394593726607007	-0.00124458316927567
0.93	-2.15312574035804	0.951957122152842	726.095735949848	-2.77975321538816	35.7764795079954	0.548088045584472	-0.586796371413467	0.00396758219405757	-0.00107871225494854
0.94	-2.24276198230136	0.86831940497229	725.79611030547	-2.77685358179989	35.8872142238095	0.554175436797797	-0.588548631532375	0.00397160463843937	-0.000904368373435605
0.95	-2.33228674417108	0.772914632289456	725.560771247394	-2.78476157298204	36.0045889222132	0.562663510950937	-0.592059988867548	0.00396109785322962	-0.000725289418667896
0.96	-2.41427717788982	0.67327197830255	725.414606293279	-2.7997228684695	36.1275003517234	0.571022398657592	-0.59520954858085	0.00394131876714254	-0.000544663587457472
0.97	-2.48577491385315	0.579456741548141	725.364796522683	-2.81738902900011	36.2546568867029	0.576583394916546	-0.595853713770701	0.00391825833540094	-0.000364722563434117
0.98	-2.54716288638697	0.502691966855668	725.399855379652	-2.83395050747248	36.3846264377983	0.576868838881026	-0.592090386045539	0.00389707940132145	-0.000186616902781545
0.99	-2.6000919556533	0.45363905359744	725.493887535298	-2.84712412187928	36.5159408152275	0.569913768452681	-0.582500617046577	0.00388077969125655	-1.05737846019527e-05
1	-2.64528599627219	0.440619040085957	725.614806787925	-2.8567723687566	36.647257109084	0.554559078679823	-0.56635833237027	0.00386938174652207	0.000163752529077077
1.01	-2.68107833709568	0.468053185419734	725.733905640863	-2.86501485824215	36.777554483521	0.530683845097222	-0.543786679081334	0.0038598298743201	0.00033688996585407
1.02	-2.70327784791484	0.535382962503308	725.83372501769	-2.87580899451571	36.9063284057157	0.499328772794019	-0.515824199543474	0.00384660956798022	0.000509277771998884
1.03	-2.70649756721842	0.636701062179021	725.911783098016	-2.894102419156	37.0337352030396	0.462657624738131	-0.484359545863999	0.00382293391677702	0.000681219565620783
1.04	-2.68653918164662	0.761264500478642	725.979141203977	-2.92476249561186	37.1606387320968	0.423720873175492	-0.451909999274648	0.00378220683450825	0.000853062962650031
1.05	-2.64298747491928	0.894938846227551	726.054490540389	-2.97154028647624	37.2885205850535	0.386027446711932	-0.421256152830979	0.00371941076555737	0.00102550205123086
1.06	-2.58099341742893	1.02243228148246	726.15585572161	-3.0363125438143	37.4192396618203	0.35298513190635	-0.394990566985645	0.00363209509105966	0.00119983397318368
1.07	-2.5114066854466	1.12995539809121	726.292695023672	-3.11876786323201	37.5546671090507	0.327317828366618	-0.375073365832486	0.00352075402515795	0.00137800906370317
1.08	-2.4489348471314	1.20775989709143	726.46096579019	-3.21658342811215	37.6962714759463	0.3105882722408	-0.362496272059841	0.00338854825839063	0.00156239729079627
1.09	-2.40870459249684	1.25194752181798	726.642730643315	-3.32601052493771	37.8447695024993	0.302937151651731	-0.357132445152898	0.00324049589679554	0.00175532061530065
1.1	-2.40223653494612	1.26505204423638	726.810434510281	-3.44268676247596	37.9999679152347	0.303097453568045	-0.357800228490661	0.00308238640183878	0.00195851741942088
1.11	-2.43416888594478	1.25517845727179	726.934517790699	-3.56244859858273	38.1608837470635	0.308673411720754	-0.362512541615185	0.00291972071330615	0.00217275698004837
1.12	-2.50092088146514	1.2338678773134	726.991972065435	-3.68194000703396	38.3261450637622	0.316609803031328	-0.368840724024954	0.00275694061900533	0.00239777902277249
1.13	-2.59188812422825	1.21322960692307	726.97310736247	-3.79889202748082	38.4945646907526	0.323739611602617	-0.374306231233616	0.00259709773596062	0.00263260628730611
1.14	-2.69290379582629	1.20311643679581	726.884311835314	-3.91205646402052	38.6656899509424	0.327295492534067	-0.376727429502214	0.00244196633371352	0.00287611707838908
1.15	-2.79089182747702	1.20912121865535	726.745833520879	-4.0208801181203	38.8401064711413	0.32529872549491	-0.374481086290713	0.00229247232926322	0.00312763962567431
1.16	-2.87818581125705	1.23192096174759	726.585243242685	-4.12507299380431	39.0193369092889	0.316783543099616	-0.366671443731948	0.00214923227582109	0.00338729818527878
1.17	-2.95506749648217	1.26806085022379	726.428722029421	-4.22423890232424	39.2053112461499	0.301856469885533	-0.353218417210076	0.0020129883685821	0.00365592009737953
