Time [s]	GRFml [N]	GRFap [N]	GRFv [N]	Mml [N.m]	Map [N.m]	Mv [N.m]	Mfree [N.m]	COPml [m]	COPap [m]
0.01	-1.6867718273392	1.58118623065249	874.890711014575	-24.8059626176032	57.0031534366025	0.577811636508453	-0.63299248808617	-0.00140559771067217	-0.0123613709994856
0.02	-1.69733950534579	1.48875098040944	875.545640770705	-24.8136264297562	57.0156643662777	0.562214648493101	-0.611055992353906	-0.0013907805803004	-0.0123964230749936
0.03	-1.71132525288639	1.40125052801823	876.121222509364	-24.8169321379057	57.0194006681337	0.54824658367706	-0.590973863510341	-0.00137369385958053	-0.0124357370902798
0.04	-1.73015619767243	1.32338661737821	876.557482205284	-24.8134982667383	57.0083655193791	0.537198742107469	-0.574302122879656	-0.00135367070449299	-0.0124818207745074
0.05	-1.75202451247101	1.25792084906674	876.829066849614	-24.8023515756204	56.9801698012554	0.529774085453076	-0.561974146960476	-0.00133048514260425	-0.0125355840542299
0.06	-1.77216775788084	1.20517045514652	876.949358229616	-24.7836945076862	56.9363560320795	0.525974980133136	-0.554148415114753	-0.00130394504654774	-0.0125962642437412
0.07	-1.7844615457062	1.16307680126245	876.96331927251	-24.7582371576344	56.8815902903518	0.52516450718217	-0.550229895557381	-0.00127336559514346	-0.0126618205631608
0.08	-1.78363460132592	1.12778572010535	876.931918804863	-24.7264097642663	56.8220334946487	0.526282554362713	-0.54906155339128	-0.0012371895737886	-0.0127296518809461
0.09	-1.76719821180665	1.09454984212945	876.913596951565	-24.6878401755267	56.7634273956137	0.528152456687381	-0.549234780191203	-0.00119301149595541	-0.0127974275414601
0.1	-1.73634819231769	1.05870888377547	876.948793318253	-24.6413727246961	56.7094577794594	0.529787556824428	-0.549433061004764	-0.00113812026307392	-0.0128638306658647
0.11	-1.6955379441535	1.01653444240807	877.051975067995	-24.5856687110755	56.660811688664	0.530610260748546	-0.548716195883851	-0.00107045783007997	-0.0129290624222342
0.12	-1.6509353231037	0.965813484905845	877.212624653533	-24.5201684875	56.6151033815836	0.530528242624577	-0.546675925338986	-0.000989692974359802	-0.0129950126685556
0.13	-1.60836162955861	0.906142837171658	877.403486519699	-24.4460226250657	56.5675952606472	0.529861176435636	-0.543438209902107	-0.000898016969413717	-0.0130650535649454
0.14	-1.57143979659302	0.838973938458886	877.592180907708	-24.3665851215853	56.5124550162453	0.529158241145398	-0.539535015118621	-0.000800324030156618	-0.0131434633614494
0.15	-1.54053538910609	0.767463129383846	877.75174304842	-24.2872076305382	56.4442016020223	0.528975143269948	-0.535701872024007	-0.000703624737899755	-0.0132345494735315
0.16	-1.51274726753278	0.696155314031394	877.866738206189	-24.214319918932	56.3589980603717	0.529681894314914	-0.532667121551796	-0.000615786667238938	-0.0133416155059825
0.17	-1.48283965659224	0.630487533241078	877.933743388195	-24.1540354404491	56.2555251850941	0.531352430733209	-0.530985889648321	-0.000543916730333271	-0.0134659887046907
0.18	-1.44474058678261	0.576081888872121	877.957268080006	-24.1106942082618	56.135287130269	0.533755469343286	-0.530946278787797	-0.000492823469794068	-0.0136063588961088
0.19	-1.39313950230731	0.537832648598445	877.943752862089	-24.0857929491762	56.00233167288	0.536435272145839	-0.53254926438314	-0.000463989260780617	-0.0137586447445993
0.2	-1.32479451933223	0.518882071807409	877.896639609579	-24.0776444170913	55.8624912201242	0.538849610470096	-0.53554598990602	-0.000455346158200753	-0.0139164877956521
0.21	-1.23933696604683	0.519692405820447	877.814658731286	-24.0818872624397	55.722345203499	0.540522507407648	-0.539508869730159	-0.000461923109732365	-0.0140723038871248
0.22	-1.1395415533857	0.537502405384841	877.693882797853	-24.0927031081812	55.5881516241545	0.541169674399325	-0.543913617520241	-0.000477180056972948	-0.0142186501050763
0.23	-1.03113937745764	0.566448768010994	877.532432715826	-24.1043740070077	55.4649826740613	0.540762781072894	-0.548214268562402	-0.000494642426064229	-0.0143495578598172
0.24	-0.9222652779558	0.598505078435487	877.335620837846	-24.112708757845	55.3562266095891	0.539513754183591	-0.55189998983883	-0.000509366295745939	-0.0144614846675749
0.25	-0.822586106445774	0.625159277748663	877.119132401318	-24.1159209755802	55.263502915375	0.537781072794208	-0.554529843987383	-0.000518834499626974	-0.0145536547283225
0.26	-0.742120345564408	0.639482392695785	876.908580032971	-24.1147378630122	55.1869140968937	0.535923145758202	-0.55574868799589	-0.000523086472753675	-0.0146277524646407
0.27	-0.689789571033063	0.638035611530507	876.735102493208	-24.1117827485786	55.1254660428026	0.534143088258537	-0.555292564449463	-0.000524144887699363	-0.0146871344353269
0.28	-0.671846573930744	0.622014148308407	876.628134329284	-24.1105055394466	55.0774627229196	0.532377297554109	-0.55299385051824	-0.000525019457435327	-0.0147358608718969
0.29	-0.690453862636039	0.59718251161834	876.607558201556	-24.1140489554066	55.0407307447793	0.530272122710423	-0.548794491230803	-0.000528662045217954	-0.0147778708623652
0.3	-0.742760640714911	0.572490503107658	876.677809783802	-24.1244036465527	55.012636877527	0.527268620425762	-0.542770398367154	-0.000537193949786907	-0.0148165296458308
0.31	-0.820786215376365	0.557672918692089	876.826001546135	-24.142053016078	54.9899848232054	0.52278093713965	-0.535162932067348	-0.000551566576674878	-0.0148546007465954
0.32	-0.912259100014115	0.560487423764205	877.024892991148	-24.1661110309465	54.9689645240377	0.516420059788384	-0.526406250377213	-0.000571629937415996	-0.0148945076277305
0.33	-1.00233728417215	0.584404087478725	877.239936055357	-24.1947915866016	54.9453366669911	0.508193644673229	-0.517134569246152	-0.000596446930863803	-0.0149386233666842
0.34	-1.07592555691753	0.627458626753712	877.438204884661	-24.2259693476487	54.9149537937034	0.498613177168134	-0.508153332054291	-0.000624648305698861	-0.0149893163177482
0.35	-1.12017429109615	0.682642813026257	877.596316426331	-24.2576137173732	54.8745723882511	0.488663394202811	-0.500364221375829	-0.000654671991820788	-0.0150485955129011
0.36	-1.12671421106257	0.739738216100757	877.704783427355	-24.2879773924025	54.8227549366824	0.47962879542151	-0.49464516953697	-0.000684834749903218	-0.0151173997240256
0.37	-1.09323823062341	0.788058660449311	877.767547440079	-24.3155524820132	54.760566333537	0.472815290859184	-0.491700400514777	-0.000713292796069465	-0.0151947754192808
0.38	-1.02415111375243	0.819298474636247	877.797235933536	-24.338916884372	54.6917856897368	0.469237840170791	-0.491908475187963	-0.000738015586634777	-0.0152772992297102
0.39	-0.930141916495818	0.829672381230225	877.808253106985	-24.3566385071852	54.622488313266	0.469357692896424	-0.495204784824338	-0.00075689753924868	-0.0153590613511622
0.4	-0.826681718038429	0.820772643018455	877.810498827615	-24.3673678229595	54.5600569143712	0.472942405095285	-0.501035684373882	-0.000768067478240098	-0.0154323433891735
0.41	-0.731612778547204	0.798969119939369	877.80604286266	-24.3701466727141	54.5118755807977	0.47909106671043	-0.508411492587256	-0.000770352621877524	-0.0154888692300488
0.42	-0.662174608685925	0.773601029892363	877.78970441615	-24.3648384833335	54.4840666998424	0.486423444230125	-0.516063531440252	-0.000763757031122414	-0.0155212869078877
0.43	-0.631983698827616	0.754524686167766	877.752836827887	-24.35249797927	54.480609149816	0.493385755726368	-0.522679363241912	-0.000749767203290341	-0.0155244454289302
0.44	-0.648591443771523	0.749708185049228	877.688413850265	-24.3354889706281	54.5030387181289	0.49859073341982	-0.527160055880108	-0.000731325095721491	-0.0154961003890445
0.45	-0.712218297663426	0.763487866021413	877.595221012904	-24.3172357682961	54.5507358658439	0.501098257850141	-0.52882759656741	-0.000712406868062621	-0.0154368845361583
0.46	-0.816053715260701	0.795867383283335	877.479589370408	-24.3016283205165	54.6216253208712	0.500562059874069	-0.527520641416561	-0.000697280481713247	-0.0153496313678596
0.47	-0.948137728002279	0.842930275498838	877.354277548351	-24.2922384260207	54.7130066551513	0.497213356615779	-0.523552980597721	-0.000689636429441531	-0.015238344491564
0.48	-1.09439795166019	0.898143566913107	877.235239515731	-24.2915866928369	54.8222317826004	0.491707306144925	-0.517558068191845	-0.000691845009014869	-0.0151071908074269
0.49	-1.24205494466227	0.954131166472477	877.137645026018	-24.3006916547759	54.9470338035465	0.484900665553749	-0.51028325179828	-0.000704564217109738	-0.0149598397603511
0.5	-1.38246946866981	1.00443387372851	877.072490622371	-24.3190357650056	55.0854533528678	0.477641926698632	-0.502410504027157	-0.000726811687599138	-0.014799306476006
0.51	-1.51265361815032	1.04484343168373	877.044625644234	-24.3449367983725	55.2354527548247	0.470635063110119	-0.494460864223058	-0.000756461318255797	-0.0146282542412054
0.52	-1.63506317958436	1.07405756888632	877.052374180947	-24.3761758874585	55.394408456979	0.46439639784799	-0.486797292700248	-0.000790986440084573	-0.0144495503642892
0.53	-1.75579927516135	1.09359163324282	877.088472413335	-24.4106573472358	55.5587006682285	0.459281149657908	-0.479695261118618	-0.000828197385264962	-0.0142668035664463
0.54	-1.88180524064808	1.10705097896722	877.141874492933	-24.4468854625225	55.7235746358892	0.455530875321748	-0.473422717680929	-0.000866737655609739	-0.0140846505526047
0.55	-2.01790899291628	1.1189908220491	877.200018108861	-24.4841286608878	55.883353768223	0.45329489907179	-0.468273052130263	-0.000906200343248842	-0.013908671098916
0.56	-2.16456360575949	1.13365868366079	877.25120982676	-24.5222628449278	56.0319765937608	0.452604785881491	-0.46452470094304	-0.000946865463945068	-0.0137449409574431
0.57	-2.31689749735808	1.15392471909499	877.286781821048	-24.5613944636796	56.1637400323809	0.453317117343271	-0.462344511292384	-0.000989186415978782	-0.0135993342275162
0.58	-2.46529006644647	1.18065120538845	877.302613953252	-24.6014230475925	56.2740798253857	0.455067943993681	-0.461687725866911	-0.00103322549042606	-0.0134767412279078
0.59	-2.59726598550815	1.21263444818296	877.299630684265	-24.6417004533413	56.3602103244409	0.457287755251821	-0.462257325513924	-0.00107823579590371	-0.0133803774656963
0.6	-2.70017467091888	1.24709038716352	877.283074248396	-24.6808934529138	56.4214769632778	0.459304566043461	-0.463563200932221	-0.00112252192745033	-0.0133113358217843
0.61	-2.76397133810737	1.28049380963625	877.260708471436	-24.7170848829193	56.4593389065293	0.460523245000475	-0.465076243916259	-0.00116361629748174	-0.0132684849720764
0.62	-2.78345860101257	1.30947765003755	877.240473995357	-24.7480823264727	56.4769857832223	0.460628872017336	-0.466424508079996	-0.00119871759678658	-0.0132487445647813
0.63	-2.75953693928239	1.33149888690844	877.228302664267	-24.7718571472442	56.4786827204609	0.459739397048908	-0.467550949122534	-0.00122527670130168	-0.013247678789452
0.64	-2.69926770597797	1.34508998405093	877.22669936935	-24.7870135749872	56.4690066087312	0.458440011437957	-0.468759562855159	-0.00124159113581612	-0.0132602655795174
0.65	-2.6147966815157	1.34970070441968	877.234373833653	-24.7931835477427	56.452159344783	0.457667958726208	-0.470618151186032	-0.00124727582613471	-0.0132816502680764
0.66	-2.52137547510463	1.3453178326153	877.24684518386	-24.7912536541325	56.4315100150004	0.458468762228894	-0.473744523288258	-0.00124350361133163	-0.0133077058091361
0.67	-2.43484424725064	1.33214603384816	877.257737874603	-24.783354541812	56.4094381675792	0.461692284843108	-0.478552787071276	-0.00123294550276931	-0.0133352982663704
0.68	-2.36900983790084	1.31058991090396	877.260486833676	-24.7725823415466	56.3874527869538	0.467720537228352	-0.485054871819085	-0.00121938751938155	-0.0133622675061714
0.69	-2.33336873507566	1.28160527914704	877.250251031535	-24.7624765922474	56.3664794168776	0.476309965891366	-0.492791483136502	-0.0012070620349367	-0.013387232495912
0.7	-2.33157241184691	1.2472614886054	877.225817164285	-24.7563434241321	56.347165310526	0.486594348761856	-0.500916788246518	-0.00119980526227925	-0.013409377567396
0.71	-2.36090448974208	1.21118530984702	877.191088659637	-24.75656994322	56.3300586644216	0.497246072437259	-0.508405245285937	-0.00120022256180197	-0.0134283549213873
0.72	-2.41284871477669	1.17853225321402	877.155531338797	-24.7641031273369	56.3155688670225	0.506751116783675	-0.5143103350986	-0.00120908005855469	-0.013444363771059
0.73	-2.47461563740602	1.15528104731082	877.132943798725	-24.7782451900144	56.3036975370088	0.513728215241016	-0.517995845969258	-0.0012251152806888	-0.0134583712994661
0.74	-2.53131987736986	1.14691845291738	877.138325786931	-24.7968435107298	56.2936254100935	0.517218012745296	-0.519278425423234	-0.0012453612530452	-0.013472361160506
0.75	-2.56840409127955	1.15686331107598	877.183374546092	-24.8168437832404	56.2833210935691	0.516879589650163	-0.518452825379087	-0.00126592903121148	-0.0134894580059257
0.76	-2.57390541912635	1.18515011798345	877.271925336733	-24.8350638505084	56.2693732259834	0.513053701276051	-0.516204575571865	-0.00128304199778495	-0.0135137933876855
0.77	-2.54023726062696	1.22787495502663	877.397041005841	-24.8489718031922	56.2472127294613	0.506680343817928	-0.513439918938136	-0.00129401939225682	-0.0135500464748911
0.78	-2.46527562501078	1.27769506044989	877.541155518239	-24.857244753854	56.2117831175376	0.499089925775025	-0.511077537996267	-0.00129790906662319	-0.0136026950221767
0.79	-2.35265673091223	1.32533673035307	877.679710095516	-24.8599520072243	56.1585622467039	0.491717895417393	-0.50985192832874	-0.00129557806823755	-0.0136751177012018
0.8	-2.21128783141018	1.3617221599971	877.787438585149	-24.8583290565334	56.0846931083391	0.485814046883959	-0.510174446808494	-0.00128925106127853	-0.013768761779511
0.81	-2.05414307122766	1.38009927324981	877.845386120049	-24.8542453158116	55.989903786453	0.482220320265281	-0.512083769734774	-0.00128167642793287	-0.0138826008275115
0.82	-1.8964724718599	1.37753767749327	877.846341071232	-24.8495682971292	55.8769238226482	0.48126952681992	-0.515292996042169	-0.00127522606993802	-0.0140130477387485
0.83	-1.7536119844142	1.35535489688236	877.796809863147	-24.8456506661286	55.7512307012893	0.482816800017242	-0.519311275668422	-0.00127124691344305	-0.0141543779749069
0.84	-1.63865554374687	1.31839215192628	877.714802139308	-24.8431042004468	55.620142187108	0.486370780841918	-0.523594060678482	-0.0012698740139987	-0.0142995939997928
0.85	-1.56032658298354	1.27343725194425	877.624088560881	-24.841902392777	55.4914474041436	0.491261723323542	-0.527668762647765	-0.00127033088981776	-0.0144415614335473
0.86	-1.52143394354143	1.22735106272086	877.546738852338	-24.8417236693138	55.3718913627897	0.496782222132615	-0.531196759513292	-0.00127155826543157	-0.0145741912278965
0.87	-1.51827125600829	1.18550030282249	877.496264044669	-24.842364237508	55.2658691356437	0.502263130697299	-0.533963498184893	-0.00127290179602135	-0.0146934313483641
0.88	-1.54118864175492	1.15092926751812	877.473448465825	-24.8440438910057	55.1746467819175	0.507088279388548	-0.535822277875376	-0.00127459116410356	-0.0147978576513418
0.89	-1.57633842567167	1.1243994051557	877.466104431438	-24.8474933196017	55.0963201375121	0.510685315926768	-0.536637779880916	-0.00127784516982721	-0.0148887117033353
0.9	-1.60832580837652	1.10511586580306	877.45283287773	-24.8538110056835	55.0265680376567	0.51253880895737	-0.536271683886824	-0.00128458787161845	-0.0149693253720884
0.91	-1.62326218142758	1.09175815492505	877.409779768131	-24.8641660728579	54.9600750053674	0.512251764205311	-0.534625968677049	-0.0012968959924472	-0.0150439991100078
0.92	-1.6115975149415	1.08339460528261	877.318610025333	-24.8794684666458	54.8923193281568	0.509645070549941	-0.531723541730009	-0.00131637264693807	-0.0151165490308604
0.93	-1.57013605617681	1.07997496857386	877.173611267367	-24.9001224133834	54.8212859795426	0.504852533298995	-0.527780332077199	-0.00134364493484385	-0.0151888712487759
0.94	-1.50280432249633	1.08229748986437	876.986003406415	-24.9259373488853	54.7486161302043	0.498360354211842	-0.523222476191257	-0.00137812931413361	-0.0152599392900115
0.95	-1.41999246933969	1.09155231870804	876.784107905956	-24.9562150454241	54.679783717521	0.490958924614733	-0.518627505695624	-0.00141812705891087	-0.0153256044336004
0.96	-1.33656799616168	1.10868064052497	876.60891856039	-24.9899811359875	54.6231043563559	0.483610684184996	-0.514605711709486	-0.00146122719490782	-0.0153793905724063
0.97	-1.26891330672514	1.1338211987352	876.505668454977	-25.0262932594334	54.5876980950384	0.477271199708251	-0.51166670547734	-0.00150492136745228	-0.0154141927173672
0.98	-1.23153192565846	1.16604632200177	876.513012343888	-25.0645399749027	54.5808636065135	0.472715303906189	-0.510121413088635	-0.0015472834231266	-0.0154244796715831
0.99	-1.23387716303582	1.20345520847904	876.652213755005	-25.1046466103863	54.6055675566544	0.470411684045105	-0.510049829687939	-0.00158754502100389	-0.0154083749966862
1	-1.27805621369474	1.24354828660993	876.919025243325	-25.1471281952375	54.6588085432364	0.470466118122256	-0.511332352151244	-0.00162641584409384	-0.0153689454714085
1.01	-1.3579301236905	1.28370824740201	877.280632562042	-25.1929721177646	54.7314318970772	0.472630235206766	-0.513716169219268	-0.00166605366890726	-0.0153142083503729
1.02	-1.45986642988783	1.32159843826699	877.679080203293	-25.2433807185882	54.8095830565092	0.476360466142868	-0.516881763053069	-0.00170967161786673	-0.0152557400404735
1.03	-1.56504996602798	1.35536240107664	878.04114742769	-25.2994371523925	54.8775069097068	0.480912182700493	-0.520488798566513	-0.00176085171564755	-0.0152062110266282
1.04	-1.65290519126945	1.38363365559922	878.292999474008	-25.3617635021823	54.9209869506541	0.485459165206821	-0.524203335118076	-0.00182269209051067	-0.0151765262684064
1.05	-1.70493258474026	1.40547552964836	878.376512087326	-25.4302230559724	54.9305154652899	0.489228592434101	-0.527722530199252	-0.00189694254157913	-0.0151733817759351
1.06	-1.70818507903463	1.42039990261604	878.263394959292	-25.5036992777346	54.9033660343153	0.49163288302325	-0.53080868963812	-0.00198328878314313	-0.0151979049627985
1.07	-1.65771850522906	1.42853528715371	877.963442652833	-25.5799817160315	54.8440716452698	0.492367736867667	-0.533325363913103	-0.00207894024219279	-0.015245685476262
1.08	-1.55759023121215	1.43086885083231	877.524485187414	-25.6558042605249	54.7632749861253	0.491442368760637	-0.535249674330832	-0.00217865673843087	-0.0153080657848538
1.09	-1.42027028654232	1.42936501954548	877.02362614289	-25.727091941591	54.6753519934102	0.489122269906143	-0.536634049406214	-0.00227529819366401	-0.0153742097478279
1.1	-1.26459910764303	1.42675524185958	876.551590939452	-25.7894505846853	54.5954803733217	0.485795594321602	-0.537513251939822	-0.00236088359254127	-0.0154333173572825
1.11	-1.1126418013051	1.42592850246489	876.193803566468	-25.8388677884426	54.5368697955105	0.48180844184265	-0.537788745416072	-0.00242800927865672	-0.0154764288171694
1.12	-0.985948223045457	1.42907157224634	876.012636670837	-25.8725029424842	54.5087137595602	0.477333492040683	-0.537150189651106	-0.00247134213659228	-0.0154974965982889
1.13	-0.901835620859365	1.43689279143427	876.034918641843	-25.889370496708	54.5151508315974	0.472327466718114	-0.535092638741654	-0.0024888269514689	-0.0154936869159586
1.14	-0.870353471455499	1.44830167111617	876.247382712334	-25.8907067160381	54.5552401333749	0.466596588499983	-0.53105226104429	-0.00248227412096824	-0.0154650935677733
1.15	-0.892534374586644	1.46076987803527	876.600751623434	-25.8798743266451	54.6237459085563	0.459941741916139	-0.524628009757421	-0.00245713171600115	-0.0154141442370861
1.16	-0.960344834614418	1.47132393573084	877.021138788108	-25.8617859464383	54.7124266269098	0.452320278004713	-0.515810134283516	-0.0024214580471601	-0.0153449497682026
1.17	-1.05842185663783	1.47783709360231	877.425922713941	-25.8419723212241	54.8115264329345	0.443957542852886	-0.505124574719966	-0.00238433011391992	-0.0152627369520767
