Time [s]	GRFml [N]	GRFap [N]	GRFv [N]	Mml [N.m]	Map [N.m]	Mv [N.m]	Mfree [N.m]	COPml [m]	COPap [m]
0.01	13.1792808887501	4.35581645622463	554.681589252827	-39.8820869715425	-6.14723730819039	0.648789635274074	1.64446546774155	-0.00488799767232771	-0.00705826065731392
0.02	12.4215885110334	4.15408978898419	552.726281849621	-39.6518581751299	-5.97149423913751	0.607818211399227	1.54358509913334	-0.00460896770575231	-0.00721775821375768
0.03	11.6793549294474	3.95664769995108	550.818974013973	-39.4267361205011	-5.79879062708483	0.567953344917057	1.44538108774355	-0.00433456390505889	-0.00737396811378617
0.04	10.9662184918136	3.76694215751343	548.997204997613	-39.2097283185216	-5.63205284799759	0.530141455254467	1.35181202842688	-0.00406940380928557	-0.00752628851922765
0.05	10.2946727639934	3.58811645364823	547.296654026173	-39.0034848265357	-5.47400730811679	0.495257019472199	1.26465788441217	-0.00381777504417308	-0.00767453213702336
0.06	9.67556051407696	3.422875921858	545.74973261625	-38.8101873379236	-5.32708060989498	0.464063613746777	1.18544742222236	-0.00358348046157441	-0.00781894859013818
0.07	9.11765818203276	3.27337990637784	544.384236283885	-38.6314520602689	-5.19331368029842	0.437181240890045	1.11539941669909	-0.00336970783758325	-0.00796023011947364
0.08	8.62737255472661	3.14116070579053	543.222120413243	-38.4682517698496	-5.07429387582758	0.415061715269275	1.05538041665438	-0.00317893009326528	-0.0080994987596943
0.09	8.20856367338257	3.02707364879873	542.278467537818	-38.3208623911264	-4.9711080693917	0.397973279044779	1.00588076642705	-0.00301284006190269	-0.00823827337844062
0.1	7.86249968747039	2.93128065685352	541.56071130447	-38.1888389539847	-4.88431855913869	0.385994979864811	0.967009461495628	-0.00287232171578935	-0.00837841554512871
0.11	7.58794106634905	2.85326772601203	541.06817524012	-38.0710247791356	-4.81396239235965	0.379020702488279	0.938507346474387	-0.00275745764343016	-0.00852205411876314
0.12	7.38134386347977	2.79189484343094	540.791971996264	-37.9655962507486	-4.75957344664489	0.376772161342859	0.919777193700185	-0.00266757058375986	-0.00867148966785315
0.13	7.23716508570758	2.74547506431205	540.715291452797	-37.8701436335242	-4.72022543153409	0.378819664921716	0.909928367905891	-0.00260129510283899	-0.00882908126043182
0.14	7.14824802792192	2.71187792357229	540.814084886162	-37.7817862081118	-4.69459293559014	0.384609082671884	0.907833113871268	-0.00255667413209626	-0.00899711965092821
0.15	7.10626193991259	2.68865113455833	541.058128747161	-37.69731769998	-4.68102680311651	0.393493195725643	0.91219101893853	-0.00253127412994687	-0.00917769228656035
0.16	7.10216871296141	2.67315370101487	541.412427161021	-37.6133757490688	-4.67763952394084	0.404765498361761	0.921597915662029	-0.00252231209896669	-0.00937254670351895
0.17	7.12668939460447	2.66269317522965	541.838888930169	-37.5266272005227	-4.68239598464894	0.417694531175319	0.93461541204274	-0.00252678757662197	-0.00958295964735542
0.18	7.17074512913239	2.65465984103952	542.298194464588	-37.433959466215	-4.69320486915004	0.431556954848461	0.949837371960527	-0.00254161298357928	-0.0098096195332523
0.19	7.22585034744197	2.64665106170537	542.751752401562	-37.3326672585565	-4.70800620264059	0.445667794150942	0.965950011201219	-0.00256373630906485	-0.0100525296065052
0.2	7.28444038561406	2.63657985974005	543.163636112901	-37.2206237353515	-4.72485098276453	0.459406570526474	0.98178280651782	-0.00259025097762505	-0.0103109383674824
0.21	7.34012084050567	2.62276291777587	543.502387805786	-37.0964255681622	-4.74196949862239	0.472238372102246	0.996348102918487	-0.00261848881124561	-0.0105833025325271
0.22	7.38783149422286	2.60398452126215	543.742582952451	-36.9595026506174	-4.75782575512469	0.483729256760535	1.0088680993596	-0.00264609320833195	-0.0108672860987551
0.23	7.4239231835743	2.57953441280243	543.866060212877	-36.8101850339305	-4.77115634215302	0.493555724208549	1.01878873503334	-0.00267107093915423	-0.0111597970854384
0.24	7.44615120965742	2.5492190018324	543.862741152429	-36.6497220985066	-4.78099305579525	0.501508307861729	1.02578082144987	-0.00269182223900143	-0.0114570613786037
0.25	7.45359347861844	2.5133467859369	543.730988688443	-36.4802517830585	-4.78666953236862	0.507489612574204	1.02972950532995	-0.00270715009987781	-0.0117547309597165
0.26	7.44650530203106	2.47269011655542	543.477481677006	-36.3047207049379	-4.7878130375613	0.511507350486569	1.0307137495495	-0.00271625075638022	-0.0120480218032675
0.27	7.42612550108833	2.4284265220732	543.116613414981	-36.1267590096887	-4.78432331157477	0.513663099926192	1.02897794614099	-0.00271868827355861	-0.012331875018066
0.28	7.39445006603466	2.38206364192652	542.66945196282	-35.9505165759566	-4.77634096485739	0.514137630996695	1.02489800949411	-0.00271435682367388	-0.0126011334962224
0.29	7.35399010952196	2.33535239999179	542.162327972439	-35.7804695810188	-4.76420831821252	0.513173709257913	1.01894434381816	-0.00270343464511106	-0.0128507255038168
0.3	7.30753027837571	2.29019334408293	541.62513917516	-35.6212082393611	-4.74842577002411	0.511057311244317	1.01164396009369	-0.0026863337850966	-0.0130758463426262
0.31	7.25790227188607	2.24854110548758	541.089478201952	-35.4772176407215	-4.7296067511352	0.508098169522156	1.00354377137255	-0.00266364953189946	-0.0132721294379128
0.32	7.20778582410307	2.21231170555042	540.586700759759	-35.3526639638867	-4.70843410811306	0.504610518102849	0.995176765421287	-0.0026361129582988	-0.0134357989297218
0.33	7.15954664517515	2.18329698345163	540.146053683578	-35.2511979120247	-4.68562036491051	0.500894838535947	0.987032384002867	-0.00260454926836956	-0.0135637969973808
0.34	7.11511760454527	2.16308977720271	539.792976903277	-35.1757860431263	-4.66187378866479	0.497221319094559	0.979532065728604	-0.00256984373200088	-0.0136538806363065
0.35	7.07592610343794	2.15302270168095	539.547680358898	-35.128578844781	-4.6378715724802	0.493815638872884	0.973010561058913	-0.002532915995958	-0.013704684324376
0.36	7.0428673427193	2.1541224809163	539.424077352869	-35.1108220588212	-4.61424079534939	0.490847578490447	0.96770331845095	-0.00249470258006496	-0.0137157468481344
0.37	7.01632024015286	2.16708085688327	539.429131179934	-35.1228150636746	-4.59154717586594	0.488422841209375	0.963739973782442	-0.00245614650609582	-0.013687502396895
0.38	6.99620025130337	2.19224216404943	539.56264390543	-35.163917255747	-4.57029104762161	0.486578343475665	0.961143747130306	-0.00241819235442533	-0.0136212377760078
0.39	6.98204142379328	2.22960677631878	539.817486856515	-35.232600527171	-4.55090948916808	0.48528110277028	0.959836353978909	-0.00238178465967237	-0.0135190191548021
0.4	6.97309874326847	2.27884884528125	540.180243796364	-35.3265432997326	-4.53378317013098	0.484430714165611	0.959647864241015	-0.0023478674630227	-0.01338359308205
0.41	6.96846124248123	2.33934609449511	540.632211827045	-35.4427593077304	-4.51924624677369	0.483865267045863	0.960330787407469	-0.00231738301596554	-0.0132182675208917
0.42	6.96716642801945	2.41021894500562	541.15068354464	-35.5777525593658	-4.50759756277965	0.483370413309618	0.961577525649095	-0.00229126802256818	-0.0130267793405699
0.43	6.96830727662823	2.49037594449868	541.71041823432	-35.7276887418854	-4.49911148052443	0.482691162720459	0.963040223399182	-0.0022704463367488	-0.0128131550342867
0.44	6.97112427404458	2.5785623680967	542.285200887143	-35.8885728213316	-4.4940468702197	0.481545855911413	0.964351959869017	-0.0022558176117053	-0.0125815714071335
0.45	6.9750765964165	2.67340895309998	542.849385986611	-36.0564227293034	-4.49265309541592	0.479641657826082	0.965148189410762	-0.00224824195346019	-0.0123362226079426
0.46	6.97988843316962	2.77347801116957	543.379328269424	-36.227429788538	-4.49517222268852	0.476690831409417	0.965087341913419	-0.00224852110201054	-0.0120811991932594
0.47	6.98556847889088	2.87730460566066	543.854614419335	-36.3980978289443	-4.5018371154956	0.472427000115468	0.963869556668856	-0.00225737701994686	-0.0118203839555118
0.48	6.99240264119946	2.98343105395843	544.259026856206	-36.5653546761548	-4.51286550989032	0.466620594110593	0.961252639059941	-0.0022754290025987	-0.0115573680797536
0.49	7.00092189369408	3.09043367039469	544.581192013243	-36.7266317226968	-4.5284505766788	0.459092702825389	0.957064495662211	-0.00230317054798342	-0.0112953898834856
0.5	7.01184883836718	3.19694135413208	544.814889075289	-36.8799094716102	-4.54874881814799	0.449726627048074	0.951211510847037	-0.00234094726196843	-0.0110372970178493
0.51	7.02602784449605	3.30164629570453	544.959019276893	-37.02372912581	-4.57386640123612	0.438476535284452	0.943682563896207	-0.00238893704855915	-0.0107855316437377
0.52	7.04434454186444	3.40330767566928	545.017258745258	-37.1571723440568	-4.60384517470274	0.425372776622818	0.93454863476918	-0.00244713376545436	-0.0105421368184393
0.53	7.06764093389697	3.50074971624657	544.997437892207	-37.2798130740106	-4.63864964664344	0.41052357776351	0.923958192923891	-0.00251533541854906	-0.0103087812060144
0.54	7.09663245644983	3.59285579036578	544.910706166431	-37.3916468074901	-4.67815611175722	0.394113044594268	0.912128791456027	-0.00259313782186525	-0.0100867983157366
0.55	7.13183296065313	3.67856047482699	544.770551611646	-37.4930036159885	-4.72214492605302	0.37639558638693	0.899335484481714	-0.00267993444879627	-0.00987723582108471
0.56	7.17349288450756	3.75684145342345	544.591749628401	-37.5844518819496	-4.77029664984821	0.357687070326782	0.885896837878053	-0.00277492293159298	-0.00968091014253347
0.57	7.22155485620822	3.8267130449815	544.389314575502	-37.6666997425814	-4.82219244464594	0.33835318302866	0.872159404002768	-0.00287711831949721	-0.00949846139603677
0.58	7.27562971371302	3.88722287637097	544.17752180396	-37.7405009380737	-4.87731874717127	0.318795612781445	0.858481574955535	-0.00298537278631581	-0.0093304040001455
0.59	7.33499451021094	3.93745287693067	543.969057232777	-37.8065710610001	-4.9350758879392	0.299436762750563	0.845217714894485	-0.00309840100913467	-0.00917716866404067
0.6	7.39861258945364	3.97652537847071	543.774337811659	-37.8655192140248	-4.9947900048941	0.280703755657006	0.832703401955631	-0.00321480996506654	-0.00903913209891435
0.61	7.46517434575597	4.00361470381732	543.60103053272	-37.9177988863658	-5.0557273540186	0.263012492524474	0.821242489970389	-0.00333313147194519	-0.00891663155295636
0.62	7.53315591666869	4.01796425148002	543.453781485174	-37.9636805471851	-5.11710996140187	0.246752483617155	0.811096538253624	-0.00345185549749018	-0.00880996211588385
0.63	7.60089187280035	4.01890876018018	543.334151165416	-38.0032471135949	-5.17813150995057	0.232273083822993	0.802476965985146	-0.00356946213893995	-0.00871935563399329
0.64	7.66665704145994	4.00590117879492	543.24073904697	-38.0364121589729	-5.23797241394861	0.219871645575077	0.795540080201916	-0.00368445027123819	-0.0086449409989393
0.65	7.72875198884224	3.97854337623532	543.169470182858	-38.0629595446242	-5.29581320091881	0.209783960282275	0.790384918698805	-0.00379536118681414	-0.00858668651729844
0.66	7.78558643321041	3.93661979156009	543.114009905565	-38.0826021266246	-5.35084557745251	0.202177205849068	0.787053657130263	-0.00390079608019429	-0.0085443260397548
0.67	7.83575499266096	3.88013302756851	543.066269670102	-38.0950563327814	-5.40228087952505	0.197145465293868	0.785534168373	-0.00399942691094965	-0.00851727153768636
0.68	7.87810018603368	3.80934030615578	543.016967539496	-38.1001287273132	-5.44935596684961	0.194707741245543	0.785764204612521	-0.00409000093056079	-0.00850451586220406
0.69	7.91175847956949	3.7247896052277	542.956210192625	-38.0978101745717	-5.49133697910521	0.19480827323854	0.78763660803858	-0.00417133989378841	-0.00850453048894832
0.7	7.93618635469047	3.62735416391856	542.874068839282	-38.0883728606937	-5.52752169217214	0.197318876967434	0.791004949295357	-0.00424233560721207	-0.0085151640979777
0.71	7.9511647895446	3.51826386350036	542.761128098614	-38.0724652134736	-5.55724145968831	0.202042971807792	0.795689043450464	-0.00430194392589651	-0.00853354879040713
0.72	7.95678210433689	3.39913176691309	542.608993732889	-38.0511996588379	-5.57986386963742	0.208720946465398	0.801479895214669	-0.00434917954617537	-0.00855602150558789
0.73	7.9533967091284	3.27197384640474	542.410751197008	-38.0262281576437	-5.59479726607093	0.217036530688088	0.808143767327265	-0.00438311393788824	-0.00857806866164237
0.74	7.94158279683779	3.13921967738753	542.161371505561	-37.9998005805512	-5.60149817199854	0.226623888482163	0.815425233236005	-0.00440287851901343	-0.00859430208141619
0.75	7.92206332919124	3.00371167120244	541.858063427969	-37.9748012149323	-5.59948240272016	0.237075217436597	0.823049249899223	-0.00440767472760293	-0.00859847378003402
0.76	7.89563566537878	2.868690312839	541.500571300251	-37.9547590804937	-5.588340293807	0.247948719823625	0.830722450920152	-0.00439679203419138	-0.00858353610084436
0.77	7.86309579747276	2.73776291794259	541.091415917914	-37.9438282913357	-5.56775601091708	0.258776893310749	0.838133998434689	-0.00436963421516837	-0.00854175195652832
0.78	7.82516732551349	2.61485367952557	540.636072488586	-37.9467354754286	-5.53753039622942	0.269075161548573	0.844956432193028	-0.00432575342895987	-0.00846485757750809
0.79	7.7824410037378	2.50413328107105	540.143075177213	-37.9686922773475	-5.4976062826307	0.278350917750828	0.850847009081798	-0.00426489085422259	-0.00834427726727284
0.8	7.73532992924611	2.4099271340015	539.624033256383	-38.0152722440419	-5.44809472013393	0.286113079771253	0.855450034061207	-0.00418702190818919	-0.00817138635408669
0.81	7.68404427386488	2.33660235478266	539.093540248773	-38.0922529249928	-5.38930015773793	0.291882247969383	0.858400646513955	-0.00409240340181745	-0.00793781501117478
0.82	7.6285879616815	2.2884349027781	538.568955658158	-38.2054257809602	-5.32174235238	0.295201515515162	0.859330449169771	-0.00398161943802512	-0.00763578214337395
0.83	7.56877797982951	2.26945979611568	538.070039728343	-38.360378434326	-5.24617267096227	0.295647906465561	0.857875255319149	-0.00385562244814697	-0.00725844539050656
0.84	7.50428520979014	2.28330892088837	537.61842569803	-38.5622558231481	-5.16358253598934	0.292844315261567	0.853685087863477	-0.00371576551881432	-0.00680025076762482
0.85	7.43469392154946	2.33304253439993	537.236921456268	-38.8155088262141	-5.07520204976802	0.286471700768604	0.846436392767197	-0.0035638221207074	-0.00625726381876354
0.86	7.35957552213011	2.42098200235217	536.948643185482	-39.1236407700109	-4.98248730947779	0.276281159769656	0.835846230444262	-0.00340198955312965	-0.00562746361725523
0.87	7.27857091816443	2.5485524606118	536.775996941281	-39.4889637580399	-4.88709557175268	0.262105381875695	0.821687983562929	-0.00323287291007175	-0.00491098162761359
0.88	7.19147503952849	2.71614481601676	536.73953921215	-39.9123778222124	-4.79084820062699	0.243868883910873	0.803807875425033	-0.00305944719714072	-0.00411026936472203
0.89	7.09831674456778	2.92300667655351	536.856763059026	-40.3931863388522	-4.69568218297756	0.221596350419491	0.782141344287898	-0.00288499640942495	-0.00323018183544638
0.9	6.99942751506808	3.16717133912523	537.140870964296	-40.9289608560093	-4.60359185720856	0.195418379987496	0.756728090660414	-0.00271302990617122	-0.00227796770032776
0.91	6.89549303759533	3.44543281601508	537.599607440238	-41.5154673603111	-4.51656330515301	0.165573963848464	0.727724441109381	-0.00254717822115204	-0.00126316163660675
0.92	6.78758290408714	3.75337305406279	538.234232235208	-42.1466640366564	-4.43650453602225	0.132409109257388	0.695411593390527	-0.00239107239143367	-0.000197379166134284
0.93	6.67715516062389	4.08544505550135	539.038717325601	-42.8147777681533	-4.36517508349829	0.0963711662285897	0.660198362193855	-0.00224821276864504	0.000905981105022546
0.94	6.56603417392613	4.43511266513086	539.999246852305	-43.5104630764476	-4.30411889404647	0.0579986181266459	0.622617260449584	-0.00212183484616247	0.00203211857739345
0.95	6.45636213773878	4.79504451511554	541.094088304369	-44.2230430676579	-4.2546043750155	0.0179063446492174	0.583313136783248	-0.00201478063629388	0.00316528205966489
0.96	6.35052636697861	5.15735622683265	542.293885702977	-44.9408274389307	-4.2175751849027	-0.0232333546234805	0.543024128779721	-0.00192938435170806	0.00428927532676768
0.97	6.25106619242867	5.5138916950373	543.562402047684	-45.6514979755498	-4.19361479784703	-0.0647133954159125	0.502555340653182	-0.00186738046917869	0.00538799817768555
0.98	6.16056465450948	5.85653136661315	544.857710207408	-46.3425475215217	-4.18292709486758	-0.1058173381609	0.462746345996571	-0.00182984069757312	0.0064460024429181
0.99	6.08153120740989	6.17751310548644	546.133800646466	-47.0017544436456	-4.18533428029239	-0.145846494860299	0.42443427051567	-0.00181714409353364	0.00744904110679069
1	6.01628222193901	6.46974970625894	547.342543137013	-47.6176714272919	-4.20029236323866	-0.184147398364154	0.388414743064008	-0.00182898184362449	0.00838458808871614
1.01	5.96682618913725	6.72712653190048	548.435910401195	-48.1801053063883	-4.22692336022632	-0.220138194669514	0.355403344036897	-0.00186439540600003	0.00924230638728211
1.02	5.93476018497385	6.94476319231427	549.368346930226	-48.6805637508716	-4.26406234770965	-0.253332484089404	0.326000278891082	-0.00192184412844824	0.0100144433861356
1.03	5.92118340095022	7.11922466504455	550.099148307317	-49.112645148454	-4.31031659936135	-0.283359201788307	0.300660841866139	-0.00199929642759239	0.0106961342951717
1.04	5.92663244647489	7.24866972478045	550.594707052154	-49.4723499711964	-4.36413334771959	-0.309977294837917	0.279673824081164	-0.00209433731980378	0.0112855980332684
1.05	5.9510417786167	7.33292785847508	550.830481529886	-49.7582952603571	-4.42387226169391	-0.333084216297989	0.263149404306006	-0.00220428461036711	0.0117842143177576
1.06	5.99373111872087	7.37349979586186	550.792555304563	-49.9718184451288	-4.48787855797375	-0.352717603474253	0.25101730641758	-0.00232630632929371	0.0121964761451418
1.07	6.05342018288927	7.37348112681175	550.478675122816	-50.1169622890092	-4.55455277052736	-0.369049916503271	0.243035195143672	-0.00245753291286229	0.0125298179318919
1.08	6.12826958885226	7.33741291929396	549.898685324608	-50.2003390094655	-4.62241357074756	-0.382376257491147	0.238806494440989	-0.00259515897441938	0.0127943259376455
1.09	6.21594549625469	7.27106749388938	549.074312980476	-50.2308781619352	-4.69015062406239	-0.393096037850433	0.237806126689394	-0.00273653106962227	0.0130023437651173
1.1	6.31370446176773	7.18118126184778	548.038298927227	-50.2194693055993	-4.75666523367154	-0.401689578412832	0.239412145939755	-0.00287921943392189	0.0131679912680133
1.11	6.41849419128934	7.07514953436552	546.832912183817	-50.1785163605068	-4.82109739440637	-0.408691080157445	0.242940913376336	-0.00302107308149555	0.0133066196926798
1.12	6.52706536934707	6.96070025342226	545.507925870996	-50.1214255354407	-4.88283879047764	-0.414659663273129	0.247683352717062	-0.00316025878183982	0.0134342290086444
1.13	6.63608953622784	6.84556453893807	544.118168708739	-50.0620524211245	-4.9415321519296	-0.420150315226782	0.252939919200894	-0.00329528520544601	0.0135668749362793
1.14	6.74227804040079	6.73716173124777	542.720794733215	-50.014136052152	-4.99705817416815	-0.425686599465545	0.258052190333514	-0.00342501394208535	0.0137200930688209
1.15	6.84249737544868	6.64231525314713	541.372432920599	-49.9907482910062	-5.0495118521147	-0.431736850418261	0.262429397869522	-0.00354865918353854	0.0139083657473082
1.16	6.93387666539691	6.56701322498882	540.126386513912	-50.0037857374996	-5.09917054883589	-0.438695323680203	0.265568719114784	-0.0036657777065176	0.01414465413175
1.17	7.0139036356996	6.51622451649472	539.030048439664	-50.0635285904396	-5.14645638779209	-0.446869399725202	0.267068680700734	-0.00377625049538389	0.0144400134689941
1.18	7.08050604835297	6.49377704781886	538.122684562766	-50.178286668778	-5.19189562503583	-0.456473482164379	0.266635552802491	-0.00388025701863514	0.0148033042119879
