Time [s]	GRFml [N]	GRFap [N]	GRFv [N]	Mml [N.m]	Map [N.m]	Mv [N.m]	Mfree [N.m]	COPml [m]	COPap [m]
0.01	9.25455499685332	-2.16011499727926	688.405024565425	-32.1448890446036	-4.14281349306599	0.130618840847613	0.549891355992008	0.00723760908555642	0.00271105224535345
0.02	9.13711873789241	-1.95591766824136	691.562886502119	-32.2656309294462	-4.01514444724364	0.12606118421856	0.541149111006914	0.00744639100509854	0.00267279386946807
0.03	9.02169665666498	-1.7478461230846	694.724465238709	-32.3959396779604	-3.88788406785811	0.121688890719465	0.532733682978098	0.00765349339893688	0.0026462010522554
0.04	8.91006387528128	-1.53625383445533	697.858643533274	-32.5381550064409	-3.76193406179173	0.117656981369429	0.524922090653747	0.00785739983087411	0.00263677287024527
0.05	8.80380839806693	-1.32184978705724	700.933408913475	-32.6938618671229	-3.63811993881123	0.114111979484596	0.517963683778219	0.00805673776446485	0.00264907579559358
0.06	8.70426918615453	-1.10580151404146	703.916050992095	-32.8636355653365	-3.51718587062098	0.111185300099415	0.512067975799167	0.00825028336061079	0.00268635161008482
0.07	8.6124887734827	-0.889801985215165	706.77348146453	-33.0468514521583	-3.39979074537895	0.108987534212961	0.507395152583005	0.00843696406809979	0.00275020580240318
0.08	8.52918296489825	-0.676091991793021	709.472703086649	-33.2415762267357	-3.28650461547568	0.107603957884792	0.504049672173073	0.00861586077989997	0.00284040102305124
0.09	8.45472894264508	-0.467433864324622	711.981435935131	-33.4445513525737	-3.17780502942281	0.107091511164621	0.502077154902424	0.00878621078100801	0.00295477190299567
0.1	8.38917183997735	-0.267036724879159	714.268890479909	-33.6512720000645	-3.07407304735232	0.107477390433742	0.501464571309895	0.00894741210903016	0.00308926831122563
0.11	8.33224862313765	-0.0784376075749989	716.306659315372	-33.8561578680127	-2.97558902609136	0.108759286163887	0.502143569021145	0.00909902935549865	0.0032381247400958
0.12	8.2834270470047	0.094653646945283	718.069684298728	-34.0528057301393	-2.88252849739846	0.110907183575233	0.503996634809326	0.00924080040799326	0.00339414470214603
0.13	8.24195658888928	0.248535053928952	719.537244443033	-34.2343080248884	-2.79495863479189	0.113866534244675	0.506865659002893	0.00937264321119114	0.00354908141901648
0.14	8.20692767028841	0.379706237187486	720.693902939714	-34.3936175773832	-2.71283590185671	0.117562510820144	0.510562353676908	0.00949466133782134	0.00369409015360223
0.15	8.17733517404606	0.485062044211019	721.530349502542	-34.5239358159525	-2.63600549642511	0.121904982785559	0.514879876281435	0.00960714702522814	0.00382022358326641
0.16	8.15214225541499	0.562073058247469	722.044076847529	-34.6191007126133	-2.56420315493721	0.126793805677204	0.519604934573101	0.0097105803549841	0.00391893976448142
0.17	8.13034070794558	0.608941241426009	722.239837253375	-34.6739511186437	-2.49705976880547	0.132124004187368	0.52452960857073	0.0098056234248296	0.00398259246506713
0.18	8.11100463744134	0.624720932653992	722.129836215548	-34.6846460662925	-2.4341091026895	0.137790453282955	0.529462132830334	0.00989310866567368	0.00400487576620065
0.19	8.09333486337771	0.6093980112111	721.733634421532	-34.6489207662844	-2.37479870884816	0.143691719606425	0.534235946550393	0.00997402086270955	0.00398119857868119
0.2	8.07669224236767	0.563923000575733	721.077745675534	-34.5662651841455	-2.31850391924981	0.149732813467431	0.538716442590872	0.0100494729119429	0.00390896971502846
0.21	8.06061892500962	0.490196994586648	720.194935920378	-34.4380159184058	-2.26454458524338	0.155826712163688	0.542805024149713	0.0101206758393316	0.00378778000523572
0.22	8.04484735165724	0.391012312361595	719.123246029233	-34.2673572994205	-2.21220403980268	0.161894638437437	0.546440296196694	0.010188904085001	0.00361947422083712
0.23	8.02929750894632	0.26995252251251	717.904777474131	-34.0592328458178	-2.16074959420595	0.167865202550102	0.549596457773103	0.0102554574668972	0.00340811187517561
0.24	8.01406356502375	0.131258747087786	716.584294302536	-33.8201731410826	-2.10945376123202	0.173672631489256	0.552279196939219	0.0103216215492407	0.00315982192997392
0.25	7.99939145095786	-0.0203291699824759	715.207706180032	-33.558050545396	-2.05761532875838	0.179254403749409	0.554519597921751	0.0103886283222743	0.0028825617462369
0.26	7.98564924923956	-0.179747048471347	713.820504878127	-33.2817747074674	-2.00457939530427	0.184548674175259	0.556366728111983	0.0104576191336161	0.00258579502408907
0.27	7.97329239395489	-0.341786440854442	712.466230010089	-33.000945418802	-1.94975552274165	0.189491904142024	0.557879664869287	0.0105296116941432	0.00228010680752287
0.28	7.96282570058952	-0.501270910674014	711.185038798511	-32.7254808580925	-1.89263325731807	0.194017104402405	0.559119740038653	0.0106054727233154	0.0019767757877165
0.29	7.95476415501217	-0.653220058817687	710.012449210614	-32.465239676859	-1.83279441098179	0.198053051003436	0.560143723520104	0.0106858974245881	0.00168732509721433
0.3	7.94959423372246	-0.792994354240553	708.978316200958	-32.2296547192967	-1.7699216705661	0.201524751822286	0.560998544033555	0.0107713965269144	0.0014230725887121
0.31	7.94773733315428	-0.916415706798629	708.106087591501	-32.02739455336	-1.70380330038479	0.204355328678631	0.561717970099724	0.0108622911366668	0.00119470033683233
0.32	7.94951668222533	-1.01986080169645	707.412370064462	-31.8660665741432	-1.6343339107349	0.206469346546703	0.562321466678028	0.0109587151612952	0.00101186093748986
0.33	7.9551289192034	-1.10032632735694	706.906817807855	-31.7519724232969	-1.561511466974	0.20779747802024	0.562815224670618	0.0110606246340196	0.000882835292145411
0.34	7.96462134167167	-1.15546720612974	706.592337644665	-31.6899230742053	-1.48543089820833	0.208282249900117	0.563195153217772	0.0111678129215659	0.000814253163081542
0.35	7.97787568758314	-1.18361063231203	706.465586180646	-31.6831173963588	-1.40627481974879	0.207884491693336	0.563451447455685	0.0112799305558009	0.000810884093409528
0.36	7.99459916813754	-1.1837500147501	706.517717812173	-31.7330845620077	-1.3243020002789	0.206590004110725	0.563574211923608	0.0113965083024864	0.000875502525594249
0.37	8.01432333505783	-1.15552372883702	706.735328456131	-31.8396875008226	-1.23983427703033	0.204415898631278	0.56355954133159	0.0115169820604676	0.00100882733809902
0.38	8.03641120776176	-1.09918386447714	707.101529550474	-32.0011819171541	-1.15324264745601	0.201416033532049	0.563415439234879	0.0116407182563381	0.00120953274251689
0.39	8.06007289158311	-1.01555991682083	707.597080945407	-32.2143232891489	-1.06493324471909	0.197684990969672	0.563166988923038	0.011767038540888	0.00147432470177541
0.4	8.08438967126486	-0.906021653175455	708.20151018466	-32.4745128491405	-0.97533384093045	0.193360103812946	0.562860272269214	0.0118952427809351	0.00179807486038044
0.41	8.10834625510273	-0.772444289336569	708.894149452728	-32.7759728276618	-0.884881423535337	0.188621146589373	0.562564650498636	0.0120246295524103	0.002174002488616
0.42	8.13087047348273	-0.617177739707561	709.655029874347	-33.1119412053393	-0.794011265866118	0.183687445541276	0.562373162720569	0.012154513561736	0.00259389415126962
0.43	8.1508793102729	-0.443020207014693	710.465585294961	-33.474876787838	-0.70314777328943	0.178812329064139	0.56240094979539	0.0122842396422182	0.00304835068467384
0.44	8.16732968633995	-0.253194897393087	711.309133243737	-33.8566664907351	-0.612697242616385	0.174275020288642	0.562781759486333	0.0124131931847895	0.00352705152531434
0.45	8.17927195117193	-0.0513273302245467	712.171118347821	-34.2488281576211	-0.523042534989763	0.170370255500671	0.563662722450597	0.0125408070652798	0.00401902736407259
0.46	8.18590360936818	0.158580310447881	713.039121743088	-34.642703883787	-0.434539540387721	0.167396082244531	0.565197698645418	0.0126665653210746	0.00451293336225508
0.47	8.18662045736202	0.372181959868828	713.902657677444	-35.0296405238992	-0.347515212214702	0.165640436591589	0.567539574496432	0.0127900040043797	0.00499731660659201
0.48	8.18106207775545	0.584831922279623	714.752794245511	-35.4011556780118	-0.262266877759302	0.165367208917021	0.570831940401812	0.0129107097899966	0.00546087294926235
0.49	8.16914857702845	0.791644567381924	715.581647896539	-35.7490888483235	-0.179062486592645	0.16680257274279	0.575200596796729	0.0130283170319366	0.00589268973865322
0.5	8.15110559259934	0.987572611331782	716.381810124937	-36.0657385396118	-0.0981414438832502	0.170122366078822	0.580745328879312	0.0131425040327386	0.00628247208515632
0.51	8.12747496036555	1.16750583327554	717.145768989057	-36.3439867738513	-0.0197156867979942	0.175441277238747	0.587532361064324	0.0132529892996937	0.00662075114590382
0.52	8.09910903036175	1.32639043636849	717.865387552446	-36.5774127762393	0.0560293040178443	0.182804499264588	0.595587859154781	0.0133595285043363	0.00689907341436811
0.53	8.06714743249943	1.45936738512019	718.531496097298	-36.7603974755076	0.128933813821686	0.192182384613117	0.604892797751708	0.0134619127328792	0.00711017016767836
0.54	8.03297609141125	1.56192608286443	719.133645452599	-36.888219990848	0.198863714243316	0.203468463720013	0.615379457752739	0.0135599684217443	0.00724810609763932
0.55	7.99816941307439	1.63006785194612	719.660055735484	-36.9571465257462	0.265710910191402	0.216480999140661	0.626929766675565	0.0136535591294788	0.00730840580482347
0.56	7.96441774179003	1.6604720049924	720.097779185943	-36.9645111529005	0.329394448735833	0.230968044490346	0.639375642796684	0.013742589028292	0.00728815636623741
0.57	7.93344332686644	1.65065599892031	720.433078707387	-36.908786965578	0.389862244779938	0.246615778305234	0.652501449778155	0.0138270077351758	0.007186083705354
0.58	7.90690905065378	1.59912037324035	720.652006414967	-36.7896451051824	0.447093300606149	0.263059700725493	0.666048606800426	0.0139068158757151	0.0070026001077008
0.59	7.88632496248918	1.50546898764703	720.741150144617	-36.6079983635319	0.501100225572547	0.279898127667011	0.679722325203421	0.0139820706118016	0.00673982003242446
0.6	7.87295815693163	1.37049554663539	720.68850161174	-36.3660254987299	0.551931802373794	0.296707302727729	0.693200352868791	0.0140528902885607	0.00640154144505951
0.61	7.86775166919089	1.19622853948713	720.484388699886	-36.0671721717649	0.599675301417861	0.313057378286545	0.706143502071211	0.0141194573762509	0.00599319028519631
0.62	7.87125780202346	0.985928491052899	720.122406965976	-35.7161245565424	0.644458218912956	0.328528497343161	0.718207619908301	0.0141820189980536	0.00552172639908848
0.63	7.88359064369338	0.744033722292409	719.600282373395	-35.3187522182076	0.686449110605899	0.34272623597036	0.729056542144024	0.0142408845313434	0.00499551029405052
0.64	7.90440151579049	0.47605352615235	718.920598729715	-34.882017781283	0.72585721419598	0.355295738263004	0.738375464741708	0.0142964200257034	0.00442413136275574
0.65	7.93287976419091	0.18841060634942	718.091329243382	-34.4138521780676	0.76293060023043	0.365933983299915	0.745884087809591	0.0143490394669224	0.0038181997116623
0.66	7.96777976475371	-0.111762386125206	717.126121673606	-33.9229958095371	0.797952662826251	0.374399756048722	0.75134884859264	0.0143991932013114	0.00318910532174953
0.67	8.00747336590389	-0.416864550117772	716.044300124627	-33.4188076740239	0.831236854732293	0.380521038847497	0.754593574186975	0.0144473540888303	0.00254874987365586
0.68	8.05002535213381	-0.719096508648065	714.870562808843	-32.9110463155162	0.86311968071162	0.384199684298438	0.755507955167887	0.0144940021508424	0.00190925808097158
0.69	8.09328800507856	-1.01074613527129	713.634373088755	-32.4096281968051	0.893952081717945	0.38541336245803	0.754053364808308	0.0145396085996797	0.00128267669459024
0.7	8.13500957170285	-1.28447679797208	712.369059717505	-31.9243706949038	0.924089461219626	0.384214885930725	0.750265713598637	0.0145846201720172	0.000680670375242727
0.71	8.172950512884	-1.53360413486688	711.110660304977	-31.4647282355051	0.953880715072334	0.380729100197463	0.744255217484983	0.0146294446353879	0.000114224301562126
0.72	8.20500086504979	-1.75234763262247	709.89655854018	-31.039531031851	0.983656718683356	0.375147581613046	0.736203149084774	0.0146744382061121	-0.000406636373475038
0.73	8.22929193716211	-1.93604434071606	708.763979589355	-30.6567363936684	1.01371879222249	0.367721414368418	0.726355812507107	0.0147198954258207	-0.000873100322238043
0.74	8.24429588823867	-2.08131386830375	707.748418498089	-30.3232025718812	1.04432770069391	0.358752326071951	0.715016116286257	0.0147660418184755	-0.0012777878953079
0.75	8.24890745933906	-2.18616627306512	706.882082686186	-30.0444945822238	1.07569374766481	0.348582457395756	0.702533203929224	0.0148130294204218	-0.00161492497704391
0.76	8.24250321405321	-2.25004741890985	706.192431303302	-29.8247304147081	1.10796848890852	0.337583033142663	0.689290634674805	0.014860935072701	-0.00188046636291551
0.77	8.22497499668108	-2.27381967568286	705.700891140739	-29.6664745266763	1.14123852729687	0.32614219804824	0.675693593872738	0.014909761212866	-0.00207216409557852
0.78	8.19673585549986	-2.25967926220665	705.421821074875	-29.5706836049355	1.17552175732504	0.3146522865322	0.662155565796759	0.0149594388187764	-0.00218957837216597
0.79	8.15869829894506	-2.21101488966089	705.361785027477	-29.5367073628167	1.21076631272365	0.303496814415788	0.649084839209722	0.0150098321425568	-0.00223403096076891
0.8	8.11222635238037	-2.13221544655301	705.519177799644	-29.5623447264444	1.24685234083785	0.293037511951473	0.636871156286523	0.0150607449188331	-0.00220850342187127
0.81	8.05906436424441	-2.02843709895982	705.88422972377	-29.6439532895222	1.28359659043069	0.28360175774327	0.625872774811567	0.0151119278156479	-0.00211748469999732
0.82	8.00124678525593	-1.90534220974165	706.439395912728	-29.7766075109994	1.32075966281562	0.275470815915167	0.616404202541847	0.0151630869902295	-0.00196677471604829
0.83	7.9409941413181	-1.76882379648148	707.160115117542	-29.9542989253635	1.35805564676892	0.268869315993942	0.608724884175578	0.0152138936854377	-0.00176325234738066
0.84	7.88060108772947	-1.62472978377561	708.015903037712	-30.1701697500459	1.39516374177844	0.263956437434895	0.603029169954251	0.0152639948325197	-0.0015146175439017
0.85	7.82232273933672	-1.47860104353159	708.971726547438	-30.4167698092262	1.43174137719824	0.260819260012772	0.599437957400541	0.0153130245991554	-0.00122911822996741
0.86	7.76826541146741	-1.33543618788007	709.989589801036	-30.6863257247859	1.46743826116126	0.259468710533859	0.597992455531983	0.0153606167397405	-0.000915273044715434
0.87	7.72028749552014	-1.19949435911711	711.030251496422	-30.9710109017383	1.50191074598676	0.259838471234809	0.598650553479195	0.0154064174816744	-0.00058160086548581
0.88	7.67991546731523	-1.07414496476334	712.054985419462	-31.2632049752745	1.53483587855389	0.261787114874829	0.601286263835624	0.0154500985410492	-0.000236367454579639
0.89	7.64827903972749	-0.961770578984407	713.02729420666	-31.5557320770465	1.56592451577148	0.265103598584992	0.605692641586483	0.0154913697319604	0.000112641491902876
0.9	7.62606829139737	-0.863726240417869	713.914489188372	-31.8420684775804	1.5949329266324	0.269516089227706	0.611588446466337	0.0155299905427217	0.000458313071630509
0.91	7.61351430703737	-0.780355296579255	714.689057033669	-32.1165118014612	1.62167237173785	0.274703916612643	0.618628623988345	0.0155657800201366	0.000794359631872167
0.92	7.61039353238142	-0.711058950599872	715.329746227736	-32.3743060016527	1.64601624541211	0.280312268956042	0.626418441590389	0.0155986243403786	0.00111542690189484
0.93	7.61605475707463	-0.654413919217105	715.822322412192	-32.6117185116598	1.66790447986755	0.285969070267939	0.634530852675604	0.0156284815514275	0.00141715586852799
0.94	7.62946646427377	-0.608330252744198	716.159960317084	-32.8260683512184	1.68734503922175	0.291303324862288	0.642526399133934	0.015655383136355	0.00169619859794408
0.95	7.64928128822264	-0.570239510928106	716.343260255454	-33.0157063209174	1.70441246642136	0.295964091882906	0.649974729929734	0.0156794322497537	0.00195019026086058
0.96	7.67391354830238	-0.537302212601383	716.379897694007	-33.1799506646467	1.71924358075445	0.299639172590907	0.656476634798606	0.0157007986972173	0.00217768149832022
0.97	7.70162531149806	-0.506622825423474	716.283934010189	-33.3189835965241	1.73203055031426	0.302072562293641	0.66168538751725	0.0157197109350065	0.00237803689202455
0.98	7.73061618921433	-0.475460542313294	716.074834031201	-33.4337157865392	1.74301167605365	0.303079740926197	0.66532617399626	0.0157364455417194	0.00255130661413906
0.99	7.75911209661214	-0.44142467684321	715.776250320041	-33.5256272017799	1.75246031688398	0.302559951458606	0.667212448866339	0.0157513147396862	0.00269807928177848
1	7.78544847585372	-0.402644644017213	715.414644651771	-33.5965935556632	1.76067245527695	0.300504739892617	0.667258213732734	0.0157646526126966	0.00281932460458805
1.01	7.80814397915749	-0.357906093395307	715.017823213592	-33.6487079982507	1.76795344845033	0.297002197736734	0.665485426976065	0.0157768006791371	0.00291623458106063
1.02	7.82596128440168	-0.306746727121831	714.613463575909	-33.6841075830979	1.77460453146782	0.292236547935027	0.662026019970554	0.0157880934444363	0.0029900717775014
1.03	7.83795253009439	-0.249507551969784	714.227708540047	-33.7048134900488	1.7809096366775	0.286482936860886	0.657118286635168	0.0157988444888754	0.00304203263381816
1.04	7.84348775965862	-0.187337661751461	713.8838949825	-33.7125930099417	1.78712307082127	0.280097525895933	0.651097711403617	0.0158093335643685	0.00307313281543758
1.05	7.8422657084322	-0.122153004321986	713.601475440883	-33.7088499653767	1.79345854915487	0.273503204164292	0.644382586570443	0.01581979509421	0.00308412041362095
1.06	7.8343072033686	-0.0565518420299531	713.395177260495	-33.6945486250365	1.80008002729054	0.267171458078756	0.637455029063079	0.0158304084061338	0.00307542133898459
1.07	7.81993233116911	0.00630833671792563	713.274429586832	-33.6701743514717	1.80709469830437	0.261601124030752	0.630838229024934	0.0158412899873259	0.00304711961434254
1.08	7.79972332604553	0.0628659412281306	713.243073321769	-33.6357322939149	1.81454843685506	0.257294910318734	0.625070942383197	0.0158524880277301	0.00299897351868033
1.09	7.77447579970472	0.109334529872393	713.299354285805	-33.5907834906154	1.82242387552843	0.254734697654323	0.620680374226811	0.0158639795045602	0.00293046673473964
1.1	7.74514145616766	0.1418972974643	713.436186061928	-33.5345158692174	1.83064119343888	0.254356710301459	0.618154688581374	0.0158756700402609	0.00284089188211344
1.11	7.71276578252434	0.156907361900652	713.641656995759	-33.4658459125569	1.83906158581319	0.256527689263779	0.617916422745647	0.0158873967203897	0.00272946215048589
1.12	7.67842437102974	0.151084314754001	713.899746062802	-33.3835452651712	1.8474932690231	0.26152319293243	0.620298079870641	0.0158989339718965	0.00259544525612707
1.13	7.6431615030903	0.121697837524722	714.191205062811	-33.2863853547514	1.85569976224789	0.269509097871825	0.625521119995866	0.0159100024677685	0.00243831269602509
1.14	7.60793441440852	0.0667299290594647	714.494559954779	-33.1732922402627	1.8634100793079	0.280527272307965	0.633679464616211	0.0159202808424218	0.0022578963265234
1.15	7.57356627327229	-0.014991604642033	714.787182034572	-33.0435034062918	1.87033036749972	0.294486247834441	0.644728470554967	0.0159294197856877	0.00205454369388238
1.16	7.54071035875223	-0.123694338364054	715.046379884702	-32.896718116646	1.87615645011828	0.31115752297498	0.65848011469488	0.0159370578535883	0.00182926332578207
1.17	7.50982724791777	-0.258601392706812	715.25046530642	-32.7332332181605	1.88058667138835	0.330177899969373	0.674604864599834	0.0159428381199495	0.00158385137304008
1.18	7.4811760436507	-0.417913082401524	715.379750439179	-32.5540569309341	1.88333441190419	0.351057990769791	0.692640398714074	0.0159464246255946	0.00132099157124555
