Time [s]	GRFml [N]	GRFap [N]	GRFv [N]	Mml [N.m]	Map [N.m]	Mv [N.m]	Mfree [N.m]	COPml [m]	COPap [m]
0.01	-1.79134652298801	1.47989666959296	686.697805051538	0.824987536730702	40.732685004807	0.346290264383526	-0.436247062351285	-0.004704101389017	0.00399909019434264
0.02	-1.35686981756515	1.55069552197164	686.116579260128	0.852900442791873	40.489273540223	0.381558580179035	-0.474696688402766	-0.00466265404597344	0.00368983921539856
0.03	-0.957815919171724	1.61016687015025	685.515653788502	0.881460759425692	40.2499980956699	0.412264119816823	-0.50797082293707	-0.00462024815732498	0.00338823985237507
0.04	-0.622888645899505	1.65021898994772	684.888000979114	0.910555642572241	40.019532385571	0.435014310192018	-0.532244173683787	-0.00457705834837485	0.00310166646700322
0.05	-0.369952223463935	1.66753335746735	684.237921511377	0.940009451967732	39.8017239886439	0.448564556590345	-0.546104525193918	-0.00453334230425506	0.00283531543362137
0.06	-0.203769677156183	1.6638710909729	683.579271103941	0.969732254505616	39.5990570626175	0.454012954694719	-0.550762454769218	-0.00448921530099833	0.00259157355342371
0.07	-0.116694460423396	1.64485799609044	682.930022839048	0.999884136832314	39.4124045625771	0.454279173875399	-0.549460352831389	-0.00444440596997375	0.00237012838677597
0.08	-0.0920463315192065	1.61780439304786	682.305778259185	1.03100978568722	39.2412036159951	0.453094679738943	-0.54634014806752	-0.00439806257147857	0.00216878968687201
0.09	-0.109104135130375	1.58938286904175	681.715102011184	1.06407764074267	39.0840146226193	0.453869359204791	-0.545181268267823	-0.00434870664887299	0.00198471497220976
0.1	-0.148204911712722	1.56392121777078	681.158545646356	1.10036435914573	38.9392590675173	0.458791724241788	-0.548407805190534	-0.00429441885318571	0.00181557719893061
0.11	-0.19452711509476	1.54274845277659	680.631545808384	1.14117058300921	38.8058667444722	0.468392073527482	-0.556617541652766	-0.00423327322051403	0.00166026367513633
0.12	-0.239694334493864	1.52461619566492	680.129801394956	1.1874267375224	38.6836241420834	0.481616547394016	-0.568680843952581	-0.00416392878481298	0.00151892134428028
0.13	-0.281124003877264	1.50686533442307	679.65486326593	1.23931430444529	38.5731577435041	0.496297540674815	-0.582275890372242	-0.0040861904933065	0.00139244674421518
0.14	-0.319766873422243	1.48682478899193	679.217745593686	1.29605026929871	38.4756318458387	0.509813396762604	-0.594624828131668	-0.00400132089750593	0.00128172607991589
0.15	-0.357304487542279	1.46294487117665	678.839225100417	1.35593994590274	38.392324457952	0.519723557509553	-0.603190292424284	-0.00391194894568081	0.00118697992408046
0.16	-0.39389237618421	1.43534122718552	678.546705554735	1.41670835304161	38.3242420345581	0.524227138053971	-0.606163430021215	-0.0038215637003437	0.00110745864937589
0.17	-0.427196181333995	1.40567308233028	678.368616999523	1.47601314387576	38.2718646189441	0.522385887147339	-0.60268103639397	-0.00373373924178921	0.00104153951379093
0.18	-0.452913735988554	1.37651013881676	678.327960984476	1.53197057614464	38.2350250131874	0.514136745472383	-0.592805745457263	-0.00365134219064878	0.000987092709831605
0.19	-0.466406367908342	1.35048663753742	678.436702406336	1.58352078790736	38.2128658772217	0.50016754415592	-0.577358658633561	-0.00357598045043606	0.000941889213828428
0.2	-0.464665239683546	1.32956737469144	678.692348311994	1.63051917163706	38.2038108056766	0.48173519285773	-0.557700373535981	-0.00350786200593434	0.000903843445131614
0.21	-0.44773754580885	1.3146668252185	679.077449728826	1.67353878978797	38.2055224332825	0.460481012136035	-0.535526831347371	-0.00344608738763941	0.000870990279578376
0.22	-0.418959350228393	1.30570791359774	679.562103156537	1.71346552619494	38.2148741495522	0.438263720161946	-0.512704103306118	-0.00338925600178075	0.000841230804117021
0.23	-0.383808551036671	1.30203818557914	680.108915297759	1.75103170842024	38.2280008228675	0.417005448469016	-0.491132730526215	-0.00333617074919701	0.000811989680442382
0.24	-0.347742462532585	1.30299668174171	680.679356006187	1.78645184345016	38.2404999969578	0.398538306548808	-0.472618768171553	-0.00328639686303123	0.000779980315653184
0.25	-0.313825527739953	1.30838644762262	681.239995350501	1.81929859907313	38.2478287396183	0.384446001267684	-0.458734721288937	-0.00324046606192374	0.000741270209212719
0.26	-0.281118521737503	1.31866403422883	681.766919566369	1.84869818504318	38.2458951301555	0.375908641975087	-0.450670909570485	-0.00319960231328587	0.000691786665490413
0.27	-0.244613701989939	1.33477891856415	682.246842790967	1.87384164143379	38.2317902884583	0.373571131173798	-0.44909646207902	-0.00316496769585384	0.000628305775781268
0.28	-0.197003414687265	1.35772736187335	682.674232263028	1.89471201876805	38.2045537928529	0.377461831147679	-0.454061338718082	-0.00313657264831368	0.0005498226769593
0.29	-0.131917828118974	1.38797382313523	683.045090030105	1.91283325864344	38.1658165430938	0.386986881750546	-0.46497220272484	-0.00311214015092887	0.000459019386586212
0.3	-0.0476802426306763	1.42491451628617	683.349516126972	1.93178240175699	38.120131424564	0.401016228013703	-0.480664519062589	-0.00308631538438031	0.000363374343366141
0.31	0.0496836847757479	1.46652472333513	683.566198151523	1.95720722101802	38.0748054354112	0.418060285448646	-0.499572645521403	-0.00305061676050722	0.000275378402494808
0.32	0.145355707522483	1.50927737858266	683.661907093287	1.99618266644396	38.039112143104	0.436513172287206	-0.519973460757558	-0.00299438908499727	0.000211423396997479
0.33	0.217235838662249	1.54837121916602	683.597638939883	2.05591920588036	38.0228997924448	0.454914986176857	-0.540254454379149	-0.00290674707198302	0.000189249120225943
0.34	0.239982868805518	1.57826371493914	683.3405294503	2.14206071386302	38.0347948537738	0.472170563821818	-0.559142887274198	-0.00277915330049583	0.000224313534786913
0.35	0.190726132600466	1.59345116486479	682.877995490606	2.25700072774551	38.0803753640087	0.487664652388127	-0.575836013568394	-0.00260797912312105	0.000325929067085617
0.36	0.0550158500647822	1.58936830599365	682.228923389555	2.39871902863172	38.1607793440194	0.501237437239213	-0.589995816030525	-0.00239628099446121	0.000494277468333582
0.37	-0.168598970368858	1.56321350674936	681.447076009663	2.56054502472263	38.2721648806063	0.513024666156476	-0.601609994238391	-0.0021541676389738	0.000719316687502858
0.38	-0.46669549876382	1.51448632794758	680.614373898745	2.73200513031448	38.4062430857267	0.523209429705051	-0.610761988939219	-0.00189751436576024	0.000982102465899304
0.39	-0.812468164705453	1.44508563485734	679.825466223315	2.9005904759816	38.5518155100707	0.531761927312628	-0.617382439980007	-0.00164527398253866	0.00125831188170106
0.4	-1.17037600580999	1.35895021882787	679.168477249447	3.05400610748624	38.696957938409	0.538248843773063	-0.621062543758695	-0.00141605802374856	0.00152304305321954
0.41	-1.50289278652013	1.26137481677654	678.70842329046	3.18233381050923	38.8313011867695	0.541775014043592	-0.620994273520075	-0.00122486076718509	0.00175554877748596
0.42	-1.77772172295882	1.15823001816742	678.478742862321	3.27959757200414	38.9478302951531	0.541085235475962	-0.616069162356963	-0.00108070863662324	0.00194260252591488
0.43	-1.97368032315041	1.05530910934253	678.483064442789	3.34442870308674	39.0437635196806	0.534814653961299	-0.605126240630859	-0.000985692229416912	0.00207967212205168
0.44	-2.08379715433594	0.957926567173187	678.705185170405	3.37979838171056	39.1203339048736	0.52184079608113	-0.587300461022166	-0.000935415589388922	0.00216980203643208
0.45	-2.11492056888651	0.870756278836392	679.12205500029	3.39201898102796	39.1815966224093	0.501663566102726	-0.562392759744618	-0.000920535000549449	0.00222080985829748
0.46	-2.08411481793504	0.797790445428845	679.71369631747	3.38934277180977	39.2326367971484	0.474724031781074	-0.531167022963721	-0.000928867651583842	0.00224184551767115
0.47	-2.01302121619829	0.742268240672685	680.465727354486	3.38049199396196	39.2776884593501	0.442572527856822	-0.495482418682617	-0.000947553771239895	0.0022404201769109
0.48	-1.92190642765219	0.70647273911465	681.363653918111	3.37337284953078	39.3186670994109	0.407816938427578	-0.458195921216681	-0.000964897808743204	0.00222071245463895
0.49	-1.82512936898903	0.691396630639162	682.381807047294	3.37411711473568	39.3544796820356	0.373825783131568	-0.422819586128659	-0.00097169786558049	0.00218344994865705
0.5	-1.72923105939188	0.696385661534311	683.472208200787	3.38650881545063	39.3812537105257	0.34422241309861	-0.392982126488208	-0.000962014499415353	0.00212713932102804
0.51	-1.63396580096366	0.718938232358828	684.558861817194	3.41180683166088	39.3933842223963	0.322270056737729	-0.371806858720612	-0.00093339931703873	0.00205004451074298
0.52	-1.5356436726702	0.754838700821017	685.541068678109	3.44895080413501	39.3850963157698	0.310290104549497	-0.36135541014336	-0.000886625121408469	0.00195217600439984
0.53	-1.43145558007338	0.798721441151425	686.306183799793	3.49510770936684	39.3521076413823	0.309258665999239	-0.362280637633794	-0.000824981894343768	0.00183665132873728
0.54	-1.32322232731428	0.845019978651314	686.749034487245	3.5464641691171	39.2929726211767	0.318683066967392	-0.373779181871495	-0.000753257895533377	0.00171004856271517
0.55	-1.21929856670973	0.889093806978495	686.79305178663	3.59910767993076	39.2097913337911	0.336782302421129	-0.393848497138838	-0.000676601286832335	0.0015817004775413
0.56	-1.13403843056862	0.928204967846219	686.407636352244	3.6498028257407	39.1081369179354	0.360909603814215	-0.419763960512247	-0.000599508572705076	0.00146216849010239
0.57	-1.08503453494754	0.961995415606871	685.617355780844	3.69648864774135	38.9962445810017	0.388091774413198	-0.448631348185773	-0.000525164060826366	0.0013613203235211
0.58	-1.08899890892896	0.992226254360668	684.500748877428	3.73840714722114	38.8836614963174	0.415541287437473	-0.477861393584443	-0.000455246587297231	0.00128648108837598
0.59	-1.15747301674419	1.02176553970886	683.179054527707	3.7758924210939	38.7796461720354	0.441027796797256	-0.505458779214025	-0.000390161840077341	0.00124104710025474
0.6	-1.29348956165428	1.05308550840848	681.797383930154	3.80995583471651	38.6916209380262	0.463059589143524	-0.530097464105672	-0.000329518254933769	0.00122379306984038
0.61	-1.48995137337971	1.08675310230689	680.50223988178	3.84185040743892	38.6239378524066	0.480893246360757	-0.551033003479886	-0.00027260379633387	0.00122892828480764
0.62	-1.73000439141016	1.12047318542447	679.419691623146	3.87277032674062	38.5771434174292	0.494432988621309	-0.567947383994652	-0.000218663948604481	0.00124681782483677
0.63	-1.98922017449502	1.14911911793117	678.638047248112	3.90375645530722	38.5478451799511	0.504086218117841	-0.580817131635634	-0.00016690376263695	0.00126520594294421
0.64	-2.23907077405053	1.16587946943013	678.19779071926	3.93577647255318	38.5292059881316	0.510615542564202	-0.589849662211355	-0.000116281138709096	0.00127075612839322
0.65	-2.45101167534964	1.16425734468204	678.09015141415	3.96987321042963	38.512018541217	0.514991880371048	-0.595473625398333	-6.52611429747818e-05	0.00125073096438816
0.66	-2.60047498250877	1.14032237699786	678.264174926642	4.0072563512833	38.4862358631806	0.518232096624448	-0.59832844846179	-1.17192197305327e-05	0.0011946445268079
0.67	-2.67017737887016	1.09447024785771	678.640724859371	4.04925509367021	38.4427481167457	0.521211157170504	-0.599197101012256	4.68914225419947e-05	0.00109571159102828
0.68	-2.65231654794115	1.03205933754876	679.130614611101	4.0971308022739	38.3751124994412	0.524468902558848	-0.598863735047824	0.000113123677918936	0.000951894041270163
0.69	-2.54941494493658	0.962636133733453	679.653231933528	4.15183029461916	38.2808881438054	0.528066351591098	-0.597933168937277	0.000189017294031535	0.000766331016919253
0.7	-2.37373255435129	0.89790679051579	680.151797350984	4.2138028144559	38.1622392659384	0.531562074516439	-0.596690986568791	0.000275690901269665	0.000546972664563383
0.71	-2.1453020323422	0.849000394052528	680.601968478654	4.28298429157815	38.0255768563401	0.534159157396539	-0.595085639123333	0.000373230641913858	0.000305347041755888
0.72	-1.88876853695324	0.823769572377922	681.011889383159	4.35897671815869	37.8802132049051	0.535017901003309	-0.59287052623425	0.000480940122651763	5.45757132283109e-05
0.73	-1.62938690385135	0.824836050297749	681.413771912285	4.44135110215096	37.7362644743823	0.533657629903125	-0.589871146069537	0.000597853204043153	-0.000193025273065528
0.74	-1.38875619559447	0.848851415603326	681.849229876776	4.52992594005378	37.6022775901034	0.530313720569829	-0.586273329086256	0.00072327740407041	-0.000428241747290559
0.75	-1.18110121648901	0.887103648521959	682.352278322148	4.62485924391279	37.4831897560589	0.526103010234578	-0.582798260010645	0.000857095830642307	-0.000646580736620883
0.76	-1.01101673337137	0.927266027998512	682.934618748136	4.72645526848843	37.3791866954649	0.522896903034846	-0.580658415748261	0.000999637047462087	-0.00084875671952378
0.77	-0.873434301085084	0.955839498325132	683.577264796495	4.83470747466841	37.285800042706	0.522897504430191	-0.581270031260729	0.00115110051835199	-0.00103987269241179
0.78	-0.756092921548882	0.960725264339383	684.230815968322	4.94872867206745	37.195234030234	0.52802514226774	-0.585801225989313	0.00131072998654669	-0.00122749520197984
0.79	-0.644078614015132	0.93338781718072	684.824251512891	5.06630021608897	37.0985474369842	0.539310363981258	-0.594715994908079	0.00147607001608263	-0.00141915920800101
0.8	-0.525272755800414	0.870208939725041	685.279741288089	5.18376359685225	36.9880616933416	0.556500894746509	-0.607494236159591	0.00164265436258237	-0.00162002136166067
0.81	-0.395101388078442	0.77284886843136	685.529402069388	5.29637552554298	36.8593081917537	0.57803017711909	-0.622652693480144	0.00180434426329679	-0.0018313400922188
0.82	-0.259025233204414	0.64766548717556	685.529635800274	5.39908809222542	36.7119861285961	0.60136962073607	-0.638080350238448	0.00195430733515567	-0.00205020735245448
0.83	-0.131796808726389	0.504436615850801	685.269687941129	5.48756013935407	36.5497197717589	0.623650259729995	-0.651580310623527	0.00208639201455096	-0.00227057375477246
0.84	-0.0334760614085169	0.354737508590335	684.772931994334	5.55911415160828	36.378771395668	0.64234694891277	-0.661430740349004	0.00219649916038755	-0.00248522143590363
0.85	0.0167699003354519	0.210327069342878	684.091435538025	5.6133578702113	36.2061626649416	0.655806820102086	-0.666774048542396	0.0022835373157315	-0.00268806868626603
0.86	0.00729896884849168	0.081807528827688	683.295929902503	5.65228732749041	36.037793989824	0.663475125176858	-0.667716036844147	0.00234967274339226	-0.00287611462011322
0.87	-0.0609497868212679	-0.0223141160776447	682.463991235993	5.67984175904113	35.8770988514387	0.665792057657366	-0.665131675299458	0.00239980172077126	-0.00305046287991784
0.88	-0.172588172544211	-0.0961661430127321	681.669019150137	5.70103877801528	35.7245630105235	0.663851298864772	-0.66028114785018	0.00244040537054302	-0.00321614829411127
0.89	-0.299813777558789	-0.136740197107415	680.971758158006	5.72093130681286	35.5781575036113	0.658978290122754	-0.654395374172357	0.00247812180720297	-0.00338083463644773
0.9	-0.407944469954588	-0.143909680449548	680.415074638641	5.74366452038738	35.43447362418	0.652382777894641	-0.648376751433489	0.00251843531530216	-0.00355275097893859
0.91	-0.463061336020053	-0.120298604685866	680.021854999758	5.77186409220868	35.2901823612099	0.644977585251066	-0.64269222643149	0.00256482206829589	-0.00373840864890784
0.92	-0.439808748545704	-0.0709957348339602	679.79543153891	5.80647325711231	35.1434033128075	0.637369106476801	-0.637447938180598	0.00261852874085411	-0.00394065742722005
0.93	-0.327412018023374	-0.0030652069974831	679.721875112799	5.84701211560519	34.9946465074476	0.629955055715032	-0.632566843521202	0.00267894802560342	-0.00415751698353484
0.94	-0.132508595210668	0.075182186952727	679.773673282049	5.89210514280068	34.8471389041106	0.623038178087513	-0.627967504636728	0.00274436489716945	-0.00438201429032126
0.95	0.121756127090125	0.155118134559505	679.914525682764	5.94005567506148	34.7065083920176	0.616884031318078	-0.623664806549633	0.0028127469487248	-0.00460303806296786
0.96	0.400014201357016	0.228784198936918	680.105038303706	5.98926356749431	34.5799265786275	0.611698722160664	-0.619763461459023	0.00288227977678257	-0.00480703901999752
0.97	0.661277239866135	0.28972254152653	680.308888095069	6.03837698850795	34.4748887726344	0.607551931690369	-0.616367080756137	0.00295149429266039	-0.00498027996636302
0.98	0.866415872457585	0.333446344064044	680.498624035529	6.08620163023492	34.3978428370717	0.60429993013691	-0.613459112815518	0.00301903642483303	-0.00511126536271744
0.99	0.985060822292285	0.357455947391348	680.659899390979	6.13150259517498	34.3528876878637	0.601563980125951	-0.610818905742417	0.00308330140220181	-0.00519294303214785
1	1.00073808204202	0.360874833444015	680.792891129899	6.17287560888611	34.3407605534294	0.598796113690233	-0.608019564742488	0.00314221575116824	-0.00522427226176836
1.01	0.91347918578279	0.343928738372677	680.910156084658	6.20881709711005	34.3583162087252	0.595428699722665	-0.604523045266661	0.00319337118850893	-0.00521081204679302
1.02	0.73961449555997	0.307546111526585	681.0311502914	6.23801161410912	34.3986545934108	0.591069435313402	-0.599852079067654	0.00323453354581993	-0.00516412158610863
1.03	0.508882949141728	0.25328554853337	681.174774429121	6.25973584690842	34.4519603004043	0.585679745898533	-0.593787357112539	0.00326435483704013	-0.00509998169059772
1.04	0.259349726288597	0.183622642284955	681.352137688032	6.27421013357628	34.5069798035464	0.579669053667123	-0.586520508441112	0.00328300274159388	-0.0050357051912448
1.05	0.0309202983235948	0.102430108657939	681.561864821732	6.28274355179832	34.552904507672	0.57385347845785	-0.578696208013307	0.00329244308566368	-0.00498704308153569
1.06	-0.141524663102602	0.015350265109849	681.789581589516	6.28760605596743	34.5812923615852	0.569264163327974	-0.571303812001541	0.00329625241337672	-0.00496533990969866
1.07	-0.234209388416723	-0.0702487219172081	682.011905790474	6.29167281449956	34.5875951399999	0.566840036425551	-0.565426417440747	0.0032990245177742	-0.00497559261606773
1.08	-0.238616924228362	-0.145912573132018	682.203796723592	6.29796414108313	34.571898002019	0.567088037187691	-0.561909960695615	0.00330557388487329	-0.00501590260007673
1.09	-0.16282112336215	-0.203299750410101	682.346995274101	6.30921471368716	34.5386316411872	0.569822359773526	-0.561056721547761	0.00332017098876725	-0.00507850570130597
1.1	-0.0295777127863267	-0.23568387173295	682.436904506751	6.32755476966326	34.4952594543284	0.574087463570159	-0.562456448767504	0.00334597327651054	-0.00515218441262971
1.11	0.128603114512311	-0.239369385978606	682.485723151677	6.35431316715452	34.4502131792651	0.57832232761356	-0.565034084724107	0.00338469883377701	-0.00522550535735194
1.12	0.276507175240881	-0.214629678603018	682.520757756282	6.38990257471631	34.4105708294613	0.580746274782689	-0.567322480510385	0.00343649734647722	-0.0052900846477496
1.13	0.383955073531409	-0.165905181888513	682.578212224199	6.43374402805344	34.3800660546895	0.579865028283556	-0.567885597116692	0.0034999464214498	-0.00534304427002019
1.14	0.432540805038243	-0.101200806426088	682.69396608822	6.48422378039676	34.3579479522355	0.574941295482603	-0.565755641541618	0.0035721357548405	-0.00538801250710452
1.15	0.419810400282742	-0.0308195424573407	682.893602026445	6.53872036062313	34.3389882727522	0.566272109964316	-0.560734387101018	0.00364885815105542	-0.0054343991819335
1.16	0.359841019795654	0.0342999205730074	683.184102265426	6.5937619855657	34.3146250106942	0.555171312380384	-0.553453542947162	0.00372495908286097	-0.00549513672386237
1.17	0.279997860436241	0.0843305897995083	683.549228798403	6.64535532378946	34.2749327349341	0.543651947898157	-0.545175486632015	0.00379487670771927	-0.00558348380929841
