Time [s]	GRFml [N]	GRFap [N]	GRFv [N]	Mml [N.m]	Map [N.m]	Mv [N.m]	Mfree [N.m]	COPml [m]	COPap [m]
0.01	-3.39022727599449	1.57669175288248	868.196517229417	3.40427601092578	63.602074628186	0.523870523096211	-0.652645599635709	0.000980594393067635	0.00184963922540304
0.02	-3.36223519569203	1.45945529955546	867.746351385808	3.46533155403401	63.6817744149347	0.504881407443561	-0.625347278146943	0.00105124080162244	0.00197848005374851
0.03	-3.34812794326223	1.3496953388945	867.336586845568	3.52808510968405	63.767112856784	0.488672668466127	-0.60144754339652	0.0011238301924491	0.00211042526957583
0.04	-3.36130498308013	1.25379133975296	867.002362690764	3.59279694388198	63.862252905018	0.477284975338329	-0.583516348795806	0.00119863319576174	0.00224732065291738
0.05	-3.41164681608325	1.17425452304307	866.768451006287	3.65953644456393	63.9690198938262	0.471652800094015	-0.572714472365351	0.0012756815116165	0.00238918631914214
0.06	-3.50291130001888	1.10872247111846	866.646338073895	3.72854870842966	64.0864289544902	0.471495652662672	-0.568599887659437	0.00135519368850423	0.00253391654815571
0.07	-3.63062899010119	1.05033508040893	866.633364647797	3.8006089744182	64.2107867376989	0.475551521779912	-0.569380868110844	0.00143799782247633	0.00267746946477992
0.08	-3.78163683673806	0.989536866538882	866.71386687525	3.87715865103333	64.3363193880602	0.482052548651862	-0.572523660388588	0.00152570994123102	0.0028144960900266
0.09	-3.93604975786944	0.916884779440917	866.862009002015	3.96007658344421	64.4562095824167	0.489271890042315	-0.575515791360407	0.00162049209983539	0.0029392998980205
0.1	-4.07160537695784	0.826049189477258	867.045877128636	4.05109566059766	64.5638678772102	0.495963834961328	-0.576546826759422	0.00172439311545725	0.00304696186107617
0.11	-4.16931588230956	0.716054005317199	867.232309629203	4.15105405511312	64.6542021668276	0.501573066742985	-0.574907613146751	0.00183848341099202	0.00313440232715451
0.12	-4.21867793754529	0.591989060065294	867.39179873049	4.25928120945152	64.7246038904695	0.506180211841041	-0.571011084824445	0.00196212828824904	0.00320110982763477
0.13	-4.22064395284017	0.463893305199897	867.502648397938	4.37339976848544	64.775383539249	0.510246175466443	-0.56606697257387	0.00209272853275533	0.00324929485481074
0.14	-4.18719948814762	0.344094079982625	867.553556843785	4.48967584149227	64.8094932476771	0.514284353100993	-0.56155518258994	0.00222609067617463	0.00328334977830158
0.15	-4.13750293933995	0.243794395625875	867.544047180877	4.60383256255761	64.831563346615	0.518604853199436	-0.558699864784622	0.00235733986110742	0.00330869411871471
0.16	-4.09172664026554	0.169953921696158	867.482713912554	4.71204973082275	64.8464986430018	0.523233194284573	-0.558128711268097	0.00248206345561608	0.00333029295751402
0.17	-4.0645667829139	0.1234248778699	867.383924460074	4.81178905766301	64.8580473920517	0.528023106043913	-0.55981713722659	0.00259727114589048	0.00335127399443391
0.18	-4.06056057193262	0.0989108323584242	867.264128497054	4.90214733299134	64.8677975268707	0.532891792736507	-0.563298008672397	0.0027018228385246	0.00337207371381137
0.19	-4.07278799324186	0.0867461874657425	867.139017267068	4.9836239529684	64.8749383358599	0.538045102151752	-0.568012345086753	0.00279618394966152	0.00339040029328663
0.2	-4.08542195124876	0.0759332454460402	867.022343159179	5.05741953411513	64.8768786075528	0.544058375495051	-0.573628138459315	0.00288163366032301	0.00340205038811614
0.21	-4.07929898502374	0.0574987437699129	866.926400362114	5.12456538302414	64.8705151506026	0.551740901708922	-0.580182347693122	0.00295926744002406	0.00340234076060547
0.22	-4.03865617904464	0.0271527093734021	866.863319983128	5.18524668821613	64.8537050159758	0.561813144969767	-0.587990890076495	0.00302921441081483	0.00338770874602268
0.23	-3.95677545109412	-0.0135365952778462	866.845841091698	5.23860199124247	64.8264029563901	0.574521315230898	-0.597381192238979	0.0030904026710773	0.00335697113208505
0.24	-3.83863888635747	-0.0577763513293952	866.886354093348	5.28309055024864	64.7910247064206	0.589358474945539	-0.608381876481586	0.00314098667876572	0.00331183442272553
0.25	-3.69970719937653	-0.0957680434469495	866.993788662424	5.31729111746262	64.7518604717186	0.60503208190958	-0.620520366902278	0.00317928409678658	0.00325648880110546
0.26	-3.56124140283763	-0.117817894109918	867.169056946807	5.34081540607516	64.7137040993685	0.619725157030492	-0.632828285916875	0.00320485454398345	0.00319641558038392
0.27	-3.4437450928888	-0.117390848912134	867.400783126358	5.35495322196738	64.6801619513952	0.631581510250397	-0.644063240804344	0.00321926889486335	0.00313679598866262
0.28	-3.36071622850768	-0.0931925388006457	867.663459188152	5.36273968341749	64.6522510399518	0.639254166453099	-0.653065892565509	0.00322619857547857	0.00308104252150287
0.29	-3.31476142978867	-0.0496674569312084	867.919678844542	5.36832643952947	64.6278278203011	0.642327255480705	-0.659119769716803	0.00323067717761327	0.00302993750436403
0.3	-3.29730326671265	0.00421846953912514	868.126796428339	5.37578643913406	64.6021210525583	0.641464397171145	-0.662184475462816	0.0032376802548415	0.00298166644370118
0.31	-3.29189820185838	0.0575305962077618	868.246686046419	5.38770264762651	64.5692614201162	0.638231367292194	-0.662923194548973	0.00325043488855603	0.00293273809041106
0.32	-3.2800022581313	0.100479000325795	868.255892430614	5.40400706241905	64.5243388680441	0.634650175521304	-0.662518751242113	0.00326901395700596	0.00287948447870706
0.33	-3.24726892734736	0.127157300929171	868.152950363639	5.42150008480391	64.4653059041431	0.632626809751754	-0.662340943735198	0.00328973224491602	0.00281963221261489
0.34	-3.18837012588802	0.137094170904075	867.96026288887	5.43429305541753	64.3940623380748	0.63342940469049	-0.663570256606314	0.00330564214052009	0.00275340198605151
0.35	-3.10888948175018	0.135177811044195	867.719501450854	5.43513146592034	64.3163053499359	0.637370364008891	-0.666889943224494	0.00330808771708657	0.00268374296427765
0.36	-3.02382142420602	0.130023302099071	867.481503156375	5.41726308638429	64.2401274451675	0.643776702119093	-0.672332071060256	0.00328892473576081	0.0026155943609717
0.37	-2.95326901992558	0.131334394302698	867.293417548829	5.37631278125617	64.1737581568305	0.651242244520287	-0.679314048591105	0.00324276879601992	0.00255439060946511
0.38	-2.91672535021936	0.147103510933395	867.186802623056	5.31158827132912	64.1231310396171	0.658072357305172	-0.686845556171979	0.0031685838047496	0.00250427631087535
0.39	-2.9276272387622	0.181500131618019	867.170161144108	5.22639101370977	64.0900180802862	0.662780973296294	-0.693837637451318	0.00307009623161636	0.00246658773670771
0.4	-2.98964825383892	0.234027223443596	867.228088705058	5.12720349960018	64.0712918841332	0.664493647314815	-0.69941908172274	0.00295487088243296	0.00243906411930944
0.41	-3.09558314070053	0.300088146734055	867.327182042247	5.02197575629846	64.0595200651188	0.663147397253276	-0.703167061205441	0.00283230186366257	0.0024160165636623
0.42	-3.22890367485811	0.372665392163742	867.426778799427	4.91802345315744	64.0446923205692	0.659443619758569	-0.705187945349488	0.00271112012423924	0.00238939416719647
0.43	-3.36738079287902	0.444514669206091	867.491149800925	4.82017775911997	64.0165639349914	0.654583002970361	-0.706031025247768	0.00259717673725579	0.00235044352977631
0.44	-3.48774308901864	0.510199791085387	867.499422197402	4.72974543320457	63.9669644732325	0.649870175485477	-0.706468221791766	0.00249217064099261	0.00229152827070023
0.45	-3.57024003690514	0.567424462286911	867.450379160264	4.64457056305342	63.8914905483468	0.646306324797544	-0.70721181696436	0.0023936773941261	0.00220767911522801
0.46	-3.60215800418321	0.617379466409558	867.361038856907	4.56012666887382	63.7902282674296	0.644284920951187	-0.708658810249766	0.00229640672315468	0.00209755522598831
0.47	-3.57969184129248	0.664117389733257	867.259932975106	4.47123519391907	63.6674407756807	0.643472676367418	-0.710740552108623	0.00219421992832525	0.00196366008674276
0.48	-3.50798335408085	0.713207791958713	867.177580061981	4.37382091941544	63.5304116950903	0.642905303044846	-0.712923511605744	0.00208221326485736	0.00181181743433112
0.49	-3.399503972686	0.770067239900522	867.137272302572	4.2661417540678	63.3877911661505	0.641269370387449	-0.714361425760864	0.00195819890795124	0.00165004187040935
0.5	-3.27122823423446	0.838392646644974	867.148840399238	4.14915594472584	63.2478320181981	0.637291873221029	-0.714153955268819	0.00182317646769226	0.00148702649013305
0.51	-3.14120090661525	0.919069888160955	867.206812403352	4.02602347607817	63.1168552723074	0.630129827336348	-0.711635125024182	0.00168077955445534	0.00133052136040623
0.52	-3.02514898989994	1.00980837390963	867.292877925753	3.90104656416895	62.9981900000532	0.619650521237051	-0.706605086326634	0.00153604648637828	0.00118589587718421
0.53	-2.93374176926758	1.10558925588988	867.381356972827	3.77851479694865	62.891728153721	0.606520043502179	-0.699433693795636	0.00139405804370307	0.00105515973556336
0.54	-2.87096763293073	1.19983036860967	867.445794651174	3.66187672343729	62.7941360652557	0.592067760648637	-0.690999887002619	0.00125894015833516	0.000936651001832767
0.55	-2.83388708185576	1.28599091217205	867.46490895211	3.55344529724947	62.6996706179695	0.577955877951755	-0.682477364198415	0.00113348347581088	0.000825481486988744
0.56	-2.81375944809412	1.35920387352191	867.426713731814	3.45456793083582	62.601456542431	0.565740415764197	-0.675022260639153	0.00101931018460588	0.000714672565621577
0.57	-2.79826733109459	1.41748392593575	867.330406195313	3.36598457830949	62.492997500254	0.556446606373486	-0.669450388128846	0.000917274480911834	0.000596752211478868
0.58	-2.77433640065256	1.46214915733711	867.186243760885	3.28805232835638	62.3696345577969	0.550285190241393	-0.666000502773919	0.000827725778409061	0.000465461614821583
0.59	-2.73093040584931	1.49731113574016	867.013951122378	3.22064516408132	62.229652854045	0.546601502868487	-0.664261072342301	0.000750409715845279	0.000317177956791703
0.6	-2.66123126251368	1.52857094535483	866.840171911334	3.16277154446904	62.0747857387224	0.544082726930077	-0.663292948004795	0.000684050013561643	0.000151717873266233
0.61	-2.56378747898374	1.56131358878598	866.695239046691	3.11216960180213	61.9099749372	0.541168068065854	-0.661919760558086	0.000625905159983731	-2.76675210100774e-05
0.62	-2.44247825660321	1.59912544032787	866.60929397384	3.06522613711864	61.7423969101838	0.536537888536875	-0.6591003810733	0.000571695574627995	-0.000215099297795895
0.63	-2.30541317865597	1.64281661744021	866.607732773068	3.01746746659387	61.5799273508535	0.529526728249929	-0.654264804180211	0.000516186009966502	-0.000403480064970207
0.64	-2.16309058663448	1.69032491913264	866.706188564772	2.96462128622594	61.4293504966336	0.520326202909054	-0.647501506096663	0.000454422324356663	-0.00058616868563921
0.65	-2.0262297585842	1.73748550752037	866.905715878385	2.90395830928352	61.294695106141	0.509912300171918	-0.63953148686825	0.000383286835024865	-0.000758531330728618
0.66	-1.90367977238069	1.77937915478988	867.189326179189	2.83542698628575	61.1760749597538	0.499723735967672	-0.631476125432188	0.000302809945503912	-0.000919021481875781
0.67	-1.80073333851801	1.81181857635261	867.521270957689	2.76209421652155	61.069326537672	0.491200113356021	-0.624496403053154	0.000216673983845617	-0.00106955814034826
0.68	-1.71808297106883	1.83254184169301	867.850257561298	2.6896145941866	60.9665850913422	0.485331266818714	-0.619424113912621	0.000131586606248457	-0.00121512874208846
0.69	-1.65157247053907	1.84182976400421	868.117033125602	2.6247915988896	60.8577494723519	0.482359025237693	-0.616506279174088	5.55955988966739e-05	-0.00136270446144454
0.7	-1.59281220661528	1.8424734385436	868.265600093318	2.57362950053801	60.732588483251	0.481716490851799	-0.615343113695557	-4.19327040335205e-06	-0.00151969260910467
0.71	-1.53062232250794	1.83919980695492	868.256035807711	2.539471920386	60.5830730425238	0.482210323083131	-0.615033343735948	-4.38024326464559e-05	-0.00169224604555968
0.72	-1.45313399926302	1.83775916604951	868.075895281319	2.5218097815363	60.4054183408241	0.482376747935298	-0.614472364218901	-6.3791779356337e-05	-0.00188378975433712
0.73	-1.35022888166264	1.84388353286098	867.746892126736	2.51613072735633	60.2013274504995	0.480895562793104	-0.612701779618257	-6.94517995406541e-05	-0.0020940961843649
0.74	-1.21586637966121	1.86227830946982	867.324241779294	2.51485825249499	59.9780677346894	0.476939602836674	-0.609197728453426	-6.97166909330305e-05	-0.00231913436968834
0.75	-1.04978540188051	1.8957659746492	866.887698868547	2.50910728869689	59.7472743797009	0.470367241030307	-0.604011578353123	-7.51092694074584e-05	-0.00255174259600832
0.76	-0.858115877982962	1.94469307305615	866.525567263821	2.49076531189269	59.5227036212276	0.461718884220179	-0.59772922758435	-9.52875896946814e-05	-0.00278296940043199
0.77	-0.652619918265923	2.00673192990172	866.315156320995	2.45434951102464	59.3174546628253	0.452036723366091	-0.591275569697278	-0.000136837883102592	-0.00300375493500676
0.78	-0.448586911925442	2.07720996652268	866.30455116195	2.39818981290555	59.1413415072226	0.442573207804577	-0.585638354390335	-0.000201848884658129	-0.00320654469932508
0.79	-0.261766418954933	2.15002855246212	866.500590482217	2.32469649540605	58.9990604630759	0.434476389385733	-0.581605154775222	-0.00028756229867366	-0.00338646983360846
0.8	-0.105033058347727	2.21907058745524	866.866465665358	2.23971768189005	58.8895723774202	0.428535495194428	-0.579592625669084	-0.00038710536133324	-0.00354187462174482
0.81	0.014373212554669	2.27978460428993	867.329762058903	2.15120591224577	58.8067772686281	0.425041975064351	-0.579605318328975	-0.000491056228405506	-0.00367416457350822
0.82	0.0962758803023608	2.33047131473879	867.798865157513	2.06754578814363	58.7412186532605	0.423781057685264	-0.581309691316781	-0.000589429679314524	-0.00378711654055536
0.83	0.14723211934452	2.37279217081252	868.183387325054	1.9959288672074	58.6823228837192	0.424131472758038	-0.584169862692984	-0.000673622891180226	-0.00388588429034714
0.84	0.178503324010922	2.41121868964355	868.413353079228	1.94110832461749	58.6206134810653	0.425229339133042	-0.58758173674201	-0.000737919130052611	-0.00397593718618872
0.85	0.202884369971175	2.45149824442437	868.452550098592	1.90475276789238	58.5494345675165	0.42615118848836	-0.590963596428402	-0.00078027959673832	-0.00406211272887036
0.86	0.231300967890942	2.49859059385601	868.303389433274	1.88547903347687	58.4659117325334	0.426085234372825	-0.593799897171318	-0.000802321347078583	-0.00414788949605671
0.87	0.270164013271241	2.55476533666594	868.00309135573	1.87950614101501	58.3710945211345	0.424476921044681	-0.595667659549417	-0.000808546999873427	-0.00423492961235161
0.88	0.320239175773576	2.61853088277048	867.613187633808	1.88175722918672	58.2693985197992	0.421142927011164	-0.59628242187726	-0.000805033282288314	-0.00432290825324355
0.89	0.377312240043232	2.68478503435947	867.205597159228	1.88715757818149	58.1675664458611	0.416343750270441	-0.595579212935912	-0.00079788143660009	-0.00440962957518903
0.9	0.43435541183586	2.74614236384997	866.848704296506	1.89184569057051	58.0733986370507	0.410795552497381	-0.593806985739585	-0.000791769519324581	-0.00449140708527662
0.91	0.484416029313285	2.79497500924568	866.596166354026	1.89403785731024	57.9944839499203	0.405599166725485	-0.591585470762843	-0.000788917026268598	-0.00456365518533591
0.92	0.523221281028072	2.82546211986003	866.480026027542	1.89436366995353	57.9371149653869	0.402076823266159	-0.589870571713542	-0.00078867856660203	-0.00462160399197231
0.93	0.55060130966735	2.83496478781823	866.508515174287	1.89560766632067	57.9055127812768	0.401534031217415	-0.589802579688362	-0.000787841942383127	-0.00466102420702597
0.94	0.570245159891248	2.82430973660368	866.66796851191	1.90192629679669	57.901425304006	0.404993802825531	-0.59245809861289	-0.000781546575467029	-0.00467884299671506
0.95	0.587883033761683	2.79696885508494	866.927638140292	1.91772929387013	57.9241039601335	0.412967796141475	-0.598569543444874	-0.000764596919638372	-0.00467354939879028
0.96	0.608540995870873	2.75751182542128	867.245954052665	1.94649232899694	57.9706126534969	0.42532377320488	-0.608295536868693	-0.000732855257266185	-0.00464532651680333
0.97	0.63385404373328	2.70994660720992	867.576909388992	1.98978545546056	58.0363863473949	0.441281965208187	-0.621113591348365	-0.000684380000833595	-0.00459590047575065
0.98	0.660431388107813	2.65656738739062	867.875689570319	2.04675510894134	58.1159399995996	0.459536325740608	-0.635869919894404	-0.000620033298002975	-0.004528151424325
0.99	0.679933665273828	2.59770639770043	868.103239388078	2.1141960562032	58.2036310622126	0.478466266451384	-0.650976498828669	-0.000543402680710958	-0.00444557651277983
1	0.680951707937079	2.53242154462263	868.229929543324	2.18721421210329	58.2943921299151	0.496391309468081	-0.664709231338545	-0.000460040245452542	-0.004351718175089
1.01	0.652160542550155	2.45978419413525	868.238632312991	2.26033920079488	58.3843623087263	0.511825112398445	-0.675542004486079	-0.000376186492849206	-0.00424966954219563
1.02	0.585770663911986	2.3801998276554	868.127278355298	2.32882760360914	58.4713485401709	0.523696741226257	-0.682448601078893	-0.000297279128069539	-0.00414174566240788
1.03	0.480168249882781	2.29618643973218	867.910477116874	2.38983368536181	58.555045753242	0.531514427836498	-0.68511180993462	-0.000226616933963641	-0.00402937022431299
1.04	0.340875082828331	2.21225340812802	867.619332954416	2.44313653096102	58.6369539465087	0.535446396053447	-0.683992661684008	-0.000164531372699561	-0.00391317754700221
1.05	0.179490202917072	2.13388083874413	867.298497359004	2.4912080881813	58.7199691676473	0.536291630204931	-0.680233811358193	-0.000108307449694256	-0.00379327461632201
1.06	0.0109216715989658	2.06595423551157	866.999955416647	2.53857029174181	58.807697507545	0.535323260019721	-0.675403157069976	-5.29089755320067e-05	-0.00366955998820567
1.07	-0.150239323765947	2.01122146558485	866.774001117033	2.59058255620927	58.9036269995292	0.534016034445796	-0.671125440110464	7.65439943217761e-06	-0.0035419745323107
1.08	-0.293093094170092	1.96932831558731	866.659005663977	2.65196956685467	59.0103551006303	0.533711217780344	-0.668689986475289	7.86697786093749e-05	-0.00341058077137169
1.09	-0.412563565501716	1.93676919609527	866.672466834283	2.72549015833117	59.1290749775641	0.535308295152121	-0.668744232208532	0.000163225118005483	-0.00327543498784233
1.1	-0.509745450300385	1.90775919677924	866.806014654197	2.81112641106385	59.2594601658834	0.539081065367791	-0.671169710415133	0.000261300500303041	-0.00313630761670314
1.11	-0.59054239785074	1.87572755383217	867.026322309324	2.9060351647671	59.3999724303982	0.544684037525303	-0.675186440439764	0.000369716824449751	-0.00299238361666837
1.12	-0.663235916003507	1.83496012044267	867.28234344479	3.00528532643055	59.5484917665514	0.551350316833296	-0.679656696532855	0.000482965424783321	-0.0028420979690108
1.13	-0.735929153583313	1.78192101519111	867.51740344693	3.10316644871945	59.7030740837714	0.558208817233027	-0.683486612829321	0.000594674982451804	-0.00268321675067729
1.14	-0.814747000568741	1.71592979809127	867.683042144714	3.19467291329596	59.8626111674393	0.564598365856019	-0.68598328945947	0.00069926984904245	-0.00251317759094394
1.15	-0.903280535010404	1.63908508359485	867.750744519436	3.2767091584789	60.0272062819918	0.570253406023524	-0.687035432334326	0.000793309979344015	-0.00232959550942041
1.16	-1.00320963590401	1.55553065028216	867.718151988526	3.34865472063954	60.198172089753	0.575285692943387	-0.687047554668403	0.000876110181611711	-0.00213076709436538
1.17	-1.11555824840471	1.47030512087106	867.60794507116	3.41215003021996	60.3776743485965	0.579970946859238	-0.68665106269541	0.000949488104469487	-0.00191599808556203
