Time [s]	GRFml [N]	GRFap [N]	GRFv [N]	Mml [N.m]	Map [N.m]	Mv [N.m]	Mfree [N.m]	COPml [m]	COPap [m]
0.01	9.82439217401022	-2.06700175165532	715.015144438655	-46.8591478987998	-0.37137405649845	-1.25131020436183	-0.608499874716258	-3.18778934621558e-05	0.00494648463778817
0.02	10.1070379661071	-1.81179036252605	714.433383071122	-46.9004661878335	-0.46807678062018	-1.3398221164871	-0.677468467898292	-0.000169902256486146	0.00505167572719926
0.03	10.3828327028264	-1.56061032545765	713.864718091405	-46.9409198765322	-0.563569859380564	-1.42691062507763	-0.745357157846865	-0.000306038104838582	0.00515434339474934
0.04	10.6459064860903	-1.31752176017686	713.320598202497	-46.979759757487	-0.656319298399858	-1.51105447431835	-0.811061942129328	-0.000438119164853844	0.00525239121712658
0.05	10.8908516308577	-1.08633876375247	712.811543670875	-47.0162756665527	-0.744875973191096	-1.59081880056003	-0.873541523421613	-0.000564107558832253	0.0053438675061023
0.06	11.1129533596118	-0.870497642810131	712.346704963506	-47.0498228922431	-0.827921925288269	-1.66490539286613	-0.931849648316559	-0.000682158151913401	0.00542704157755158
0.07	11.3083818017862	-0.672940659138466	711.933498175146	-47.0798465886186	-0.904309426736415	-1.73219637830628	-0.985162982485055	-0.000790672340970238	0.00550047003921199
0.08	11.4743348748407	-0.496020365932174	711.577336705703	-47.1059030283996	-0.973091218537157	-1.79178937158336	-1.03280359859772	-0.000888339190101677	0.00556304981222542
0.09	11.6091250634445	-0.341428676149328	711.281471823779	-47.1276765894458	-1.03354093134529	-1.84302262784888	-1.07425543030544	-0.000974162652069505	0.00561405528893217
0.1	11.7122068865569	-0.210153651605556	711.04694736571	-47.1449914929583	-1.08516332765107	-1.88548930929298	-1.10917432377219	-0.00104747447375904	0.00565315785502718
0.11	11.7841456598144	-0.102465688513602	710.872666446385	-47.1578175084959	-1.12769461494752	-1.91904058265984	-1.13739158836702	-0.00110793320631197	0.00568042692435588
0.12	11.826531752889	-0.0179333720890025	710.755561225022	-47.1662691046067	-1.16109362560052	-1.94377786694159	-1.15891120387644	-0.00115551047489882	0.00569631260004928
0.13	11.8418476746475	0.0445321444868036	710.690850919909	-47.1705978434066	-1.18552510669525	-1.96003511046641	-1.17390107893929	-0.00119046626764072	0.00570161103421844
0.14	11.8332978081693	0.0866067369491961	710.672368739393	-47.1711781758119	-1.20133668830785	-1.96835246116472	-1.18267897101911	-0.00121331544857531	0.00569741445767312
0.15	11.8046123357551	0.110460605006665	710.6929354105	-47.1684871697609	-1.20903128962258	-1.96944307629925	-1.1856938680457	-0.00122478796935837	0.00568504864125297
0.16	11.7598377758043	0.118648013172518	710.74475563533	-47.1630790718674	-1.20923677899781	-1.96415507977143	-1.18350379010971	-0.00122578534526245	0.00566600118681633
0.17	11.7031265956213	0.113985000592584	710.819814061577	-47.1555559374041	-1.2026746369545	-1.95343080650402	-1.17675108872663	-0.00121733588221176	0.00564184449224583
0.18	11.6385376211979	0.099421069005408	710.910249080832	-47.146535838808	-1.19012919917338	-1.93826547355374	-1.16613639272145	-0.0012005509136494	0.00561415746510768
0.19	11.5698575407273	0.0779110287072609	711.008685739685	-47.136620356295	-1.17241880503786	-1.91966729422769	-1.15239236591264	-0.00117658395889293	0.00558445006054704
0.2	11.5004518354911	0.0522930286528909	711.1085129691	-47.1263631477242	-1.15036987439523	-1.89862081975624	-1.136258397288	-0.001146594284854	0.00555409449112017
0.21	11.4331511377687	0.0251783267415395	711.204094870512	-47.1162413771169	-1.12479460986501	-1.87605497427499	-1.11845723844941	-0.00111171588048583	0.00552426651411277
0.22	11.3701764900058	-0.00114240392228959	711.290910591603	-47.1066316486132	-1.09647270104979	-1.85281686857808	-1.09967444051879	-0.00107303237779532	0.00549589957326344
0.23	11.3131044398396	-0.0247724436805195	711.365622041311	-47.0977918499891	-1.06613711327444	-1.8296520643038	-1.08054123405146	-0.00103155801078879	0.00546965379597295
0.24	11.2628705141585	-0.0442594742136677	711.426073027745	-47.0898499705308	-1.03446379451033	-1.80719154127097	-1.06162125650073	-0.000988224323819512	0.00544590097221085
0.25	11.219807509725	-0.0586218177777273	711.47122710361	-47.0828005431868	-1.00206494136245	-1.78594522342927	-1.04340128155392	-0.000943872044297974	0.00542472572137453
0.26	11.1837133234081	-0.0673505212491703	711.50105428751	-47.0765088979969	-0.969485333647633	-1.76630156687392	-1.02628586351562	-0.00089924733271446	0.00540594214455092
0.27	11.1539417911531	-0.0703886298377303	711.516378786176	-47.0707229347348	-0.937201176665624	-1.74853242547508	-1.01059559683573	-0.000855001516837153	0.00538912441694625
0.28	11.1295092442326	-0.0680901565927865	711.518700837084	-47.0650916614087	-0.905620875401102	-1.73280219907469	-0.996568521320522	-0.000811693399650229	0.00537364904894246
0.29	11.1092092225664	-0.0611622144120196	711.510005857681	-47.0591893349855	-0.875087196573663	-1.71918014290377	-0.984364087810964	-0.000769793288269476	0.00535874597670406
0.3	11.0917279767312	-0.0505944818701489	711.492573321462	-47.052543711308	-0.845880341344063	-1.70765467566127	-0.974069041487085	-0.000729688005610411	0.00534355526627108
0.31	11.0757539877983	-0.0375805872244155	711.468796324017	-47.044666686546	-0.818221541302499	-1.69814856260745	-0.965704578893506	-0.000691686298051464	0.00532718604757927
0.32	11.0600756653156	-0.0234361032168446	711.441020827464	-47.035085508342	-0.792276891076462	-1.69053395916469	-0.959234183642094	-0.000656024221187215	0.00530877434145815
0.33	11.0436625659653	-0.00951765861260689	711.41141126844	-47.0233727569857	-0.768161231691071	-1.68464646613312	-0.954571634149684	-0.000622870254535367	0.00528753669301651
0.34	11.0257268211869	0.00285277782283799	711.381846772908	-47.0091734408595	-0.745941990779443	-1.68029755330558	-0.951588792116202	-0.000592330050420079	0.00526281695412719
0.35	11.0057628839214	0.0124550494701281	711.353849817534	-46.9922278012127	-0.725642962241906	-1.67728493616333	-0.950122909422368	-0.000564450851487793	0.00523412412843854
0.36	10.9835651191827	0.0182268242593069	711.328546966055	-46.9723887554102	-0.707248064769033	-1.67540072237516	-0.949983320939083	-0.000539225708327867	0.00520115985724966
0.37	10.9592240941563	0.0193067883341733	711.306659412342	-46.9496332950615	-0.690705153897245	-1.67443736382036	-0.950957510068418	-0.000516597689760691	0.00516383483082822
0.38	10.9331036045032	0.0150642491166235	711.288519566092	-46.9240675623774	-0.675929976195807	-1.67419164051826	-0.952816633407292	-0.000496464302837678	0.00512227410356839
0.39	10.9058014498937	0.0051152272492776	711.27410887075	-46.8959257211859	-0.662810348812634	-1.67446705263561	-0.955320663818069	-0.000478682329468285	0.00507681192293228
0.4	10.8780977024496	-0.0106741434049575	711.263111457419	-46.8655630879923	-0.651210626325049	-1.67507509655281	-0.958223352922316	-0.0004630732462057	0.00502797720981427
0.41	10.8508946705764	-0.0321955020284914	711.254978090617	-46.8334442690472	-0.640976483972828	-1.67583594560784	-0.961277222540798	-0.000449429329483005	0.00497647122189011
0.42	10.8251529372306	-0.0591156191002047	711.248995100238	-46.8001272454625	-0.631940006693959	-1.67657904460095	-0.964238770194017	-0.000437520468547774	0.00492313917549748
0.43	10.8018277517854	-0.0909011885668192	711.244353545737	-46.766244453106	-0.623925031803566	-1.67714406268501	-0.966874019105677	-0.000427101621664279	0.00486893769384922
0.44	10.7818096999613	-0.126848966858504	711.240214635923	-46.7324819197034	-0.616752654203466	-1.67738253923026	-0.968964463183573	-0.000417920767421891	0.00481489990164137
0.45	10.7658730031242	-0.166119272886358	711.235768337449	-46.6995574590875	-0.610246770598931	-1.67716041266808	-0.970313359386611	-0.000409727131308021	0.00476209982146298
0.46	10.7546340554796	-0.207771079341824	711.230283055865	-46.6681987992138	-0.604239516337667	-1.67636145722161	-0.97075221293026	-0.000402279415727328	0.0047116174770656
0.47	10.748521953471	-0.250797215521655	711.223145182857	-46.6391223579272	-0.598576437053421	-1.67489148290477	-0.970147195707981	-0.000395353734639054	0.00466450580805573
0.48	10.7477618692916	-0.294158523324441	711.213888105296	-46.6130132014851	-0.593121237890298	-1.67268299711129	-0.968405146729364	-0.000388750954084331	0.00462176018587845
0.49	10.7523712334457	-0.33681612257496	711.202210918723	-46.5905065472763	-0.587759964953058	-1.66969989778751	-0.965478736760111	-0.00038230316574376	0.00458429102478384
0.5	10.7621678787242	-0.377761218604322	711.187987554446	-46.5721710223314	-0.582404494737048	-1.66594168267289	-0.961370347802829	-0.000375879067602068	0.00455289973036756
0.51	10.7767886096849	-0.416042103338041	711.171267312117	-46.5584937762479	-0.576995234541091	-1.66144662681164	-0.956134229067538	-0.000369388086407242	0.00452825804063284
0.52	10.7957161349782	-0.450788151420875	711.152267905454	-46.5498674781338	-0.571502966504813	-1.65629340698493	-0.949876548371765	-0.00036278314194608	0.00451089069948468
0.53	10.81831195708	-0.481230696154821	711.131362110974	-46.546579202888	-0.565929796084635	-1.65060073666213	-0.942753060630521	-0.00035606201417739	0.00450116136000854
0.54	10.8438526621992	-0.506720696155761	711.1090590034	-46.5488012276236	-0.560309189194292	-1.64452471236948	-0.934964257499255	-0.000349267323380113	0.00449926163622607
0.55	10.8715670848847	-0.526743088869901	711.085980617319	-46.5565838046786	-0.554705098779287	-1.63825375039706	-0.926748033946344	-0.000342485165914384	0.00450520329181607
0.56	10.9006720174535	-0.540927690989049	711.062834742369	-46.5698500407349	-0.549210190863342	-1.63200119548804	-0.918370094413609	-0.000335842462903608	0.00451881365241549
0.57	10.9304044648982	-0.549056468307781	711.040384480962	-46.5883930779852	-0.543943183622766	-1.62599589174321	-0.910112506696557	-0.000329503079067284	0.00453973443224422
0.58	10.9600488766939	-0.551066976489145	711.019415202463	-46.611875829292	-0.539045314157988	-1.62047120066044	-0.902260978369142	-0.000323662760534637	0.004567424253979
0.59	10.9889582807157	-0.547051783386471	711.000699627741	-46.6398335528542	-0.534675950994171	-1.61565311325823	-0.895091562075551	-0.000318542932594984	0.00460116519376107
0.6	11.0165687644102	-0.537253731773682	710.984961965444	-46.6716795538495	-0.531007381064992	-1.61174821668333	-0.888857578522311	-0.000314383400536361	0.00464007368625382
0.61	11.0424072600169	-0.522056991834799	710.972842269802	-46.7067142649998	-0.528218822502136	-1.60893232899528	-0.883777569786962	-0.000311434017302303	0.00468311606883325
0.62	11.0660930635146	-0.501973983407805	710.964862456842	-46.7441378827191	-0.526489751730342	-1.60734060280376	-0.880025055976659	-0.000309945425915416	0.0047291289266893
0.63	11.0873339252996	-0.477628411632234	710.961395649537	-46.7830666214567	-0.525992685289705	-1.60705981893769	-0.877720766364658	-0.000310159053284995	0.0047768442254503
0.64	11.1059178737887	-0.449734844869477	710.962640668023	-46.8225525001117	-0.526885620479298	-1.60812345115424	-0.876927858663139	-0.000312296620843681	0.00482491899414373
0.65	11.1217021558905	-0.419075455721938	710.968603490146	-46.8616063976612	-0.529304408259662	-1.61050989325529	-0.877650438998108	-0.000316549537259985	0.00487196906279693
0.66	11.1346007907899	-0.38647472765928	710.979087345719	-46.89922391951	-0.533355398306114	-1.61414401638161	-0.879835466493532	-0.000323068636255752	0.00491660608328259
0.67	11.144572231559	-0.352773083455336	710.993692760572	-46.9344134128008	-0.539108749731216	-1.61890198504034	-0.883377888819016	-0.00033195480329112	0.00495747678911992
0.68	11.151608514509	-0.318800500635914	711.011828342782	-46.9662252712607	-0.546592831877366	-1.62461902503172	-0.888128628113572	-0.000343251083671606	0.00499330320115053
0.69	11.1557270568722	-0.285351229461278	711.03273243616	-46.9937814929306	-0.555790139308947	-1.63109962365727	-0.893904838847877	-0.000356936868947283	0.0050229222826891
0.7	11.1569659537218	-0.253160710925857	711.055505008502	-47.0163043131497	-0.566635108119758	-1.63812946890595	-0.900501706162274	-0.000372924710043649	0.00504532340998706
0.71	11.1553832455863	-0.222885701586696	711.079148362853	-47.0331426461685	-0.579014145095513	-1.64548831262047	-0.907704956618404	-0.000391060201728789	0.00505968196894591
0.72	11.1510602053286	-0.195088450520708	711.102614535323	-47.0437950460318	-0.592768069546025	-1.65296288134641	-0.915303219695963	-0.000411125227314826	0.00506538742989317
0.73	11.1441082575136	-0.170225549300087	711.124856648576	-47.0479279520531	-0.60769702631163	-1.66035896116775	-0.923099408945469	-0.000432844654453267	0.00506206439588542
0.74	11.1346787296519	-0.148641802268401	711.144881093292	-47.0453881225951	-0.623567767693366	-1.66751184798638	-0.930920382501661	-0.000455896347135576	0.00504958536618989
0.75	11.1229742771989	-0.130569160239932	711.161797261624	-47.0362083828656	-0.64012303458173	-1.67429447663036	-0.938624285206947	-0.000479924123770835	0.00502807429703927
0.76	11.1092605558799	-0.116130448389221	711.1748616858	-47.0206061105447	-0.657092606919576	-1.6806227113509	-0.94610515692969	-0.000504553066441985	0.00499790046003351
0.77	11.0938765638154	-0.105347323003293	711.183513843475	-46.9989742420947	-0.674205454837036	-1.68645748425324	-0.953294599487449	-0.000529406391856465	0.00495966257088742
0.78	11.0772420620467	-0.0981516365143495	711.187401552462	-46.9718649804226	-0.691202316962823	-1.69180369254192	-0.960160512434941	-0.000554122947689136	0.00491416365805168
0.79	11.0598606147796	-0.0943991982684924	711.186394735784	-46.9399667936193	-0.707847971612445	-1.69670599456895	-0.966703120307922	-0.00057837431279478	0.00486237762910184
0.8	11.042317066706	-0.0938848078116568	711.180587314145	-46.9040756842275	-0.72394245637328	-1.70124186274961	-0.972948706056033	-0.000601880465018628	0.00480540893910218
0.81	11.0252686774589	-0.0963574194879935	711.170287979265	-46.8650620482774	-0.739330534576656	-1.70551244332894	-0.978941624352256	-0.000624423039233333	0.00474444713811968
0.82	11.0094296330983	-0.101534375024285	711.156001512565	-46.8238347055476	-0.753908801480321	-1.70963192521028	-0.984735283589538	-0.00064585532802641	0.00468071834848905
0.83	10.995549211339	-0.109113808630487	711.138403036766	-46.7813038455077	-0.767629962690002	-1.71371622158106	-0.990382848958082	-0.000666108369719264	0.00461543587755679
0.84	10.9843844435946	-0.118784572176578	711.118308036454	-46.7383446838073	-0.780503992697309	-1.71787181126496	-0.995928426758735	-0.000685192709717929	0.00454975219881102
0.85	10.9766686426696	-0.130233323662581	711.096641097794	-46.6957635584221	-0.792596079720575	-1.72218556808446	-1.00139944156393	-0.000703195694308015	0.00448471443383158
0.86	10.9730776021142	-0.143148742307281	711.074406074724	-46.6542680192647	-0.804021469709046	-1.7267163271127	-1.00680081648784	-0.000720274441188	0.00442122524947283
0.87	10.9741955809002	-0.157223147171764	711.052659808628	-46.6144421963113	-0.814937522103335	-1.73148880230558	-1.01211142009269	-0.000736644907676483	0.00436001076792472
0.88	10.9804833353296	-0.172152072769515	711.032490673733	-46.576728392812	-0.825533467983941	-1.73649029079133	-1.01728306230576	-0.000752567725756039	0.00430159669731279
0.89	10.9922504330517	-0.187632567736744	711.015002192688	-46.5414154707728	-0.836018504579851	-1.74167038884823	-1.02224211995545	-0.000768331675295721	0.00424629345688024
0.9	11.0096338811686	-0.203361111027626	711.001300896122	-46.5086342063568	-0.846608958520456	-1.74694371961641	-1.0268936657745	-0.000784235808811232	0.00419419062416008
0.91	11.0325847360478	-0.219032072600916	710.99248663058	-46.4783594226703	-0.857515297008174	-1.75219545027168	-1.03112777913633	-0.000800571313344219	0.00414516060049892
0.92	11.060863864225	-0.234337580277539	710.989642791534	-46.4504183819125	-0.868929758571209	-1.75728917371418	-1.03482754771305	-0.000817604192904003	0.00409887099977655
0.93	11.094047429556	-0.248969499182115	710.993823590697	-46.4245046570041	-0.881015314639999	-1.76207656185112	-1.03787813976529	-0.000835559779142766	0.00405480493054574
0.94	11.131542036167	-0.262624001297992	711.006035538918	-46.4001965156827	-0.893896565183656	-1.76640807612269	-1.04017624654096	-0.000854609934392339	0.00401228807399585
0.95	11.1726088073941	-0.275008923037695	711.027210864561	-46.3769787406969	-0.907653024743368	-1.77014395372639	-1.04163916859497	-0.000874863610444733	0.00397052126181777
0.96	11.2163950749016	-0.285853805133167	711.058171560072	-46.3542667737526	-0.922315080774766	-1.7731646781196	-1.0422128493358	-0.000896361183074323	0.00392861712602667
0.97	11.2619718330467	-0.294922209453918	711.099584065001	-46.3314320980387	-0.937862717433202	-1.77538018834297	-1.04187823974746	-0.000919072713956209	0.00388563932008907
0.98	11.3083747186656	-0.302025637862519	711.151906109758	-46.3078278505028	-0.954226908845811	-1.776737177987	-1.04065550203621	-0.000942900018063866	0.0038406427888928
0.99	11.354646034915	-0.307038161359455	711.215328783116	-46.2828137650873	-0.971293410469244	-1.7772239725082	-1.038605715961	-0.000967682156392202	0.00379271358653816
1	11.3998752687269	-0.30991072043118	711.289718255917	-46.2557796769465	-0.988908528265522	-1.77687264221371	-1.03582992713281	-0.000993203750950551	0.00374100680020638
1.01	11.4432356625168	-0.310683989946912	711.374562610141	-46.2261669525001	-1.00688633413949	-1.77575819555293	-1.03246555843211	-0.00101920534929237	0.00368478123291923
1.02	11.4840146871775	-0.309498717384918	711.468929735364	-46.1934873414492	-1.02501673060253	-1.77399489111688	-1.02868038134303	-0.00104539496355863	0.00362342962776846
1.03	11.5216367072564	-0.306602538087462	711.571442163547	-46.1573388685681	-1.04307375269752	-1.77172989514546	-1.02466440238374	-0.00107145988301669	0.0035565033825156
1.04	11.555676700152	-0.302352436235457	711.680273982488	-46.1174184926166	-1.06082353155457	-1.76913468354215	-1.02062015193781	-0.00109707791178672	0.00348373090757019
1.05	11.5858645477601	-0.297212241373326	711.793173632706	-46.0735313573884	-1.07803142796681	-1.76639473385525	-1.01675196200423	-0.00112192731006669	0.00340502902177286
1.06	11.6120801115697	-0.291744810883496	711.907514553722	-46.0255965480782	-1.09446796827976	-1.76369816537503	-1.01325488136835	-0.00114569490569049	0.00332050705556805
1.07	11.6343399765199	-0.286598831139522	712.020373462569	-45.973649348221	-1.10991336712665	-1.76122405806782	-1.01030389931069	-0.00116808207490406	0.0032304636324799
1.08	11.6527773506461	-0.282490457217932	712.128633719279	-45.9178400718658	-1.12416058770227	-1.75913120902259	-1.00804413201915	-0.00118880854371601	0.00313537641544765
1.09	11.6676170870018	-0.280180288060783	712.229108980622	-45.8584296249709	-1.137017054337	-1.7575480660135	-1.00658257088338	-0.00120761420857015	0.00303588541875562
1.1	11.6791481110822	-0.280446428503392	712.318680381616	-45.7957820302172	-1.14830527803902	-1.75656451163875	-1.00598190195005	-0.00122425939222649	0.00293277078035203
1.11	11.6876956636996	-0.284054611856786	712.394439007798	-45.7303542295206	-1.15786276893113	-1.75622606088631	-1.00625678565869	-0.00123852411555713	0.00282692614327158
1.12	11.6935956945778	-0.291726539071862	712.453824580445	-45.6626835554079	-1.16554167876699	-1.75653088535282	-1.00737284172973	-0.00125020706193646	0.00271932898920709
1.13	11.6971734717068	-0.304107726553371	712.49475116547	-45.5933733312799	-1.17120863499976	-1.75742989702555	-1.00924842338992	-0.00125912492880507	0.0026110093851822
1.14	11.6987280284807	-0.321736238810738	712.515711361702	-45.5230771155507	-1.17474519336404	-1.75882992448712	-1.01175909698173	-0.00126511279975294	0.00250301863361429
1.15	11.6985234925084	-0.345013709253796	712.51585178412	-45.4524821397206	-1.17604925212515	-1.76059980768094	-1.01474457743082	-0.00126802603711092	0.00239639925116872
