Time [s]	GRFml [N]	GRFap [N]	GRFv [N]	Mml [N.m]	Map [N.m]	Mv [N.m]	Mfree [N.m]	COPml [m]	COPap [m]
0.01	1.31208034527958	2.37743936672704	780.652127562266	4.13179406307413	37.4169751716184	0.747404501701317	-0.854428831500425	-0.00356624419584683	-0.00091224286648306
0.02	1.04922801718656	2.46522517658719	780.717177630195	4.12960462454667	37.5494480612848	0.726149414060865	-0.839217057330191	-0.00357002421805341	-0.000743810846322357
0.03	0.764912324286538	2.54359578620187	780.757348016354	4.12215351756002	37.7051345528447	0.704234733336592	-0.823079354406203	-0.00358036079536272	-0.000543929967854795
0.04	0.446509862692466	2.60432082018706	780.751794685271	4.10666113482851	37.8989575394308	0.681675301852681	-0.805749551087333	-0.00360066826589633	-0.00029205766854995
0.05	0.089344348568213	2.6420658726383	780.690663407677	4.08347937382794	38.1380002448216	0.658745575881964	-0.787292148553325	-0.00363043777204264	2.15461487104718e-05
0.06	-0.302388094039757	2.65517921213177	780.578999025822	4.05607281346434	38.420904969754	0.635877577007475	-0.768031274983448	-0.00366528704137725	0.000394785057236779
0.07	-0.716911296725911	2.64579852750972	780.437405533829	4.02981028225976	38.7393575554904	0.613465260133811	-0.7483721393235	-0.0036985067922074	0.000815590240783481
0.08	-1.13820206311803	2.61929497665468	780.298470219018	4.01000348164517	39.0810718929181	0.591636330125215	-0.728573642675423	-0.00372354016900589	0.00126599664918858
0.09	-1.55055223311413	2.58320754783108	780.199042708509	3.99988736553535	39.4333058840402	0.570074471596741	-0.708554755503688	-0.00373650914285917	0.00172717971953118
0.1	-1.94303339332918	2.54590701038453	780.169993695132	3.99923181358145	39.785893011772	0.547972187360862	-0.687816054977021	-0.0037379184243107	0.00218403698252584
0.11	-2.3123899548063	2.51524973204451	780.226454352962	4.00403566498547	40.1330276774187	0.524167615200616	-0.665532366254425	-0.00373298105768138	0.00262813323033761
0.12	-2.66326083709396	2.49744582448757	780.36200620235	4.00738898273877	40.4734793587333	0.497470778738444	-0.640826408903463	-0.00373047931028236	0.00305835898653972
0.13	-3.00547467223772	2.49629591819035	780.549377913021	4.00122994926424	40.8093794354872	0.467122947616084	-0.6131741419058	-0.00374052720876505	0.00347931701945364
0.14	-3.34920469876429	2.51287044909402	780.748046611471	3.97847899572481	41.1440923455067	0.433271672491717	-0.582833930499646	-0.00377189754018936	0.00389806999857095
0.15	-3.69961270347562	2.5456301816785	780.916522757813	3.93496195029084	41.479869029237	0.397305224662492	-0.551153799805722	-0.00382964859781876	0.00432029748401092
0.16	-4.05290498984429	2.59092066334856	781.025133740248	3.87063404349417	41.815966471139	0.361896080626175	-0.520614773623302	-0.0039136449611461	0.00474702322079912
0.17	-4.39531224910686	2.64371545128956	781.064721845568	3.78983787648172	42.1477336068863	0.330666067273692	-0.494525363179432	-0.00401828197138077	0.00517286336050926
0.18	-4.70550809192098	2.6984394373723	781.048088878774	3.70059534077973	42.4668724117289	0.307497297655939	-0.476385463163126	-0.00413339347224995	0.00558627524110533
0.19	-4.95975793308833	2.74969293879052	781.003717294766	3.61316840278371	42.7627592993457	0.295640373525104	-0.469057693532961	-0.00424604181044508	0.00597168818503935
0.2	-5.1381071145718	2.79273963628282	780.964200349918	3.53826863768717	43.0244345216964	0.296866440736601	-0.473976184167659	-0.00434272414555503	0.0063128457094887
0.21	-5.22955793777528	2.82371699612331	780.953778032449	3.48532641729636	43.2427047206071	0.310928686631487	-0.490645056744329	-0.00441150221325948	0.0065963477813788
0.22	-5.2345863049437	2.83964247467254	780.979655235231	3.46116014899216	43.4117976250221	0.335523622909358	-0.516612053391163	-0.00444365289336812	0.00681435593602236
0.23	-5.16433807794829	2.83836553046259	781.030291939831	3.46925211485716	43.5301562600726	0.366792495251721	-0.547962293975756	-0.00443459551054792	0.0069657164427237
0.24	-5.03701711335578	2.81860784162759	781.081182884541	3.50968588306751	43.6002144853194	0.400230471700787	-0.580210357730122	-0.00438402534878712	0.00705526573999121
0.25	-4.8728713711914	2.78014024439716	781.105793044222	3.5796669806633	43.6272771366969	0.431739790973163	-0.609337111499797	-0.00429533304667395	0.00709163810524133
0.26	-4.68948538371896	2.7240155894919	781.087345664644	3.67445191827669	43.6178554835099	0.458521654058332	-0.632670861438138	-0.00417450041170631	0.00708432151170152
0.27	-4.49874752066017	2.652688616409	781.026804364764	3.78845477622316	43.5779261049284	0.47956362137711	-0.649367674358716	-0.00402873428854189	0.0070408816453103
0.28	-4.3060887114205	2.56986341492706	780.943790265302	3.9162850778933	43.5115707391569	0.495617687567875	-0.660380339491807	-0.00386513206288641	0.00696516340550613
0.29	-4.11173558152959	2.48001646166121	780.86982185876	4.053498674242	43.4203330349767	0.508724946420865	-0.667967263488283	-0.00368965695973911	0.00685694048459046
0.3	-3.9131139084203	2.38769160654127	780.836184952766	4.19691939246306	43.303434368957	0.521468500570101	-0.674923035268919	-0.00350662545082125	0.00671303404090745
0.31	-3.70735844677175	2.29677305684719	780.860849840314	4.34450804955719	43.1587732597116	0.536189260322771	-0.683770433207389	-0.00331877184028073	0.00652949775390349
0.32	-3.49312007663442	2.20995872106414	780.939365614409	4.49489118658831	42.9844404013672	0.554372948852114	-0.696129699352002	-0.00312778418544291	0.0063041857179863
0.33	-3.27134396227765	2.12857872652189	781.043376124065	4.64676923776582	42.7803567898095	0.576332993708923	-0.71239598503466	-0.00293505778070591	0.00603895011390443
0.34	-3.0451898618109	2.05277891434027	781.127770235115	4.79845598790125	42.5496140628538	0.601210859664634	-0.731748917832646	-0.00274235064942918	0.00574086182721245
0.35	-2.81957352972475	1.98197498008879	781.144430994021	4.94773609233045	42.2991688104298	0.627230285570725	-0.752428677591121	-0.00255208476970692	0.00542215057458056
0.36	-2.60082098665626	1.91541564548973	781.058156409586	5.09208604170052	42.0396942718832	0.652098459874139	-0.772165732354597	-0.00236719845273747	0.00509891929106582
0.37	-2.3966700266774	1.85267704992436	780.859431090132	5.22914600965936	41.7845817951772	0.673448254142547	-0.78864974633439	-0.00219064971111604	0.00478898925522209
0.38	-2.21646766853756	1.79393358777743	780.569657453521	5.35722724605626	41.5482642993227	0.689245366133343	-0.799951600112231	-0.00202480896751878	0.00450939670071476
0.39	-2.07110204219091	1.73990508075997	780.236901685518	5.4756393217549	41.3441688619184	0.698118312090482	-0.804847637244912	-0.00187099986532335	0.00427406469484087
0.4	-1.97215193794024	1.69146741379199	779.923337832753	5.58472061148252	41.1826771420069	0.699588627049783	-0.803019384724413	-0.00172934679938186	0.00409205084326386
0.41	-1.93000550542495	1.64902851550992	779.68830888127	5.68560110407369	41.0694769408763	0.694179539655095	-0.795111355507535	-0.00159892582745857	0.003966591314847
0.42	-1.95120250619137	1.61188564840275	779.5723330906	5.77984393281548	41.0046288644103	0.683375649199291	-0.782633741545638	-0.00147807941136524	0.00389499210816624
0.43	-2.0357698211147	1.57784198651843	779.587005941947	5.86914403106701	40.9825535089116	0.669412132165428	-0.767709808512652	-0.00136471269715643	0.00386929561278432
0.44	-2.17558459797904	1.54331886422173	779.713747926619	5.95520036046646	40.9929752737721	0.654901417919695	-0.752696622308885	-0.00125645104578898	0.00387757212300105
0.45	-2.35463453147005	1.50403837236213	779.911438447397	6.03976394435776	41.0226587275981	0.642353851636411	-0.739746015312018	-0.00115065736998199	0.00390562763525087
0.46	-2.55145473839656	1.45611300773539	780.130146236458	6.1247632538909	41.0575808691519	0.633696842094646	-0.730403168566326	-0.00104440838279274	0.00393886256004089
0.47	-2.74321478440388	1.3971640261209	780.326337259814	6.2123728891442	41.0850526246567	0.629919124694705	-0.725344552376453	-0.000934554778513452	0.0039639697445622
0.48	-2.91024448610025	1.32701099622605	780.474667194472	6.30493143817137	41.0952911889439	0.630946232756872	-0.72432701008411	-0.000817935220388755	0.0039701599781285
0.49	-3.03953797143734	1.24759696719071	780.572782961765	6.40469895780488	41.0820813385999	0.635791442412129	-0.726362707965095	-0.000691719228728793	0.00394968702859672
0.5	-3.12610220418738	1.16210785166886	780.637997060294	6.51352452386622	41.0424287157644	0.642943260416802	-0.730069916193813	-0.000553778452418774	0.00389761989835324
0.51	-3.17180712487478	1.0735904820423	780.69744554919	6.63253182186556	40.9754255196002	0.65087564885679	-0.734099494014894	-0.000402968897108114	0.00381103532670701
0.52	-3.1823285921744	0.983613644380085	780.775492558461	6.76191662777342	40.8808085299178	0.658527499152982	-0.737517494501382	-0.000239249211219761	0.00368799640079881
0.53	-3.1634655558869	0.891534006579518	780.882991765012	6.90090164214519	40.7577884066943	0.665607301334308	-0.740040187955704	-6.36307101554712e-05	0.00352675734701158
0.54	-3.11827994185133	0.794707630704014	781.01227109392	7.04783969318081	40.6046185079168	0.672634360841116	-0.742062792541589	0.000121986488418768	0.00332554380965172
0.55	-3.04609825483914	0.68961770662577	781.139607867507	7.20041822154445	40.4190809778252	0.680711230076527	-0.74448356998428	0.000315015552767139	0.00308302322758791
0.56	-2.94361433499424	0.573522984401219	781.234209062464	7.35590457830496	40.199700491331	0.691106675565448	-0.748383695052929	0.000512365012450777	0.00279928671693808
0.57	-2.80747966007866	0.446015614175825	781.270261208153	7.51137892624276	39.9471906294585	0.704787627074493	-0.754664033714899	0.000710580944527583	0.00247692866032789
0.58	-2.63720184674077	0.309892338331475	781.237371037877	7.66391961566548	39.665515672509	0.722052948528929	-0.763750483811724	0.000905964744289167	0.00212173168340141
0.59	-2.43710063809714	0.170978199805458	781.145212873763	7.81072583911489	39.362066610996	0.742386078987986	-0.775455486078949	0.00109469689056119	0.00174258113751691
0.6	-2.21649270827162	0.0369074084722293	781.020356104543	7.94917978122881	39.0467686698308	0.764568532913725	-0.789030865777666	0.00127298830151235	0.00135050504630518
0.61	-1.98799830443434	-0.0847675578432742	780.896337410919	8.07686555640089	38.7303424947691	0.787006886084746	-0.803382885573784	0.00143725905093206	0.000957060435375412
0.62	-1.76458864616631	-0.188523684178456	780.800892850865	8.19157602217133	38.4222776131168	0.808153598053993	-0.817366798957155	0.00158432634609273	0.000572540088990048
0.63	-1.55644885941397	-0.272217373890729	780.745682172509	8.29134820304154	38.1292098777166	0.826873515780045	-0.830055534325353	0.00171158114095304	0.000204555526564065
0.64	-1.36876554619618	-0.337364483774514	780.723111350563	8.37456558164705	37.8542626320328	0.842634466460217	-0.840894632244373	0.0018171435544273	-0.000142573719329631
0.65	-1.20117564097177	-0.388230219633134	780.712114482787	8.44014283872523	37.5975537691212	0.85547231777475	-0.849706452222046	0.00189999812187003	-0.000467485563320991
0.66	-1.04899364004353	-0.430017161275799	780.690982572718	8.48776584170886	37.3576185405574	0.865770179518809	-0.856570001503268	0.0019601068657944	-0.000770706519612308
0.67	-0.905703478713814	-0.466763301322184	780.65203344696	8.51811020329967	37.1331267280164	0.873962088538491	-0.861651684940061	0.00199847793704055	-0.00105333478978331
0.68	-0.765784158513381	-0.499679806189558	780.611533240602	8.53292943657154	36.9241361629948	0.880294478269672	-0.86507568945731	0.00201714192001912	-0.00131605157194059
0.69	-0.626871629744374	-0.526519061867978	780.609544430772	8.53491201853477	36.732290908077	0.88474458972206	-0.866894884462013	0.00201897772952864	-0.00155889785480284
0.7	-0.490548615946658	-0.54221127690516	780.697982377606	8.52726457130354	36.5597920290354	0.887118897564692	-0.867167029834465	0.00200735224027582	-0.00178193022815121
0.71	-0.361575647285004	-0.540567293322696	780.919832209099	8.51307165822031	36.4074872119124	0.887270275830419	-0.866083115617357	0.00198559261778652	-0.00198648165700399
0.72	-0.245928385753153	-0.516474014670995	781.286437045704	8.49457637132018	36.2728396092123	0.885317396077511	-0.864062608552889	0.00195637763396916	-0.00217645592350019
0.73	-0.148387186248964	-0.467837223628261	781.761441020646	8.47257870959528	36.1486747057112	0.881747984611354	-0.861740310514335	0.00192118243604589	-0.00235900442304837
0.74	-0.0705130852701494	-0.396610480165569	782.258591708829	8.44613324621015	36.0233974066552	0.877339378848719	-0.859817976480089	0.00187991436363377	-0.00254411618246797
0.75	-0.00964115419072803	-0.308554045582737	782.656510849691	8.41264511613514	35.8828844115979	0.872912077234128	-0.858819335300379	0.00183083084346503	-0.00274303543427729
0.76	0.0408610329161781	-0.211787184092527	782.828031967055	8.36834556329827	35.713664335313	0.869008762800925	-0.858840131529426	0.00177075509229674	-0.00296585981743036
0.77	0.0902241281070711	-0.114590762845907	782.676579572805	8.30902283533342	35.5065163053135	0.865629907924364	-0.859400881742609	0.00169553687010326	-0.00321899537819736
0.78	0.148237025451838	-0.0231587194182305	782.169020823052	8.23083124064472	35.2594191007797	0.862141700229877	-0.859480654268488	0.00160067276959308	-0.00350322932699315
0.79	0.223085824398972	0.0599876005431805	781.354517330803	8.13101290237175	34.9789318263512	0.857409420437333	-0.85774606025874	0.00148200699361645	-0.00381300415970887
0.8	0.31957257296208	0.136421947482888	780.362265714027	8.00842267736219	34.6795245768683	0.850124993374543	-0.852916005707322	0.00133645465394139	-0.00413711603981964
0.81	0.438068115541329	0.210948081177471	779.376791344651	7.86380859252037	34.3809541308106	0.839224169337223	-0.844148639473769	0.00116269082071874	-0.00446065481011376
0.82	0.574370490446931	0.289743284590378	778.596040576185	7.69983736908226	34.1043162832948	0.824253891428896	-0.831323396697829	0.00096171364577613	-0.00476768753455342
0.83	0.72045965060837	0.378136940077239	778.182945775669	7.52086328772762	33.8677533855088	0.805565547987701	-0.815123138103193	0.000737138885010591	-0.00504404256155444
0.84	0.865978565479848	0.478777296864546	778.223666004845	7.33244149182181	33.6828707893071	0.784268056163066	-0.796886892646875	0.000495064803279432	-0.00527958608676116
0.85	1.00014190035381	0.590809662983555	778.70436849443	7.14061356656885	33.5527154884771	0.761954394652168	-0.778278540993812	0.000243406893716269	-0.00546955334038374
0.86	1.11369341846395	0.710335200166896	779.513431744153	6.95105512439465	33.4717590893993	0.740288471294637	-0.760874533142498	-9.2514304969038e-06	-0.00561473626190184
0.87	1.20052177773841	0.831957629737044	780.468754833618	6.76825113218174	33.4278165496583	0.720581949748425	-0.745795446199616	-0.000255060456997969	-0.00572058010337834
0.88	1.25861229044698	0.950821496469713	781.362677079069	6.59490980982381	33.4053522985161	0.703490190922226	-0.73348659594091	-0.000488187326936451	-0.00579546071507592
0.89	1.2901505250124	1.06435600175196	782.012110955625	6.43179787866163	33.3892970244651	0.688914829368626	-0.723701154620262	-0.000705596782440865	-0.00584857159025265
0.9	1.3007724550068	1.17304485114441	782.300370247954	6.27806812940739	33.3684042894713	0.676132653433829	-0.715674221299548	-0.00090708605508738	-0.00588791850625425
0.91	1.29813402306573	1.27991425019887	782.20006367663	6.13198823943321	33.3373386294257	0.664098569365567	-0.708419262516648	-0.00109458000220797	-0.00591887953421244
0.92	1.29011229545652	1.38893023799574	781.772252485741	5.99183308373357	33.2970591088974	0.651816813363909	-0.701045848194893	-0.00127095130253663	-0.00594363710270496
0.93	1.2830260035924	1.50292969627285	781.1439084952	5.85663824943963	33.2535388828351	0.638655536960526	-0.692997591934974	-0.00143878908663952	-0.00596155433096796
0.94	1.28026556161233	1.62190440630832	780.471456480254	5.72656457551131	33.2153069287279	0.624501711765247	-0.684140319933976	-0.00159953064421281	-0.0059703085817045
0.95	1.28165218810436	1.74233284986596	779.901243284688	5.60277550989232	33.1905869917435	0.609710363657167	-0.674683343179091	-0.00175320132814227	-0.00596738678168063
0.96	1.28370819051711	1.85785428177841	779.537490673592	5.48691818211894	33.1848620221342	0.594877223377733	-0.664975754898111	-0.00189875444262921	-0.00595145744197634
0.97	1.28082744631459	1.96106027348183	779.425053928923	5.3804446302088	33.199502220689	0.580531481752053	-0.655266040798722	-0.00203477686770681	-0.0059231971632604
0.98	1.26711173779313	2.04574871325037	779.549352510214	5.28405041215731	33.2317283041971	0.56687916529377	-0.645529565053631	-0.0021602208295175	-0.00588534693859144
0.99	1.23843066007162	2.10881824311565	779.850786033563	5.19743091271623	33.2757606451818	0.553711050457569	-0.635445410249514	-0.00227487106944879	-0.00584203792764604
1	1.19413425300588	2.15114135077871	780.247298414658	5.11940176966153	33.3246664352197	0.540524114420988	-0.624546270238009	-0.00237942112230571	-0.00579766291920591
1.01	1.13786262674467	2.17716711752582	780.657442627048	5.04827271506581	33.3722652889089	0.526815353491489	-0.612492252854888	-0.00247522494675567	-0.00575569473215565
1.02	1.07709104371845	2.19349108660689	781.01746390001	4.98227431513639	33.4145233490152	0.512427891353249	-0.599360212777238	-0.00256391948220236	-0.00571782872958126
1.03	1.02139987738924	2.20698877442588	781.288915313889	4.91984892077997	33.4501116670792	0.497796444121136	-0.585820855324467	-0.00264712839933479	-0.00568367624879101
1.04	0.979874683227803	2.2232061790118	781.456980803238	4.85971505679111	33.4801229578025	0.483969596690123	-0.573108171310683	-0.00272636613956567	-0.00565102830426101
1.05	0.958379233412443	2.24551964448532	781.522729765617	4.80074437860745	33.5072139261984	0.472370731377428	-0.56276060480719	-0.00280312240797809	-0.00561652584916589
1.06	0.957560145448962	2.2752182293511	781.494001944056	4.74178780131314	33.534581242056	0.464364952988174	-0.556202895614592	-0.0028789952252678	-0.00557647289139646
1.07	0.972257925475919	2.31228522306845	781.379174897647	4.68160769700736	33.5651588956542	0.460782927953087	-0.554306088016755	-0.00295571041992737	-0.00552752968095688
1.08	0.992554055949467	2.35641067074296	781.186054738963	4.61900954818571	33.6012732137121	0.461579126292086	-0.557081886746208	-0.00303492907946623	-0.00546710563584302
1.09	1.00613280329987	2.4077338375927	780.925451662147	4.55315156370861	33.6447781120971	0.465759303136988	-0.563626710798487	-0.0031178684140114	-0.00539339675733352
1.1	1.00119516071188	2.46698477503447	780.61674785594	4.48390052054484	33.6974956425025	0.47161613803402	-0.57234478013678	-0.00320488337388614	-0.00530514005884025
1.11	0.969011051734943	2.53498587571343	780.291810835292	4.41205084107984	33.7616681810397	0.477200349883023	-0.581381384884015	-0.00329521390408538	-0.00520125654184722
1.12	0.905393796552258	2.61176895313646	779.994277386446	4.33925957693996	33.8401212382284	0.480870890352061	-0.589125250655723	-0.00338706263992372	-0.00508060137908184
1.13	0.810835227685708	2.69574632730009	779.773198922131	4.26766059185835	33.935939146157	0.481743543529408	-0.594619807477683	-0.00347804229132465	-0.00494201782704351
1.14	0.689548531851176	2.78337232295809	779.672455202146	4.1992595624459	34.0516392148914	0.479899456125347	-0.597762280570051	-0.00356587410892906	-0.0047847922929295
1.15	0.548012204182996	2.86954007022647	779.719216178704	4.13531619309626	34.1880389945226	0.476304445671995	-0.599248597220372	-0.00364909884681985	-0.00460944600189994
1.16	0.393660576844504	2.94864989625856	779.915327841742	4.0759441798071	34.3431778444708	0.472489658269358	-0.600308284403344	-0.00372753416844962	-0.00441861995506238
1.17	0.234132206900306	3.01598759202763	780.23462980213	4.02009146194561	34.5117130812828	0.470115928525507	-0.602333865593465	-0.00380229135207022	-0.00421768666864236
