Time [s]	GRFml [N]	GRFap [N]	GRFv [N]	Mml [N.m]	Map [N.m]	Mv [N.m]	Mfree [N.m]	COPml [m]	COPap [m]
0.01	13.9429118910268	4.42646349037791	722.493207936516	-58.3083522740676	8.04984707162621	-1.96851718848789	-0.892565618020791	-0.00255994366966636	0.0190732580083504
0.02	13.3423856399965	4.42788183728924	724.096388963328	-58.3084782095463	8.3172254468287	-2.09213046456602	-1.06851560715175	-0.00221127743212563	0.0188989620318686
0.03	12.7521797012824	4.42781768269958	725.677486051256	-58.3061629502557	8.58292673087894	-2.21374226669646	-1.24139623145773	-0.00186614803314634	0.0187244785708855
0.04	12.181964111619	4.42426972520921	727.206475632474	-58.2968288331317	8.84520600617371	-2.33105621724982	-1.40814424260949	-0.00152640620613883	0.0185467324320119
0.05	11.6406144351512	4.4151652119072	728.652490147739	-58.2754971651546	9.10259971140722	-2.44187169555359	-1.5658601445069	-0.00119346100242995	0.0183621437750011
0.06	11.1358805242291	4.39844545957894	729.98468311741	-58.236970517799	9.35394209694552	-2.54416014513385	-1.71190951711087	-0.000868274352917656	0.0181667879771976
0.07	10.6741150059741	4.37214916372078	731.173237920711	-58.1760348819095	9.59837034321471	-2.6361339038777	-1.84401286795504	-0.000551372168746607	0.0179565673824717
0.08	10.2600749876296	4.33448924049938	732.190490446717	-58.0876734957847	9.83531913180195	-2.71630459933464	-1.96031981757782	-0.000242871064789233	0.0177273872594783
0.09	9.89680577255913	4.28391951865284	733.012115856263	-57.9672829822201	10.0645055365627	-2.78352871733908	-2.05946422968913	5.74802456207672e-05	0.0174753292478534
0.1	9.58561023420173	4.21918835440111	733.618313147585	-57.810881642813	10.285905192378	-2.83703863942775	-2.14059793448147	0.00035024604468315	0.0171968164294126
0.11	9.32610228719751	4.13937712973186	733.99491024224	-57.6152994826601	10.499720824605	-2.87645821098842	-2.20340189718846	0.000636236759962923	0.016888764822587
0.12	9.11633798936623	4.04392255324069	734.134308319436	-57.3783398614506	10.7063443851034	-2.90180269845371	-2.24807496576913	0.000916432320919361	0.0165487165620341
0.13	8.95301352897125	3.93262265070791	734.036187721458	-57.0989036262946	10.9063142288446	-2.91346376891561	-2.27530159278116	0.00119189857207966	0.016174950367118
0.14	8.83171595740628	3.80562724932034	733.707908719055	-56.7770681629074	11.1002689571407	-2.91218083092615	-2.28620106889493	0.00146370031724829	0.0157665652405297
0.15	8.74721019637327	3.66341457056605	733.164557824917	-56.4141159369095	11.2888997235839	-2.89900066963859	-2.28226174193998	0.00173281521236543	0.0153235337985816
0.16	8.69374467133084	3.50675620779672	732.428612644116	-56.0125096690883	11.4729029206299	-2.87522776166798	-2.26526435875366	0.0020000531764736	0.0148467223260477
0.17	8.66535790275422	3.33667324319674	731.529223504858	-55.5758141408725	11.6529352150941	-2.84236794605176	-2.23719901687888	0.00226598615019754	0.014337875641325
0.18	8.65616944684963	3.1543865373992	730.50113615874	-55.1085675754443	11.8295728617764	-2.8020682511918	-2.20018023880868	0.00253089282106709	0.0137995661736885
0.19	8.66064057388937	2.96126429967076	729.383304509437	-54.6161083902911	12.0032770853483	-2.75605563963941	-2.15636440248816	0.00279472231090693	0.0132351082622316
0.2	8.67379281065773	2.75876992760664	728.217263644803	-54.1043656767263	12.1743670790757	-2.70607724975267	-2.10787322425451	0.00305707978226835	0.0126484405035622
0.21	8.6913757267574	2.54841281479987	727.045349788956	-53.5796238579556	12.3430018310996	-2.65384441074801	-2.05672626065551	0.00331723551879492	0.0120439808761059
0.22	8.7099788722905	2.33170439464117	725.908864015879	-53.0482734686025	12.509171569329	-2.60098231630125	-2.00478455173913	0.0035741573706371	0.0114264611934078
0.23	8.72708634012955	2.11012115636831	724.846280080825	-52.5165607865272	12.6726991363725	-2.54898679518604	-1.95370665092912	0.0038265646789017	0.0108007490098397
0.24	8.74107581196385	1.88507577698054	723.891593500382	-51.9903490825602	12.8332510940257	-2.49918914894945	-1.90491744933147	0.0040730000831661	0.0101716662440442
0.25	8.75116696665352	1.6578969009298	723.072899542203	-51.4749035374822	12.9903578440979	-2.45272956719324	-1.85958946506467	0.00431191416387184	0.00954381434670141
0.26	8.7573266343491	1.42981750714599	722.411273011378	-50.9747104607418	13.1434415716056	-2.41053920689796	-1.81863567194541	0.00454175684973686	0.00892141571472539
0.27	8.76013996639041	1.20197126373426	721.920003913293	-50.4933394300777	13.2918503991339	-2.37333065356568	-1.78271250700639	0.00476106905549975	0.00830818020413619
0.28	8.76065810054219	0.975395812318105	721.604221703236	-50.033354490875	13.4348968152121	-2.34159618208637	-1.75223142404908	0.00496856816372996	0.00770720405576492
0.29	8.76023331896416	0.751041567522554	721.460918436934	-49.5962777711242	13.5718982265554	-2.31561301052668	-1.72737723644669	0.0051632217004137	0.00712090643594393
0.3	8.76035254808615	0.529784376687426	721.479359190703	-49.182605959478	13.7022173978617	-2.29545459043743	-1.70813149220016	0.00534430477271513	0.00655100628820656
0.31	8.76247929587076	0.312440268009345	721.641847939823	-48.7918772396375	13.8253005885043	-2.28100689730547	-1.69429921865254	0.00551143837290407	0.00599853951464097
0.32	8.76791285178506	0.0997805227482176	721.924799745785	-48.4227836436071	13.9407113686697	-2.27198866491183	-1.68553753431188	0.00566460730777774	0.00546391389378456
0.33	8.77767189817333	-0.107454566834879	722.300056399949	-48.0733215277187	14.0481583851816	-2.26797453555185	-1.68138482549912	0.00580415809366457	0.00494699681646803
0.34	8.79240772197416	-0.308544659706054	722.736373095591	-47.7409711070591	14.1475157286582	-2.26842016126609	-1.68128940577989	0.00593077850274662	0.00444722906039373
0.35	8.8123501020096	-0.502782133874279	723.200998453192	-47.4228947877484	14.238835001954	-2.27268837673292	-1.68463680135107	0.00604546145147237	0.00396375654763146
0.36	8.8372868073161	-0.689469360538116	723.661269242813	-47.1161434539029	14.3223486743465	-2.2800756610824	-1.69077502498924	0.00614945654391054	0.00349557138942137
0.37	8.86657559661161	-0.867920764503434	724.086144146778	-46.817859897905	14.3984647943709	-2.28983820469502	-1.6990374069472	0.0062442128381115	0.00304165350895208
0.38	8.89918576554003	-1.03746952439568	724.447607424307	-46.5254691915459	14.4677535952071	-2.30121699185044	-1.70876273705089	0.0063313163520036	0.00260110468122194
0.39	8.93376473698505	-1.19747836491136	724.721882787359	-46.2368469115698	14.5309269318719	-2.31346139745587	-1.71931263284277	0.00641242555195625	0.00217326783729704
0.4	8.96872399979594	-1.34735354581722	724.890409501525	-45.9504576604192	14.588811816159	-2.32585087503784	-1.73008617936905	0.00648920766229876	0.00175782582337181
0.41	9.00233791859859	-1.48656088279121	724.940545973236	-45.6654581488279	14.642319547017	-2.3377143846518	-1.74053198373933	0.00656327817810819	0.00135487535060574
0.42	9.03284858307	-1.61464246136724	724.865980154669	-45.3817611106472	14.6924120623359	-2.34844727547413	-1.75015785037353	0.00663614551663986	0.000964973492389234
0.43	9.05856993530235	-1.73123263747257	724.66684029461	-45.1000583819975	14.7400671624134	-2.35752540116407	-1.75853831181331	0.00670916234076426	0.000589155668716437
0.44	9.07798488110147	-1.83607195855485	724.349513242217	-44.821803484996	14.7862441829194	-2.36451630896866	-1.76532024874817	0.0067834847431899	0.000228925511163061
0.45	9.0898299062927	-1.92901778256905	723.92619009857	-44.549155913951	14.8318515398739	-2.3690874075713	-1.77022680761678	0.00686004018669134	-0.000113781739942989
0.46	9.09316281536734	-2.01005060584469	723.414170027356	-44.2848909508337	14.8777173501079	-2.37101108429963	-1.77305978269542	0.0069395048342475	-0.000436659632335516
0.47	9.08741050622723	-2.07927541738045	722.834962104676	-44.0322801798844	14.9245640702416	-2.37016680868404	-1.77370058060455	0.00702229065002045	-0.000737111247000384
0.48	9.07239510135979	-2.13691775478094	722.213231946663	-43.794948892735	14.9729878188627	-2.36654032447192	-1.77210983681719	0.00710854238529903	-0.00101234631680484
0.49	9.04833817855928	-2.18331452168268	721.575644355802	-43.5767172600776	15.0234427727727	-2.36022009315254	-1.7683257127127	0.00719814426818768	-0.00125949043091272
0.5	9.01584419104934	-2.21890001261816	720.949655338401	-43.3814324962689	15.0762307783506	-2.35139120553388	-1.76246087247859	0.00729073588868304	-0.00147570190375378
0.51	8.97586535284596	-2.24418795309313	720.362306634682	-43.2127992766497	15.131496108191	-2.34032702085618	-1.75469812383274	0.00738573642187342	-0.00165829189080483
0.52	8.92965121903271	-2.25975067523168	719.839073524876	-43.0742154123469	15.1892251305295	-2.32737882311683	-1.74528470513203	0.00748237598402502	-0.00180484343441931
0.53	8.87868685944193	-2.26619678956079	719.402812355272	-42.9686192801927	15.2492505478693	-2.31296380094293	-1.73452521253869	0.00757973260161863	-0.00191332529043384
0.54	8.82462387777156	-2.26414886135611	719.072848244718	-42.8983547870561	15.3112597990793	-2.29755166151353	-1.72277318253474	0.00767677302873286	-0.00198219660213327
0.55	8.7692085610129	-2.25422264001301	718.86423609767	-42.8650587612614	15.3748071983025	-2.28165018360418	-1.71042137541852	0.00777239550809999	-0.00201049874857932
0.56	8.71421117580921	-2.23700931285563	718.787219699201	-42.8695746518736	15.4393293925928	-2.26579000426109	-1.69789084340964	0.0078654725611113	-0.00199793100845698
0.57	8.66135990147155	-2.21306205909735	718.846904647766	-42.9118953212507	15.5041637442049	-2.25050892327463	-1.68561891237217	0.00795489202236293	-0.00194490706640861
0.58	8.61228216503278	-2.18288787278482	719.043151545967	-42.9911365771531	15.5685692681582	-2.23633600484958	-1.6740462591576	0.00803959479666358	-0.00185258986700464
0.59	8.568455296138	-2.14694522270056	719.370686572721	-43.1055419451662	15.6317497675384	-2.2237757609388	-1.66360332718028	0.00811860818336149	-0.00172290290882996
0.6	8.53116752927896	-2.10564764914446	719.819417653875	-43.2525180648518	15.6928787973209	-2.2132927178605	-1.65469639002027	0.00819107404115184	-0.00155851677462177
0.61	8.50148952762115	-2.05937289736159	720.374936274981	-43.4286990356811	15.7511260458888	-2.2052966965545	-1.64769364372367	0.00825627150346632	-0.00136281050614533
0.62	8.48025585847167	-2.00847669615191	721.019177864033	-43.6300370702004	15.8056846507175	-2.20012917360162	-1.64291177785745	0.0083136343462321	-0.0011398083324904
0.63	8.46805527348324	-1.95330985142749	721.731207905904	-43.8519159576154	15.8557988653461	-2.19805112852752	-1.64060353580712	0.00836276340982398	-0.000894093211672192
0.64	8.46522827652892	-1.89423698015034	722.488096778595	-44.0892831232027	15.9007913785237	-2.19923281438453	-1.64094681710849	0.00840343465386629	-0.000630699601154965
0.65	8.47187031666619	-1.83165499627978	723.265843902578	-44.3367955060675	15.9400894674424	-2.20374590357429	-1.64403588901869	0.00843560346510304	-0.000354988780553726
0.66	8.48783901782484	-1.76600940322015	724.040311263306	-44.588974084089	15.9732490622367	-2.21155845014312	-1.64987525222016	0.00845940575351347	-7.25108557899368e-05
0.67	8.51276412409683	-1.69780655966169	724.788127700903	-44.8403616602569	15.9999757263285	-2.2225330659904	-1.65837664024432	0.00847515618744384	0.000211141771271524
0.68	8.5460592541782	-1.62762036515804	725.487528452765	-45.0856784938488	16.0201415333944	-2.23642862734157	-1.66935952168532	0.00848334367566183	0.000490484222042072
0.69	8.58693506067214	-1.55609223985706	726.119099072551	-45.3199705124469	16.0337968601476	-2.25290570923363	-1.68255532139215	0.00848462395089126	0.000760286766161453
0.7	8.63441391119337	-1.48392381629495	726.666398727064	-45.5387451702099	16.0411762231633	-2.27153579380281	-1.69761538977504	0.00847980889351289	0.00101571477403482
0.71	8.68734667830381	-1.41186237494201	727.116444610025	-45.738090511657	16.0426974698276	-2.29181412115605	-1.71412254114352	0.00846985209717541	0.00125245577059625
0.72	8.74443257921188	-1.34067968645553	727.460046380713	-45.9147736401285	16.0389538835208	-2.31317586120734	-1.73160576907971	0.00845583014989681	0.00146682885273347
0.73	8.80424319065443	-1.2711455171172	727.691986693373	-46.0663155523002	16.0306990700159	-2.33501509487532	-1.74955754724596	0.00843891919984598	0.00165587243520962
0.74	8.86525174377661	-1.20399755753408	727.811050608771	-46.1910401564092	16.0188248384981	-2.35670591799121	-1.76745295506377	0.00842036659328821	0.00181740717040638
0.75	8.92586856423974	-1.1399099043212	727.819912606243	-46.2880962107324	16.0043326548051	-2.37762483495645	-1.78476974393808	0.00840145769664995	0.00195007190057619
0.76	8.98448307434532	-1.07946242825173	727.724894761713	-46.3574518671839	15.9882996019936	-2.39717350340771	-1.80100839127249	0.00838347841569606	0.00205333159585887
0.77	9.03951215071858	-1.02311338300051	727.535613249	-46.3998624493308	15.971840109235	-2.4148008347037	-1.8157111811955	0.00836767436322636	0.00212745735280549
0.78	9.08945388851863	-0.971177444413891	727.26453260017	-46.4168130026591	15.9560649811022	-2.43002345313434	-1.82847940194296	0.00835520805800036	0.00217347962362724
0.79	9.13294503338511	-0.923811034446214	726.926448183556	-46.4104379980099	15.9420394560035	-2.44244357067328	-1.83898785453142	0.00834711591655203	0.00219311686788932
0.8	9.16881958762797	-0.88100630287225	726.53791728754	-46.3834213205803	15.9307421305926	-2.45176344129935	-1.84699601621664	0.00834426708454883	0.0021886827256832
0.81	9.19616546203317	-0.842594550444442	726.116658276568	-46.3388803144412	15.9230265984394	-2.45779571332194	-1.85235538337606	0.00834732631122887	0.00216297557352539
0.82	9.21437560754762	-0.808259223458037	725.680935805037	-46.2802381580001	15.9195875647509	-2.46046919068583	-1.85501271905679	0.00835672307555963	0.00211915492000835
0.83	9.22318988635316	-0.777557939775573	725.248948338653	-46.2110892052533	15.9209330195172	-2.45982973356349	-1.85500913794893	0.00837262901497176	0.00206060951486872
0.84	9.22272407260471	-0.749952368771961	724.838232521282	-46.1350621312566	15.9273637897991	-2.45603626189597	-1.8524751646051	0.00839494538918867	0.00199082227685808
0.85	9.21348282610834	-0.724844228053188	724.465097459508	-46.0556857623994	15.9389614630205	-2.44935205961229	-1.84762208957239	0.00842330184847888	0.00191323719176539
0.86	9.19635424478357	-0.70161521791327	724.144100914552	-45.9762623514549	15.9555852952121	-2.44013179908746	-1.84073011468003	0.00845706719541973	0.00183113319458982
0.87	9.17258463168375	-0.679668421528292	723.887578730457	-45.8997527769616	15.9768783108623	-2.42880490320292	-1.83213391653106	0.00849537216979301	0.00174750973402731
0.88	9.14373334061514	-0.658468575480339	723.70523852612	-45.8286777136758	16.0022823844458	-2.4158560262273	-1.82220636109739	0.00853714359244868	0.00166498823044208
0.89	9.11160890062183	-0.637578670080713	723.603828584232	-45.7650382474301	16.0310616872103	-2.40180355710119	-1.81134116823766	0.0085811485243756	0.00158573299118635
0.9	9.07818895974516	-0.616690568316322	723.586892761781	-45.7102587098885	16.0623335044302	-2.38717712475735	-1.79993535024596	0.00862604648004577	0.00151139435548443
0.91	9.04552782400247	-0.595647719895162	723.65462186728	-45.665153706636	16.0951050942816	-2.37249511281833	-1.7883722320818	0.00867044722337921	0.00144307592787187
0.92	9.01565639521023	-0.57445856519911	723.803811040937	-45.6299204296819	16.1283149838637	-2.3582431710634	-1.77700580364546	0.00871297130657689	0.0013813267550891
0.93	8.99048004244461	-0.553299835654088	724.027931012908	-45.6041564099508	16.1608768925406	-2.3448546465295	-1.76614705973974	0.00875231031192572	0.00132615824520065
0.94	8.971680310473	-0.532509617631571	724.317318547053	-45.5869019065278	16.1917243471282	-2.3326937530631	-1.75605285730786	0.00878728373708508	0.00127708456538169
0.95	8.9606263366148	-0.512570708124376	724.659487842048	-45.5767051793338	16.2198540142351	-2.32204216109999	-1.74691767086005	0.00881688962458253	0.00123318423672326
0.96	8.95830140887402	-0.494085403573961	725.039560205494	-45.5717079840839	16.2443658259711	-2.31308952688435	-1.73886846639337	0.00884034636301157	0.00119317972211185
0.97	8.96524927824065	-0.47774338368762	725.440804099403	-45.5697477971393	16.2644981164671	-2.30592830015158	-1.73196275320689	0.00885712355696659	0.00115553102533837
0.98	8.98154369148905	-0.464284742850161	725.845271940577	-45.5684725573589	16.2796562144136	-2.30055295940584	-1.72618972302487	0.00886696044367743	0.00111853872768232
0.99	9.00678321679129	-0.45446045667052	726.234514176322	-45.5654631350881	16.2894332430101	-2.2968636319425	-1.72147425611866	0.00886987099082078	0.00108045151347232
1	9.04011189002403	-0.448992637331703	726.590345552048	-45.5583583350163	16.2936222506417	-2.29467386885461	-1.71768347099251	0.00886613550491749	0.00103957309703828
1.01	9.08026462178193	-0.448536829945077	726.895633575295	-45.544977035453	16.2922192162142	-2.29372217009232	-1.71463542030812	0.0088562792769496	0.000994363564933633
1.02	9.12563478248505	-0.453648348110072	727.135075382999	-45.5234320811506	16.2854169214776	-2.29368669744805	-1.71210949003097	0.00884103945779938	0.000943530481022879
1.03	9.17436002783306	-0.464754267571097	727.295926912424	-45.4922307918262	16.2735901350911	-2.29420247998239	-1.70985803724432	0.00882132196055901	0.000886105647973742
1.04	9.22442132787578	-0.482132228795834	727.368647762311	-45.4503574262507	16.257272984342	-2.29488031235906	-1.70761879882659	0.00879815070271128	0.000821504147193682
1.05	9.27374938948358	-0.505896684730524	727.34742660939	-45.3973336437154	16.2371297751959	-2.29532647675202	-1.70512761195865	0.00877261190474954	0.000749563153332675
1.06	9.32033226007294	-0.53599271290807	727.230555598024	-45.3332539109375	16.2139208365363	-2.2951623875	-1.70213100291609	0.00874579643207801	0.0006705589970867
1.07	9.36231789070393	-0.572197033308845	727.020627700872	-45.2587938814856	16.1884651906296	-2.29404326727901	-1.69839821947232	0.00871874328648061	0.000585201986033519
1.08	9.39810581389796	-0.614125471040679	726.724538479767	-45.1751909841194	16.1616019749652	-2.29167501517183	-1.69373230357783	0.00869238730900633	0.000494609541062695
1.09	9.42642282574122	-0.661245803609395	726.353282657788	-45.0841977439553	16.1341525533009	-2.28782851922742	-1.68797982612185	0.00866751394090728	0.000400259219175511
1.1	9.44637860072147	-0.712894753265605	725.921546032574	-44.9880096666286	16.106885156021	-2.28235079483288	-1.68103893738607	0.00864472350470177	0.000303924127137194
1.11	9.45749844029474	-0.768297830789707	725.447104009297	-44.8891707765287	16.0804836894149	-2.27517248865566	-1.6728654286058	0.00862440692530261	0.000207594042836552
1.12	9.45973177751687	-0.826590801233201	724.950048830493	-44.7904610503736	16.0555220648908	-2.26631146687148	-1.66347655457789	0.00860673413514401	0.000113386215068914
1.13	9.45343653726685	-0.886841706497674	724.451877807476	-44.6947709637836	16.0324450430453	-2.25587239508438	-1.65295243570176	0.00859165563343874	2.34502769132297e-05
1.14	9.43934089015384	-0.948072616873498	723.974483883985	-44.6049691139789	16.0115561887643	-2.24404240445237	-1.64143493942596	0.00857891684561964	-6.01280400987919e-05
1.15	9.418485248845	-1.0092805601444	723.539097084598	-44.5237693486193	15.993013119161	-2.23108311341105	-1.62912403301169	0.00856808411099612	-0.000135419677950444
1.16	9.39214846042978	-1.06945735639105	723.165230282874	-44.4536039841057	15.9768298232816	-2.21731942815742	-1.61627169742313	0.00855858037558258	-0.000200737000745597
1.17	9.36176298627179	-1.12760833455988	722.869684837834	-44.3965095166268	15.962885466167	-2.20312567135357	-1.60317359067826	0.00854972804279967	-0.000254706435602631
1.18	9.32882439031317	-1.18277009413138	722.665670704041	-44.354030713341	15.9509387812762	-2.18890968378849	-1.59015874263063	0.00854079598984659	-0.000296325548988195
