Time [s]	GRFml [N]	GRFap [N]	GRFv [N]	Mml [N.m]	Map [N.m]	Mv [N.m]	Mfree [N.m]	COPml [m]	COPap [m]
0.01	21.1037975819322	0.464100097639395	632.545165195538	-45.0261434450232	-0.384757789243729	0.443489705796777	1.9459751962474	-0.00182462649961902	-0.0130597665450719
0.02	21.0784634750255	-0.300362239839155	633.679256407105	-44.9808716668636	-0.406677415342518	0.361679008399639	1.85772277219358	-0.00185988771253215	-0.0132501694022533
0.03	21.0565593225464	-1.04998856054762	634.789587689495	-44.9360326882434	-0.429628983752956	0.280880371031541	1.77077537143615	-0.00189658791570794	-0.0134366406304464
0.04	21.0395286137836	-1.77051579398659	635.854136343753	-44.8925766862308	-0.454392950882998	0.20222489540777	1.68645135279927	-0.00193598950532526	-0.0136153128902315
0.05	21.0285220119258	-2.44864159206401	636.851915223346	-44.8513879677175	-0.481729042162961	0.126791402975034	1.60598835710786	-0.00197932680446762	-0.0137825500868045
0.06	21.0243022268695	-3.07253832830783	637.763763707837	-44.8132545027175	-0.512328365860462	0.0555751838045404	1.53050380799271	-0.00202772951772257	-0.0139350794276769
0.07	21.0271735533408	-3.63228997727654	638.573078881283	-44.7788481350438	-0.546771507831444	-0.0105413786601152	1.46095993656621	-0.0020821557893611	-0.0140701008578814
0.08	21.0369416733674	-4.12023033745939	639.266453025049	-44.7487165232613	-0.585495274370921	-0.0708152566425628	1.39813452597686	-0.00214333890723661	-0.0141853680894126
0.09	21.0529069378715	-4.53116755713251	639.834186477147	-44.7232865941266	-0.628769895506295	-0.124665180398557	1.34259842559533	-0.00221175031912546	-0.0142792376672844
0.1	21.0738917954461	-4.86248710994731	640.270649723512	-44.7028781069407	-0.676687582711832	-0.171688882181064	1.29470071824329	-0.00228758021332714	-0.0143506849709596
0.11	21.0983005407782	-5.11413271617816	640.574475188652	-44.687724956475	-0.729162435696747	-0.211674175368752	1.25456221980121	-0.00237073558022662	-0.0143992884953411
0.12	21.1242072970851	-5.28847171339418	640.748567313207	-44.678001176058	-0.785940881391355	-0.244603067761582	1.22207773330722	-0.00246085450336357	-0.014425185956579
0.13	21.1494662772993	-5.39005760411866	640.799928710274	-44.6738482931906	-0.846621157269272	-0.270648404609036	1.196927160914	-0.00255733448456621	-0.0144290075272379
0.14	21.1718369972086	-5.42530759223072	640.739309921542	-44.6754007489141	-0.910679856202073	-0.29016290513714	1.17859519949162	-0.00265937191905135	-0.0144117926838409
0.15	21.1891163055134	-5.40211661375325	640.580699909911	-44.6828064916483	-0.977503249194086	-0.303660868926836	1.16639892493473	-0.00276600941270998	-0.0143748976800769
0.16	21.1992688713428	-5.32943153369092	640.340683264019	-44.6962405357359	-1.04642099698442	-0.311793253410506	1.15952213430278	-0.00287618746756037	-0.0143199005480322
0.17	21.2005481076018	-5.21680979352627	640.037697518679	-44.7159101490176	-1.11673993811776	-0.315317227182739	1.15705490068511	-0.00298879713160426	-0.0142485098518496
0.18	21.19160035005	-5.07398593228888	639.691229465823	-44.7420513021126	-1.18777587384487	-0.315061653159989	1.15803644377746	-0.00310273048477185	-0.0141624822993302
0.19	21.1715463688717	-4.91046723481793	639.320992427409	-44.7749169704606	-1.25888162421534	-0.311890222199386	1.16149916794817	-0.0032169262742509	-0.0140635529152302
0.2	21.1400358522685	-4.73517652004902	638.94612693972	-44.8147587310085	-1.32947006467648	-0.306664119214718	1.16651159948439	-0.0033304085758769	-0.0139533799637385
0.21	21.0972722494022	-4.55615605305242	638.584465105438	-44.8618037571424	-1.39903132650993	-0.300206145851731	1.17221798387416	-0.00344231699612317	-0.0138335053355852
0.22	21.044007170288	-4.38034205480204	638.251894154302	-44.9162297297591	-1.46714381767249	-0.293268141473281	1.17787248585981	-0.00355192759398884	-0.0137053298203053
0.23	20.9815052977345	-4.21341460387046	637.961847853821	-44.9781403187602	-1.53347915833621	-0.286503342382583	1.18286625815407	-0.00365866434865517	-0.0135701016626441
0.24	20.9114823707852	-4.05972316868472	637.724945830926	-45.0475437466613	-1.59780150037196	-0.280445012068856	1.18674608455387	-0.00376210158731652	-0.0134289161085232
0.25	20.8360201701874	-3.92228383933597	637.548791229484	-45.1243365514485	-1.65996199371137	-0.275492285131347	1.18922382519626	-0.0038619582859274	-0.0132827232936601
0.26	20.7574635172132	-3.80284076065724	637.437927135642	-45.2082940703734	-1.71988936560709	-0.271903722963138	1.19017645548547	-0.00395808554105437	-0.0131323417935461
0.27	20.6783050542786	-3.70198146554204	637.393942567395	-45.2990684391225	-1.77757769047317	-0.26979861249684	1.18963705377765	-0.0040504487713328	-0.0129784753849658
0.28	20.6010639978127	-3.6192938718728	637.415710220286	-45.3961941212048	-1.83307245461323	-0.269165583477316	1.18777761653909	-0.00413910634032446	-0.0128217309952984
0.29	20.5281651480732	-3.55355167929579	637.499731168018	-45.4991002320926	-1.88645597353451	-0.269877706084654	1.18488502917205	-0.00422418630634629	-0.0126626363558687
0.3	20.4618242292626	-3.50291476531213	637.640556778643	-45.6071282773214	-1.93783311493249	-0.27171288612864	1.18133186952935	-0.00430586291414421	-0.0125016564490053
0.31	20.4039451491547	-3.46513186133713	637.831255499481	-45.7195534459177	-1.98731813454682	-0.274378119932194	1.17754395179426	-0.00438433426838898	-0.0123392083725655
0.32	20.3560340499778	-3.43773416990626	638.063891977389	-45.8356073339323	-2.03502326146168	-0.277536018204476	1.17396662270555	-0.00445980239280719	-0.0121756746818461
0.33	20.3191341144337	-3.41821050989408	638.32998811881	-45.9544999388353	-2.08104948901449	-0.280831962275925	1.17103180082468	-0.00453245660450272	-0.0120114155664188
0.34	20.2937840364485	-3.40415687013517	638.620939884907	-46.0754389617104	-2.12547984972459	-0.283920313667487	1.16912761142725	-0.00460246084205332	-0.011846780357888
0.35	20.2800019092936	-3.39339572614241	638.928369440609	-46.1976448553988	-2.16837528694897	-0.286488248648011	1.16857223004617	-0.00466994529644204	-0.0116821188432589
0.36	20.2772950673268	-3.38406294637774	639.244399199944	-46.3203606181039	-2.20977308853898	-0.28827601704389	1.16959322713689	-0.00473500242001143	-0.011517792695233
0.37	20.2846951850619	-3.37466241668049	639.561841732821	-46.4428559935873	-2.24968772190584	-0.289092708949019	1.17231332856301	-0.00479768714056396	-0.0113541870582998
0.38	20.3008167328998	-3.36409050394459	639.874306801223	-46.5644264320757	-2.28811380649489	-0.288826931834684	1.17674309703623	-0.00485802089202517	-0.0111917219920169
0.39	20.3239357588259	-3.35163405813414	640.176233387504	-46.6843878191369	-2.32503087790419	-0.287452131237859	1.18278062372843	-0.00491599889345552	-0.0110308631205847
0.4	20.3520849579011	-3.336946750801	640.462859955018	-46.8020685262555	-2.36040953600129	-0.285026609381064	1.19021792099285	-0.0049715999664235	-0.010872130521833
0.41	20.3831601556272	-3.32000914613686	640.730149951169	-46.9168007205635	-2.3942185253966	-0.281688589081401	1.19875334777405	-0.0050247980775021	-0.0107161046557938
0.42	20.4150327150159	-3.30107801549503	640.974691484647	-47.0279130519706	-2.42643226884954	-0.277646920136684	1.20800909647827	-0.00507557472808787	-0.0105634280208672
0.43	20.4456620231026	-3.28063009220083	641.193590108978	-47.1347267933001	-2.45703836164229	-0.273168221290812	1.21755253711759	-0.00512393128787127	-0.0104148012591426
0.44	20.4732021538476	-3.25930480257302	641.384371822245	-47.2365572440322	-2.48604453752896	-0.268561386603809	1.22692006007706	-0.00516990038104016	-0.0102709726214367
0.45	20.4960970597999	-3.2378496026909	641.54491000752	-47.3327217434114	-2.51348463522371	-0.264160458623307	1.23564198682209	-0.00521355548539594	-0.0101327200406361
0.46	20.5131592154216	-3.21707050879259	641.673385485886	-47.4225550158454	-2.53942312975917	-0.260306884083605	1.243267127701	-0.00525501799323525	-0.0100008255271072
0.47	20.5236275008055	-3.19778934144014	641.768283628496	-47.5054318479241	-2.56395784683428	-0.257332126079202	1.2493856529954	-0.00529446110749228	-0.00987604215708826
0.48	20.5272012346965	-3.18080820879828	641.828427122843	-47.5807963390799	-2.58722055158957	-0.255541517368086	1.25364909915742	-0.00533211010442887	-0.00975905452919819
0.49	20.5240485796911	-3.16688091413046	641.853038058594	-47.6481962473939	-2.60937519639565	-0.255200111920437	1.25578654524018	-0.00536823868075597	-0.00965043416515252
0.5	20.5147889738358	-3.15669034575029	641.841818985287	-47.7073203354137	-2.63061372421416	-0.256521136213566	1.25561625083547	-0.00540316131238172	-0.00955059187759795
0.51	20.5004507047046	-3.15083052729987	641.795039893368	-47.7580361653798	-2.65114945220839	-0.259657468485412	1.25305233046799	-0.0054372217761208	-0.00945972957388141
0.52	20.4824061436346	-3.1497918791427	641.71361693865	-47.8004255410785	-2.67120819998949	-0.264696393266802	1.24810633333768	-0.00547077821510604	-0.00937779427090556
0.53	20.4622884113155	-3.15394834989496	641.59916926183	-47.8348147678154	-2.69101747177128	-0.271657699327613	1.24088388429304	-0.00550418535239745	-0.00930443723543514
0.54	20.4418942731008	-3.16354538148572	641.454042370461	-47.8617971051931	-2.71079414376652	-0.280495019948748	1.23157680543886	-0.00553777466357497	-0.00923898112154098
0.55	20.4230788001714	-3.17868811629417	641.281290007617	-47.8822452015025	-2.73073123826099	-0.291100162180445	1.22045136309353	-0.00557183349580245	-0.00918039775072602
0.56	20.4076477373846	-3.19932977549781	641.08461084755	-47.897311887502	-2.75098447436453	-0.303310042123807	1.20783345997672	-0.0056065842561996	-0.00912729878160391
0.57	20.3972535686965	-3.22526066500053	640.868241252546	-47.9084184208712	-2.77165936319355	-0.316915740524856	1.19409170929006	-0.00564216487566334	-0.0090779409666881
0.58	20.3933009678373	-3.25609873352028	640.636810166353	-47.9172300513131	-2.7927996540748	-0.331673119927142	1.17961938184076	-0.00567861177669388	-0.00903024702470526
0.59	20.3968666892133	-3.29128295994318	640.395166483424	-47.9256195574293	-2.8143779321013	-0.347314402717218	1.16481621023177	-0.00571584652906951	-0.00898184240528591
0.6	20.408638035946	-3.33007104110669	640.148192455775	-47.9356201297652	-2.83628911245721	-0.36356009868702	1.15007097049398	-0.00575366726249966	-0.0089301074305633
0.61	20.4288728998883	-3.37154286132297	639.900618525726	-47.9493695871089	-2.85834747287078	-0.380130690006091	1.13574565024323	-0.00579174572178097	-0.00887224350875558
0.62	20.4573830767848	-3.41461104497897	639.656855194445	-47.9690483742964	-2.88028771515893	-0.396757528317647	1.12216186515807	-0.00582963060301355	-0.00880535137163055
0.63	20.4935412010517	-3.45803953659652	639.420856112483	-47.9968140732282	-2.90177035612324	-0.413192469528072	1.10959001544576	-0.00586675750916578	-0.00872651863198709
0.64	20.536310304308	-3.50047064973037	639.196023641522	-48.0347352543782	-2.92239152599237	-0.429215862290121	1.09824149427954	-0.00590246552402862	-0.00863291342573133
0.65	20.5842937623374	-3.54046042256497	638.985163978011	-48.0847274095807	-2.94169701052351	-0.444642610975248	1.08826408309824	-0.00593602004326121	-0.00852188052620889
0.66	20.6358023308377	-3.5765214697097	638.790493970678	-48.1484934585531	-2.95920012385945	-0.459326147368945	1.0797405041555	-0.0059666411401332	-0.00839103611822149
0.67	20.6889341420638	-3.60717188686475	638.61369651286	-48.2274709434447	-2.97440275737301	-0.473160261457267	1.07268995601038	-0.00599353640305951	-0.00823835740745134
0.68	20.7416629858862	-3.63098820695064	638.456016388799	-48.3227875579336	-2.98681872932343	-0.486078854639997	1.06707233703733	-0.00601593688281803	-0.00806226341813729
0.69	20.7919299533007	-3.64665997524919	638.318384219979	-48.4352261444187	-2.99599837494505	-0.498053783028044	1.06279476710754	-0.00603313454792101	-0.00786168368601776
0.7	20.8377335801066	-3.65304324735671	638.201553136802	-48.5651997789528	-3.0015531790119	-0.509091049323045	1.05971994792749	-0.0060445194818485	-0.00763611206153586
0.71	20.8772139744993	-3.64921024169381	638.106231314526	-48.7127370888558	-3.0031791733587	-0.519225675127519	1.05767585650188	-0.00604961497606748	-0.00738564346720022
0.72	20.9087270071724	-3.63449250431678	638.033193728421	-48.8774775449104	-3.00067780798394	-0.528515638327732	1.05646624187769	-0.00604810868334907	-0.00711099216320965
0.73	20.9309054336194	-3.60851525599036	637.983358399319	-49.0586761608842	-2.99397306067484	-0.53703529035351	1.05588139115455	-0.00603987809750455	-0.00681349082433978
0.74	20.942704742686	-3.57122106166327	637.957815845451	-49.2552168284006	-2.983123677379	-0.544868674578337	1.05570864589422	-0.00602500881481992	-0.00649507047688011
0.75	20.9434325149366	-3.52288154947694	637.957805107426	-49.4656334135214	-2.96832963069746	-0.552103149813103	1.05574218445664	-0.00600380430244095	-0.00615822204974741
0.76	20.9327610609634	-3.46409656087228	637.984635130813	-49.6881377305421	-2.94993213981388	-0.558823682722838	1.05579163973494	-0.0059767862405352	-0.00580594092858774
0.77	20.9107240301037	-3.39578078293654	638.039555961758	-49.9206535673014	-2.92840690098303	-0.56510811207169	1.05568919530225	-0.00594468490702968	-0.00544165644418622
0.78	20.8776984797001	-3.31913854882234	638.123589599645	-50.1608560376133	-2.90435051896553	-0.571023609098354	1.05529489516055	-0.00590841952290743	-0.00506914866418046
0.79	20.8343745315718	-3.23562804870423	638.23733494876	-50.4062156504179	-2.87846048914081	-0.576624466298585	1.05450001048328	-0.00586906895684893	-0.00469245518512347
0.8	20.7817151875294	-3.14691663956449	638.380764685252	-50.6540465828737	-2.85150943789966	-0.581951246800106	1.05322842629336	-0.00582783368174063	-0.0043157708415664
0.81	20.7209091166855	-3.05482925701324	638.553033686763	-50.9015587009172	-2.82431466453952	-0.587031224675257	1.05143613514712	-0.00578599035991756	-0.00394334336505854
0.82	20.6533192667586	-2.96129210964909	638.752318780732	-51.1459128675566	-2.79770432046357	-0.591879949943298	1.04910904511662	-0.00574484088295333	-0.00357936804572809
0.83	20.5804300069445	-2.86827388214397	638.975707928647	-51.3842790067449	-2.77248179153035	-0.596503687905191	1.04625941623106	-0.0057056580765035	-0.00322788438001227
0.84	20.5037952113413	-2.77772660393192	639.219153705734	-51.6138962490029	-2.74939000014853	-0.600902417735953	1.04292132367279	-0.00566963057131291	-0.00289267753805673
0.85	20.4249892791615	-2.69152818032988	639.477501326648	-51.8321342833068	-2.72907740249693	-0.605073035851554	1.03914559925803	-0.00563780951002051	-0.00257718726190295
0.86	20.3455626067154	-2.61142836028292	639.74459588844	-52.0365547956993	-2.71206741572469	-0.60901239973016	1.03499471920238	-0.00561105978311408	-0.00228442652094049
0.87	20.2670025237365	-2.53899965802629	640.013467411603	-52.224971612645	-2.69873286903562	-0.612719869614105	1.03053808318474	-0.00559001835236545	-0.0020169119165796
0.88	20.190700227653	-2.47559447987035	640.276586154578	-52.3955079144571	-2.68927683680331	-0.616199058184303	1.02584806830114	-0.00557506192407323	-0.00177660745850233
0.89	20.1179238318352	-2.42230945125434	640.526175048097	-52.546648670783	-2.68372089362787	-0.619458578345898	1.02099714648025	-0.0055662857886584	-0.00156488294677311
0.9	20.0497973156973	-2.37995770496663	640.754561388527	-52.6772863046928	-2.68190144895853	-0.622511680387845	1.01605623364834	-0.00556349507234138	-0.0013824878043484
0.91	19.9872849417471	-2.34904968292929	640.954546508412	-52.786757539468	-2.68347439590589	-0.625374783340541	1.0110943044329	-0.00556620898738465	-0.00122954082796024
0.92	19.9311805902059	-2.329782817986	641.119770263468	-52.8748694423803	-2.68792787168696	-0.628065021132432	1.00617917014031	-0.00557367796488979	-0.00110553597250899
0.93	19.8821014460746	-2.32204028998535	641.245046968494	-52.9419128651705	-2.69460250345962	-0.630597031333503	1.00137919305186	-0.00558491285769711	-0.00100936395944866
0.94	19.8404855362007	-2.32539888019187	641.326650877999	-52.9886617959245	-2.70271812970835	-0.632979302604083	0.996765608560179	-0.00559872475907682	-0.00093934920086447
0.95	19.806592727026	-2.33914576724414	641.362532311604	-53.0163575769995	-2.71140566725524	-0.635210457807309	0.992415057773421	-0.00561377343868028	-0.000893301249606876
0.96	19.7805089254714	-2.36230390627048	641.352449828269	-53.0266774948463	-2.7197425558197	-0.637275877001961	0.988411903136266	-0.00562862198440355	-0.000868579709514108
0.97	19.7621533445433	-2.39366540469541	641.298009126946	-53.0216878874806	-2.72679006798019	-0.639145055272153	0.984849910760801	-0.00564179497931253	-0.000862171255060093
0.98	19.7512887749445	-2.43183205436317	641.20260520438	-53.0037826136015	-2.73163072755486	-0.640770045030616	0.981832934069378	-0.00565183744552906	-0.00087077710602286
0.99	19.7475348254611	-2.47526190766426	641.071270315499	-52.9756084472199	-2.73340413191725	-0.642085254775036	0.979474319034745	-0.00565737184827453	-0.000890908975427707
1	19.7503840496223	-2.52232051016696	640.910436044306	-52.9399796620475	-2.73133961520789	-0.643008772807518	0.977894863878771	-0.00565715065828442	-0.000918991162339802
1.01	19.7592207667865	-2.57133514439863	640.727622923246	-52.8997847078104	-2.72478440599827	-0.643445263773924	0.977219295644102	-0.00565010229602787	-0.000951466109567173
1.02	19.7733422257751	-2.62065022308107	640.531075215913	-52.8578884138311	-2.71322620699045	-0.643290357932331	0.977571361585296	-0.00563536869732747	-0.000984900414613341
1.03	19.7919815706901	-2.66868182022483	640.32936145962	-52.8170335450803	-2.69630943583908	-0.642436328088937	0.979067763712742	-0.00561233321512951	-0.00101608800321037
1.04	19.8143318795902	-2.71396926741255	640.130963000059	-52.7797457503075	-2.67384469470088	-0.640778736960158	0.981811279690753	-0.00558063807455768	-0.00104214698630656
1.05	19.8395703871955	-2.75522178698766	639.943872986165	-52.7482459578259	-2.64581136224548	-0.638223646964382	0.985883503769225	-0.00554019109875994	-0.00106060666160326
1.06	19.8668819004357	-2.79135829190926	639.775227169838	-52.7243740803931	-2.61235350856198	-0.634694921993273	0.991337700725227	-0.00549116189647817	-0.0010694812228122
1.07	19.8954803919941	-2.82153875177652	639.630985499332	-52.7095274875531	-2.57376960690169	-0.630141121282532	0.998192289583866	-0.00543396812906956	-0.00106732702688654
1.08	19.9246278242531	-2.84518589335788	639.515680106001	-52.7046171063595	-2.53049674653036	-0.624541491438532	1.00642546050317	-0.00536925284087586	-0.00105328075052917
1.09	19.9536494151203	-2.86199644950432	639.432241115815	-52.7100432471123	-2.48309023202106	-0.61791060388561	1.01597137860129	-0.00529785413376255	-0.00102707643454372
1.1	19.9819447973171	-2.8719416625969	639.381907058798	-52.7256923585907	-2.43219958361301	-0.610301259033509	1.02671834605907	-0.00522076869046953	-0.000989040242986031
1.11	20.0089948223901	-2.87525725326274	639.364221804735	-52.7509549452548	-2.37854203138681	-0.601805380727481	1.03850918401064	-0.00513911080207188	-0.00094006271263683
1.12	20.034364090474	-2.87242354692847	639.37711521974	-52.7847638809109	-2.32287462594348	-0.592552748564251	1.05114396564821	-0.00505406863511254	-0.000881549283437755
1.13	20.0576996126203	-2.86413687800065	639.417060388914	-52.8256513855308	-2.26596607466042	-0.58270755343293	1.06438508988431	-0.00496685948849028	-0.000815350920525884
1.14	20.0787262997433	-2.85127373875638	639.479296518069	-52.8718220489383	-2.20856936102205	-0.572462904036961	1.07796453978779	-0.00487868574476573	-0.000743677598974979
1.15	20.0972401898466	-2.83484939102856	639.558103692963	-52.9212385363576	-2.15139612094882	-0.562033549385769	1.09159303098611	-0.00479069312156711	-0.000668998261752554
1.16	20.1131004491045	-2.81597280715502	639.647113657222	-52.9717160373361	-2.09509364036485	-0.55164720445531	1.10497063118446	-0.00470393268285984	-0.000593931526141095
1.17	20.1262211981794	-2.7957998558301	639.739639725891	-53.0210211511484	-2.04022520797128	-0.541534964160509	1.11779833101814	-0.00461932788366447	-0.000521131862564472
