Time [s]	GRFml [N]	GRFap [N]	GRFv [N]	Mml [N.m]	Map [N.m]	Mv [N.m]	Mfree [N.m]	COPml [m]	COPap [m]
0.01	-4.95387726335931	0.324960001799557	578.252381086451	-34.8843406138584	-0.938197495703307	-4.04491862956087	-4.34320812286131	-0.00311410179029517	-0.00230142845518154
0.02	-4.11416647453165	0.545224855106537	577.972703666011	-35.1880240416854	-0.835821885920982	-4.16099495917594	-4.41066806955252	-0.00293387640061928	-0.0017421417796773
0.03	-3.28978684841228	0.762625580597908	577.716196936221	-35.4935515531461	-0.735378593083357	-4.27488718322527	-4.47602865416256	-0.00275694439800073	-0.0011826055602905
0.04	-2.49555370967697	0.97421731645853	577.49864807368	-35.7998424104702	-0.63869946561962	-4.38464017415124	-4.53826568416226	-0.00258654163730293	-0.000626480476639629
0.05	-1.74528498256016	1.17723831342099	577.33433681735	-36.1058098151185	-0.547473882941535	-4.48845356429975	-4.59648734021444	-0.00242565679725277	-7.72575111523954e-05
0.06	-1.05128082118127	1.36918745173638	577.235197860519	-36.4102857506621	-0.463181857247736	-4.58475123253763	-4.64996632544595	-0.00227691293538004	0.000461706807603282
0.07	-0.423878105909013	1.54789094462113	577.210134931367	-36.7119532496739	-0.387038586224836	-4.67223970779618	-4.69816375118795	-0.00214246919427235	0.00098715091620101
0.08	0.12889887107602	1.7115552916755	577.264529863395	-37.0092926241938	-0.31995318006442	-4.7499525637814	-4.74074365505942	-0.00202394740833556	0.00149587070615974
0.09	0.601576121848655	1.85880382808785	577.399973456683	-37.300546416451	-0.262503267896374	-4.81727871679399	-4.77757756892998	-0.001922386561007	0.00198468895859936
0.1	0.991347316982845	1.9886947312083	577.614227303499	-37.5837058719295	-0.214926122501357	-4.87397348816529	-4.80873912432859	-0.00183822618656782	0.0024504353261383
0.11	1.29806892866022	2.10071910963398	577.901408529664	-37.8565198070794	-0.177125913623225	-4.92015228823366	-4.8344892595564	-0.00177131804214811	0.00288993915244123
0.12	1.52413803994934	2.19477878808853	578.252373926893	-38.1165249916248	-0.148695780757382	-4.95626775289026	-4.85525312945849	-0.00172096380731152	0.0033000362518429
0.13	1.67426382110618	2.27114455827807	578.655267303502	-38.3610956995805	-0.128952659761879	-4.98307205377109	-4.87159027077855	-0.001685975280955	0.00367758978742859
0.14	1.7551488462057	2.33039691014903	579.096184836375	-38.5875089714562	-0.11698223865686	-5.00156685561878	-4.88415990685978	-0.00166475258663953	0.00401952458963964
0.15	1.77510038381648	2.37335249120302	579.559908205009	-38.7930214026015	-0.111691072131798	-5.01294396839973	-4.89368346194841	-0.00165537528791232	0.00432287363163236
0.16	1.74359438088314	2.40098065815249	580.03065442678	-38.974952926118	-0.111862749764466	-5.01852011155938	-4.90090639008411	-0.00165570105065701	0.0045848348961459
0.17	1.67081600725213	2.41431538242041	580.492794365538	-39.1307730626202	-0.116215073396436	-5.01966936300095	-4.90656131502386	-0.00166346654654721	0.00480283650495208
0.18	1.56720037274549	2.41436835829871	580.931498342425	-39.2581854114991	-0.123455427097987	-5.01775681048986	-4.91133424806443	-0.0016763856318384	0.00497460771359992
0.19	1.44299548702621	2.40204937010557	581.333276398985	-39.3552066924792	-0.132331884065874	-5.01407667571291	-4.91583533197124	-0.00169224040974861	0.00509825318431158
0.2	1.30786689082493	2.3780997596836	581.686391649168	-39.4202373371145	-0.141678050459557	-5.00979776902677	-4.92057518820609	-0.00170896153627188	0.00517232782697229
0.21	1.17055988141743	2.34304418680531	581.981136826841	-39.4521214003431	-0.150450158106977	-5.00591859123744	-4.92594755760905	-0.00172469499873238	0.00519590943462411
0.22	1.03863115190772	2.29716481467765	582.209975602839	-39.4501943390163	-0.157755449987995	-5.00323376707409	-4.93221855312547	-0.00173785352391669	0.00516866633090375
0.23	0.918257240515926	2.24050063588036	582.367560594352	-39.4143179230885	-0.16287142238815	-5.00231281432084	-4.93952251056408	-0.00174715170140097	0.00509091728956824
0.24	0.814122714161767	2.17287296587865	582.450648440454	-39.3449021546757	-0.165255968948767	-5.00349156279374	-4.94786414368827	-0.00175162478666227	0.00496368107939911
0.25	0.729386740424596	2.09393628174061	582.45793828167	-39.2429145354851	-0.164548893895816	-5.00687587541716	-4.9571264877642	-0.0017506319347733	0.00478871313195388
0.26	0.665722850327752	2.00325170056737	582.389863098276	-39.1098773270953	-0.160565610088451	-5.01235672189758	-4.96708394780879	-0.00174384527591622	0.00456852702751824
0.27	0.623423435811523	1.90037861191736	582.24836351972	-38.9478535924157	-0.153284103816244	-5.01963514053981	-4.97741964577453	-0.00173122675675704	0.00430639875113019
0.28	0.601557986482813	1.78497843640542	582.036671054745	-38.7594228085743	-0.142826429743483	-5.02825521578679	-4.98774617414748	-0.00171299502669986	0.00400635199270322
0.29	0.598172325637911	1.65692330200987	581.759122579456	-38.5476467342007	-0.129436098325606	-5.03764291146062	-4.99762880197437	-0.00168958484632059	0.00367312316145482
0.3	0.610515180477867	1.51640171154569	581.421020927182	-38.3160260410392	-0.11345274094532	-5.04714843892223	-5.00661013619527	-0.00166160154814731	0.00331210526354457
0.31	0.635278293217983	1.36401308913028	581.028548264386	-38.0684480305335	-0.0952853948437173	-5.05608980525349	-5.01423521365679	-0.00162977300680479	0.00292927035970066
0.32	0.668836883726543	1.20084347207539	580.588730411371	-37.8091256007531	-0.0753856529169816	-5.06379527267027	-5.020075989192	-0.00159490140115789	0.00253107097903335
0.33	0.707478511000904	1.02851554738397	580.109442192146	-37.5425275535152	-0.0542217861247636	-5.06964265471965	-5.02375419832205	-0.00155781680251133	0.0021243216115186
0.34	0.747610124788432	0.849207666646331	579.59943704056	-37.2733003720493	-0.032254782237743	-5.07309366076149	-5.02496161730267	-0.00151933432632237	0.00171606222049436
0.35	0.785935208045172	0.665638318628726	579.068379100869	-37.0061817787723	-0.00991706661488578	-5.07372185756465	-5.02347682637323	-0.00148021626294205	0.00131340658218652
0.36	0.819595236889214	0.48101467247746	578.526853423466	-36.7459067071724	0.012405510520761	-5.07123322297631	-5.01917771010579	-0.00144114027311512	0.000923379133953919
0.37	0.846272080884782	0.298946081524661	577.986329847205	-36.4971067804325	0.0343880118471205	-5.06547869791002	-5.01204910372241	-0.00140267440816064	0.000552744847825831
0.38	0.864250297410605	0.12332570325979	577.459058826563	-36.2642049543395	0.0557768323648737	-5.05645857596299	-5.00218521296937	-0.00136525939978454	0.000207837384132964
0.39	0.872440422032197	-0.0418145075704741	576.957882621288	-36.0513076103723	0.0763961080758655	-5.04431898294614	-4.98978668872482	-0.00132919836391709	-0.000105608638842104
0.4	0.870366228043666	-0.192468377138676	576.495952518267	-35.8620970224442	0.0961501573725307	-5.02934107221435	-4.97515251178854	-0.00129465377920823	-0.000382615057604591
0.41	0.858120455088235	-0.324831224896226	576.086351516136	-35.6997277064955	0.115022119772355	-5.0119238801171	-4.95866712003282	-0.00126165133702403	-0.000619100957004279
0.42	0.8362946490579	-0.43547739144286	575.741631450906	-35.566730633267	0.133069064360498	-4.99256203743408	-4.94078346896716	-0.00123009002117578	-0.000812000745126884
0.43	0.805889499866774	-0.521529928696156	575.47328307322	-35.4649295821372	0.150413935888253	-4.97181971003243	-4.92200293775324	-0.00119975756966748	-0.000959353932235001
0.44	0.768212420206481	-0.580813022418638	575.291166284361	-35.3953739878202	0.167234790747944	-4.95030224236699	-4.90285315847019	-0.00117035030635403	-0.0010603618756593
0.45	0.724769106018661	-0.611978474865217	575.202934824583	-35.3582924453991	0.183751847984986	-4.92862700224235	-4.88386494443741	-0.00114149621612268	-0.00111540788368653
0.46	0.677155500830702	-0.614598814420696	575.213494516069	-35.3530705730314	0.200212941084509	-4.90739487954234	-4.86554951734487	-0.00111278007917354	-0.00112603844902946
0.47	0.626956002233383	-0.589221242687937	575.32453618609	-35.3782561854944	0.21687800249267	-4.88716378339709	-4.8483771833032	-0.00108376948000251	-0.00109490494345936
0.48	0.575652953957148	-0.537378583064924	575.534183326843	-35.4315937255983	0.234003242002391	-4.86842532151118	-4.83275849163774	-0.00105404056120825	-0.00102566677388899
0.49	0.524551515089582	-0.461555552526277	575.836790308857	-35.5100886742725	0.251825689242406	-4.85158564323826	-4.81902873952346	-0.00102320249236005	-0.000922858693304385
0.5	0.474722939828835	-0.36511092850328	576.2229197157	-35.610101271686	0.27054875674888	-4.8369511958721	-4.80743647613689	-0.000990919756956568	-0.000791726591909403
0.51	0.426968183415113	-0.252158413104486	576.679517502761	-35.7274674038688	0.290329441387211	-4.82471989259604	-4.79813642911914	-0.000956931511295585	-0.000638037581717391
0.52	0.381802614791937	-0.127411098636655	577.190292804604	-35.8576430255304	0.311267717368594	-4.81497793088144	-4.79118704047227	-0.000921067424048039	-0.000467871455314774
0.53	0.339461502604154	0.00400369011110513	577.736296095462	-35.9958670895637	0.33339858452478	-4.80770224114944	-4.7865525729134	-0.000883259553902702	-0.000287401580231023
0.54	0.299924883915397	0.136750851114877	578.296675934302	-36.1373367269205	0.356687123459146	-4.80276829548772	-4.78410954199206	-0.000843549958929927	-0.000102673930317231
0.55	0.26295945800276	0.265505780544272	578.849581643201	-36.2773874516331	0.381026779142076	-4.79996277250103	-4.78365705061192	-0.000802093854371047	8.06067846631925e-05
0.56	0.228174302660317	0.385174298461054	579.373167908321	-36.411670528207	0.406240952568641	-4.79900036358055	-4.78493045366323	-0.000759158248528049	0.000257275073457228
0.57	0.195086518028292	0.491103861995577	579.846648312338	-36.5363193896394	0.432087833554782	-4.79954382406166	-4.78761766074255	-0.000715116094808563	0.000422878435774154
0.58	0.163192391612332	0.579276027928418	580.251338922645	-36.6480971704745	0.458268264491636	-4.80122622557694	-4.7913772919971	-0.000670436107680873	0.00057381963298847
0.59	0.132039373686865	0.646470962022675	580.571630795679	-36.7445180331473	0.484436292633134	-4.803674258809	-4.79585783325054	-0.000625668505877468	0.000707461444441879
0.6	0.101294076367271	0.690396105659262	580.795831905101	-36.823936004106	0.510211954133126	-4.80653137394718	-4.80071689023795	-0.000581427069702168	0.000822189512196259
0.61	0.0708016778567195	0.709772842545548	580.916824590908	-36.8855964593585	0.535195742022221	-4.8094795341949	-4.80563961887377	-0.000538368029757908	0.000917430730996815
0.62	0.0406325327083721	0.704377076508021	580.932493918722	-36.9296471428309	0.558984146278899	-4.81225839968295	-4.81035541276463	-0.000497166437860012	0.000993626647935647
0.63	0.0111124550460246	0.675031931676862	580.84589483375	-36.9571075790033	0.581185618847485	-4.814680857907	-4.81465196697162	-0.000458490800818565	0.00105216340253085
0.64	-0.0171659637184707	0.62355319853141	580.665140958895	-36.9697978498708	0.601436309830436	-4.81664397319643	-4.81838591596661	-0.000422976875680656	0.00109526176127531
0.65	-0.0433525521465796	0.552650542999326	580.403014399452	-36.9702298296156	0.619414941562649	-4.8181346399074	-4.82148937084247	-0.000391201621084914	0.00112583267894027
0.66	-0.0663695876564478	0.465789737938169	580.076312925906	-36.961465987284	0.634856232176336	-4.81922948672942	-4.82397186022232	-0.000363658363075713	0.00114730545440546
0.67	-0.0849616628364203	0.367023138911895	579.704967300468	-36.9469526588079	0.647562346201799	-4.8200888833983	-4.82591740990139	-0.000340734254642834	0.00116343685381222
0.68	-0.0977630841621622	0.260797194725347	579.310976197069	-36.9303361445155	0.657411932998983	-4.820945232694	-4.82747677020891	-0.000322691077156173	0.00117811047563593
0.69	-0.103379272380108	0.151746864609652	578.917218136371	-36.9152710126453	0.664366410581462	-4.82208607242218	-4.82885510224788	-0.000309650342023152	0.00119513607744823
0.7	-0.100477578982467	0.0444873433935324	578.546208278908	-36.9052305117541	0.668473258959807	-4.82383284362174	-4.83029574288869	-0.000301583499605794	0.0012180585422616
0.71	-0.0878821283774887	-0.0565865580926692	578.218872178088	-36.9033289716604	0.669866199918861	-4.82651648033999	-4.832060957622	-0.000298307852406281	0.0012499856283963
0.72	-0.0646668059883062	-0.147483663081061	577.953408349337	-36.9121654918285	0.668762255713581	-4.8304512209591	-4.83441083290773	-0.000299488509774969	0.00129344264229853
0.73	-0.030240384193096	-0.224773765643501	577.764306720375	-36.9336970996402	0.665455794183721	-4.83590821140087	-4.8375816308299	-0.000304646427212764	0.00135026074630186
0.74	0.015581967960598	-0.285712142940053	577.661580954637	-36.9691479640939	0.660309778955977	-4.84309055083803	-4.84176501009528	-0.000313172265181402	0.00142150383473544
0.75	0.0725259143801598	-0.32832632091985	577.650259840581	-37.018959259439	0.653744547421883	-4.85211141076637	-4.84708949885633	-0.000324345503569994	0.0015074368744703
0.76	0.139828068344046	-0.351462389482829	577.730167224602	-37.0827820009226	0.646224532703087	-4.86297673517949	-4.85360548669354	-0.0003373579818889	0.00160753641825157
0.77	0.216231879748751	-0.354790468181461	577.896002345938	-37.1595127540488	0.63824342545945	-4.87557380707852	-4.86127479530914	-0.000351340821911475	0.00172054177934935
0.78	0.300010703611912	-0.33877117005384	578.137714051925	-37.2473696942501	0.630308333822249	-4.88966665556768	-4.86996560801863	-0.000365393542974547	0.00184454322611442
0.79	0.38901786884148	-0.304586960151147	578.441144427963	-37.3440042131572	0.622923541818743	-4.90489889545498	-4.87945321014274	-0.000378614107088051	0.00197710163363179
0.8	0.480761957434288	-0.254044034410883	578.788901036453	-37.4466412712787	0.616574485729856	-4.92080415969564	-4.88942664104709	-0.000390128630329269	0.00211539242537327
0.81	0.572503979024109	-0.189451656682074	579.161403281001	-37.5522401090616	0.611712561971842	-4.93682382975858	-4.89950100793799	-0.000399119561145063	0.0022563654423573
0.82	0.66137177872209	-0.113486721651478	579.538038272211	-37.657665848171	0.608741348430176	-4.95233131748733	-4.90923488234993	-0.000404851243231718	0.00239691165997565
0.83	0.744485929649706	-0.0290516293806125	579.898355603951	-37.7598620095941	0.608004764054737	-4.96666173189303	-4.91815190873462	-0.000406691936827506	0.00253402747497794
0.84	0.819090600357962	0.060866630376494	580.223229004322	-37.8560140751054	0.609777610644798	-4.97914540181319	-4.92576551219101	-0.000404131554187297	0.0026649676179461
0.85	0.882682495877527	0.153328938377032	580.495915949051	-37.9436949147744	0.61425883911534	-4.98914344389746	-4.93160540679489	-0.000396794561418133	0.00278737858851892
0.86	0.933130971706285	0.245561852356961	580.702953756363	-38.0209841477984	0.621567764314012	-4.99608338413707	-4.93524448224345	-0.000384447701263088	0.00289940580870048
0.87	0.968782812344433	0.335055911164951	580.83484187865	-38.0865552136751	0.631743322800101	-4.99949277393497	-4.93632458840271	-0.000367002394107195	0.00299976936229651
0.88	0.988545927942587	0.4196411321469	580.886474282261	-38.1397259924308	0.644746332808737	-4.99902879593552	-4.9345797482288	-0.000344511873769859	0.00308780513089878
0.89	0.991947311838464	0.497538021787039	580.857301993754	-38.1804710911461	0.660464581370782	-4.99450203083356	-4.92985541260465	-0.000317163307884156	0.00316347022731191
0.9	0.97916195772007	0.567384011725376	580.75122300507	-38.2093962616287	0.678720437057596	-4.985892847091	-4.92212252820461	-0.000285265337075187	0.00322731373586839
0.91	0.951010982172637	0.628236689029491	580.576213648086	-38.2276776805194	0.699280574984286	-4.97335926651752	-4.91148542166703	-0.000249231638932712	0.00328041576587682
0.92	0.908928849270106	0.679556424243753	580.343731184695	-38.2369708658598	0.721867310214009	-4.95723562889478	-4.89818280629318	-0.000209561276470081	0.00332429958841939
0.93	0.854901254581304	0.721171948202075	580.067930734218	-38.2392956977987	0.746170972558065	-4.93802190143498	-4.88258158180873	-0.000166816719094195	0.00336082305325326
0.94	0.791376800809099	0.753233049116939	579.764749969193	-38.2369052555696	0.771862724744853	-4.91636402287629	-4.86516350739001	-0.000121600518286094	0.00339205649005184
0.95	0.721156994778863	0.776154842145406	579.45092166699	-38.2321469095281	0.798607230031806	-4.89302620412077	-4.84650526036365	-7.45316707278859e-05	0.0034201548329014
0.96	0.647270234105129	0.790558017723531	579.142976874936	-38.227324282812	0.826074615225487	-4.86885659396671	-4.82725281918941	-2.62226996681214e-05	0.0034472317461265
0.97	0.572836265321225	0.797209138953396	578.85630006534	-38.2245683259687	0.853951248700191	-4.8447481280687	-4.80809149744251	2.27415755806116e-05	0.00347524308272956
0.98	0.500928036965492	0.796964487253319	578.6042924232	-38.2257248695532	0.881948955410625	-4.82159668422877	-4.78971327300638	7.18227341756903e-05	0.00350588611519209
0.99	0.434437917358453	0.790720216895942	578.397690766899	-38.2322647065367	0.909812414375359	-4.80025884593771	-4.77278327424059	0.000120544243927247	0.00354051971224861
1	0.375954898444931	0.779370746429705	578.244078202167	-38.2452206074744	0.937324618706331	-4.78151161486289	-4.75790737993676	0.00016850330482021	0.00358010908895841
1.01	0.327658689652012	0.763776461165797	578.147609263351	-38.2651538052409	0.964310412606913	-4.76601630673018	-4.74560284960728	0.000215378858518513	0.00362519704319755
1.02	0.291235567818918	0.744740992320222	578.108957917331	-38.292150532004	0.990638242184087	-4.7542886184107	-4.73627372393778	0.000260935837022739	0.00367590183146746
1.03	0.267819559246412	0.72299763026472	578.125482349101	-38.3258472799022	1.01622035669449	-4.74667648135097	-4.7301924331868	0.000305025963629571	0.00373194015301745
1.04	0.257961071154931	0.699203862421611	578.191586847016	-38.365481712136	1.04101176541365	-4.74334684122951	-4.72748864639184	0.000347585613488806	0.00379267221697577
1.05	0.261623554824798	0.673942625146722	578.299249212004	-38.4099646807693	1.0650082873064	-4.74428195707406	-4.7281459180251	0.00038863136890042	0.00385716465767369
1.06	0.278207266565133	0.647728631464558	578.438672647242	-38.4579676967534	1.08824402454736	-4.74928523189715	-4.73200617875681	0.00042825395377586	0.00392426620838569
1.07	0.306597786720724	0.621018075289521	578.599014585373	-38.5080195041685	1.11078854919255	-4.75799601110514	-4.73878161295787	0.000466611200474955	0.00399269058263436
1.08	0.345235742631159	0.594220097118104	578.769141715517	-38.5586051614621	1.13274402118761	-4.76991225439883	-4.74807300567135	0.000503920599305658	0.00406110095202787
1.09	0.392203225293942	0.56770859538621	578.938360695712	-38.6082612233753	1.15424236470896	-4.78441953831377	-4.75939325921296	0.000540451824413501	0.00412819072619931
1.1	0.445321739014718	0.541833244768802	579.097077566828	-38.6556612145502	1.17544252985193	-4.8008245104084	-4.77219449990578	0.000576519444042197	0.00419275598269522
1.11	0.502256204548994	0.516928898530952	579.237345398097	-38.6996865299141	1.19652776995031	-4.81839071404702	-4.78589703491461	0.00061247583526896	0.00425375579087089
1.12	0.560619552426452	0.49332286943148	579.353268681832	-38.7394791077766	1.21770278286095	-4.83637464574446	-4.79991838379529	0.00064870415903676	0.0043103577393795
1.13	0.618072775286192	0.471339871007581	579.4412437951	-38.7744736052139	1.23919050721138	-4.85405999465172	-4.81370069536176	0.000685611131620647	0.00436196712244642
1.14	0.672415916883129	0.45130463504548	579.500026693706	-38.8044082612348	1.26122833906648	-4.87078823422568	-4.8267350550563	0.000723619267451758	0.0044082393797608
1.15	0.721666305031375	0.433542388328625	579.530631080547	-38.8293150615976	1.28406354455101	-4.8859840677582	-4.83858147120902	0.000763158271054417	0.00444907644233158
1.16	0.764121318408883	0.418377469228105	579.53607177897	-38.8494911277701	1.307947689814	-4.89917464283644	-4.84888367525398	0.000804655320070593	0.0044846085507496
