Time [s]	GRFml [N]	GRFap [N]	GRFv [N]	Mml [N.m]	Map [N.m]	Mv [N.m]	Mfree [N.m]	COPml [m]	COPap [m]
0.01	12.0291987119035	-4.72563978334854	572.759684676418	-46.2957063675463	-6.71599156686222	2.53169351602543	3.44874201891134	0.000668887515047973	0.00620199586131824
0.02	11.8543194814699	-4.53965129155436	572.919506363912	-46.101776257002	-6.76701151000024	2.31232776077664	3.21286637153332	0.000587413748731537	0.00584805155413934
0.03	11.6817282745812	-4.35953351889284	573.077046830466	-45.9109642743624	-6.81576172852444	2.09718151484796	2.98152755567799	0.00050805303453638	0.0054975995715633
0.04	11.5135820503233	-4.1898656799237	573.229602707242	-45.7262630652579	-6.86024340913751	1.89020707791711	2.75886883331112	0.000434341093882509	0.00515632984661078
0.05	11.3519006184462	-4.03483512450027	573.374701758009	-45.5504323564239	-6.89854695082521	1.69505033401713	2.5487068888586	0.000369750794979511	0.00482961121984236
0.06	11.1985067652326	-3.89803869316507	573.510192543828	-45.3859027146877	-6.92894163920393	1.51490728966323	2.35438501287015	0.000317517996519535	0.00452228648310483
0.07	11.0549692376158	-3.78231805070185	573.634310500418	-45.2346961696341	-6.94995559660564	1.35240546053165	2.1786520851022	0.000280479788367026	0.00423849432259898
0.08	10.9225506784657	-3.68963835758546	573.745717000831	-45.0983676519298	-6.96044175251826	1.20951609467953	2.02357316103806	0.000260935077610278	0.00398152905039209
0.09	10.8021630421584	-3.62101638752319	573.843510322333	-44.9779700459189	-6.95962665206405	1.08750106548394	1.89047530828168	0.000260535553149522	0.00375374656860672
0.1	10.6943332294744	-3.57650071433453	573.927209776388	-44.8740442811435	-6.94714011793098	0.986895961421777	1.77993007780329	0.000280212627926456	0.0035565217544907
0.11	10.599181603409	-3.55520315270144	573.996716370171	-44.7866343771317	-6.92302500959557	0.90752862162802	1.69177179683221	0.000320143251767692	0.00339025869233081
0.12	10.5164156682521	-3.55537748364938	574.052255061153	-44.7153258162373	-6.88772750015706	0.848570275577788	1.62514887556605	0.000379754761992012	0.00325445128401917
0.13	10.4453405389678	-3.57453881531888	574.094304810369	-44.6593041690907	-6.84206934737614	0.808614673335542	1.57860363665585	0.000457766424493222	0.00314778813282758
0.14	10.3848869534035	-3.60961485576308	574.123523166203	-44.6174296538478	-6.78720451950332	0.785779235766435	1.55017487870198	0.00055226320118263	0.00306829256467397
0.15	10.3336565643151	-3.65711898493846	574.140672015235	-44.5883223779513	-6.72456321295165	0.777821369990745	1.53751651472944	0.000660795685727227	0.00301348649604176
0.16	10.2899831807642	-3.71333433390917	574.146550477213	-44.5704524689542	-6.65578674899568	0.782262704094787	1.538025197071	0.000780499136566554	0.00298056573666644
0.17	10.2520075995704	-3.77449809149889	574.141939804023	-44.562229195264	-6.58265705677728	0.796514081078369	1.54896983977795	0.000908224099189697	0.00296657426874673
0.18	10.2177627604845	-3.8369759057546	574.127563707936	-44.5620835160597	-6.50702444952028	0.817994668940394	1.56761634609881	0.00104067119276865	0.00296856600299406
0.19	10.1852652430158	-3.89741744407135	574.104065948626	-44.5685392499132	-6.43073720050577	0.844239421178537	1.59134159155598	0.00117452315019467	0.00298374431602522
0.2	10.1526086492309	-3.95288581489918	574.072005405891	-44.5802691446276	-6.35557605406268	0.872990272454946	1.6177317379857	0.00130656804098723	0.00300957210283853
0.21	10.1180542150534	-4.00095551482378	574.031867393011	-44.5961334669882	-6.28319629969645	0.902267781211222	1.64466118451635	0.00143380866970453	0.00304384788035535
0.22	10.0801140707367	-4.03977571902941	573.984088733025	-44.6152001904968	-6.21507943340317	0.930421336211093	1.67034981411264	0.00155355433591249	0.00308474639675797
0.23	10.0376229172151	-4.06809795027266	573.929093200022	-44.6367473130873	-6.15249576973271	0.956157433675691	1.69339758197639	0.0016634923889397	0.00313082499722034
0.24	9.98979446967866	-4.08526931429614	573.867333355681	-44.6602491607023	-6.09647869150805	0.978546822330717	1.71279682940711	0.0017617382504633	0.00318099946281289
0.25	9.9362598004804	-4.09119445903244	573.799334588556	-44.6853496180375	-6.04781056946081	0.997012436032163	1.72792391531178	0.00184686376091139	0.00323449501187803
0.26	9.87708563900795	-4.08627109491375	573.725737261639	-44.7118259927367	-6.00701978593942	1.01130093536437	1.73851277116773	0.00191790478897754	0.00329077951719042
0.27	9.81277170062008	-4.07130521569882	573.647333243132	-44.7395476155319	-5.9743877847478	1.02144132673839	1.74461375421088	0.00197434998764087	0.00334948668573962
0.28	9.74422716365936	-4.04741301717343	573.565093674279	-44.7684332950964	-5.94996466620341	1.02769450460293	1.74654166798325	0.0020161133475304	0.00341033696332903
0.29	9.67272743890787	-4.0159168847083	573.480185550418	-44.7984114080583	-5.93359156840008	1.03049767161224	1.74481703032579	0.00204349375587735	0.00347306330900628
0.3	9.5998533304752	-3.97824269909952	573.393975493588	-44.8293857690088	-5.92492793000565	1.03040745111027	1.74010460832355	0.00205712509145872	0.00353734782926536
0.31	9.52741552826013	-3.93582511367589	573.3080199206	-44.8612095739396	-5.92348171575514	1.02804514777099	1.73315293781818	0.00205792046086325	0.00360277370437809
0.32	9.45736806447248	-3.89002643590992	573.224041612839	-44.8936687391296	-5.92864079371529	1.02404707799537	1.72473804657074	0.00204701401460298	0.00366879504283782
0.33	9.39171488276062	-3.84207338439984	573.14389343667	-44.9264749653548	-5.93970386621409	1.01902223137428	1.71561395919703	0.00202570339819994	0.00373472544096097
0.34	9.33241398875504	-3.7930143922285	573.069510619942	-44.9592679368601	-5.95590965032719	1.01351879170941	1.70647183704798	0.00199539533739337	0.00379974427430159
0.35	9.28128376367834	-3.74369841276464	573.002853542659	-44.9916252927612	-5.97646335052766	1.00800029457593	1.69790885486489	0.00195755618705132	0.00386291825445982
0.36	9.23991592419562	-3.69477448442808	572.945843438215	-45.0230784406554	-6.00055983453883	1.00283147895277	1.69040719074333	0.00191366855795333	0.00392323466125043
0.37	9.20959930564432	-3.64670975479702	572.900293721512	-45.0531319485841	-6.02740328255288	0.998273247601013	1.68432285074048	0.0018651944430759	0.00397964197226922
0.38	9.1912581436086	-3.59982236645386	572.867839862678	-45.0812841575148	-6.05622340124122	0.994485620453263	1.67988349799947	0.00181354465732623	0.00403109337698181
0.39	9.18540784963704	-3.55432465880531	572.849870814736	-45.1070467853085	-6.08628855366192	0.991537172471515	1.67719403088292	0.00176005393036679	0.00407658885242854
0.4	9.19213044762046	-3.51037160251666	572.847464987201	-45.1299616102039	-6.11691633724769	0.989419205725918	1.67624836642881	0.00170596068179024	0.00411521202769667
0.41	9.21107089232491	-3.46810928114336	572.861333642561	-45.1496127808617	-6.14748223549129	0.988062816462043	1.67694573517412	0.00165239037201001	0.00414615888524354
0.42	9.24145447207822	-3.42771855592925	572.891774385412	-45.1656338488527	-6.17742697415155	0.987357072129565	1.67910977265241	0.00160034135212633	0.00416875633865232
0.43	9.28212445066741	-3.38944974780137	572.938637118931	-45.1777092056219	-6.20626313733863	0.987166691588934	1.6825087858389	0.0015506723067188	0.00418246978926598
0.44	9.33159808022776	-3.35364516965293	573.001304462872	-45.1855701807882	-6.23358145730821	0.987347897412712	1.68687575810495	0.00150409065832282	0.00418689980960792
0.45	9.38813817022234	-3.32074754587409	573.078688162338	-45.1889865802489	-6.25905700414958	0.987761450991673	1.69192690890026	0.00146114163826479	0.00418176905689098
0.46	9.44983657952768	-3.29129365791816	573.169242469301	-45.187754877328	-6.28245529093543	0.988282255756836	1.6973779179272	0.00142219808156616	0.00416690133052638
0.47	9.51470535713042	-3.26589384711334	573.270994854857	-45.1816845931661	-6.30363810033737	0.988805288833857	1.70295723198431	0.00138745133337609	0.00414219531549842
0.48	9.58077083268577	-3.24519919022289	573.38159372147	-45.17058459707	-6.32256865283287	0.989247967833324	1.70841617216184	0.00135690392743065	0.00410759597473467
0.49	9.64616578140743	-3.22985915658712	573.498372051971	-45.1542511146377	-6.3393155936965	0.989549353598368	1.71353582964771	0.00133036488889412	0.00406306675452908
0.5	9.70921487539603	-3.22047329588403	573.618425186058	-45.1324591492239	-6.35405519033785	0.989666814639953	1.71813096485106	0.00130744860973433	0.00400856574164374
0.51	9.76850898711597	-3.21754095334191	573.738700194747	-45.1049588053604	-6.36707111172977	0.989570925091915	1.72205129710377	0.00128757823875375	0.00394402865933741
0.52	9.82296451530436	-3.22141314819851	573.856093673201	-45.0714776623413	-6.37875120999189	0.989239432989425	1.72518068660415	0.00126999442268954	0.00386936111972261
0.53	9.87186472767659	-3.23225058604636	573.967554238974	-45.0317299002152	-6.38958083706563	0.988651123793364	1.72743476738393	0.00125377003794896	0.00378444187822442
0.54	9.91488111186461	-3.24999132955499	574.070185648175	-44.9854323537199	-6.40013239806847	0.987780325078247	1.7287575950846	0.00123783127800962	0.00368913799137469
0.55	9.95207383726781	-3.27433096326349	574.161346260138	-44.932327093824	-6.41105105446504	0.986592665896057	1.72911783460632	0.00122098512646188	0.0035833318053379
0.56	9.98387158869398	-3.30471720702633	574.23874061283	-44.8722095491797	-6.42303672887181	0.985042534643441	1.72850494056761	0.00120195287021821	0.00346695865892847
0.57	10.0110321669266	-3.34035991857173	574.30049912246	-44.8049606231085	-6.43682281170721	0.983072489241616	1.72692568899055	0.00117940891411984	0.00334005314549919
0.58	10.0345862922299	-3.38025634395833	574.345242382075	-44.730580779886	-6.45315221011024	0.980614679453752	1.72440131225816	0.00115202377166728	0.00320280082734946
0.59	10.0557679313443	-3.42323039447034	574.372127181353	-44.649223709721	-6.47275159424296	0.977594157872813	1.72096538045771	0.00111850975300012	0.00305559152190212
0.6	10.0759351448267	-3.46798371945741	574.380872167523	-44.5612269721605	-6.49630486943504	0.973933795675947	1.71666246826829	0.00107766757714152	0.00289906976268862
0.61	10.096485882455	-3.51315547440233	574.371761970967	-44.4671369903247	-6.52442702118094	0.969560390880525	1.71154755330397	0.00102843192636996	0.00273417784621738
0.62	10.1187733198375	-3.55738701401202	574.345629579498	-44.3677259378579	-6.5576395335285	0.964411466689955	1.7056860134313	0.000969913858583376	0.00256218704903426
0.63	10.1440252275881	-3.59938732358614	574.303817712638	-44.2639984255222	-6.59634856364113	0.95844220872554	1.69915402998784	0.000901438015163026	0.00238471314651141
0.64	10.1732715115313	-3.63799487639731	574.248120874133	-44.1571864369575	-6.64082696459858	0.951631982878784	1.69203916315812	0.000822572715499154	0.00220371325917799
0.65	10.207283490411	-3.67223178986731	574.18071060562	-44.0487316492756	-6.69120108811069	0.943989908098188	1.6844408465242	0.000733151313419651	0.00202146223180907
0.66	10.2465277314181	-3.70134664628058	574.104047192058	-43.9402550563413	-6.74744307704057	0.935559026425785	1.67647055087852	0.000633283592760863	0.0018405081232533
0.67	10.2911363973059	-3.72484311749919	574.020781653595	-43.833514633846	-6.80936908737515	0.926418710011819	1.66825139276275	0.00052335647610008	0.00166360783859526
0.68	10.3408951301391	-3.74249253592327	573.933652279315	-43.7303525842984	-6.87664357726618	0.916685064222615	1.65991700960913	0.000404023879983532	0.00149364534826539
0.69	10.3952485638543	-3.75432971206644	573.84538020236	-43.6326344167493	-6.94878948634194	0.906509218846982	1.65160958791373	0.000276186133165324	0.00133353619371865
0.7	10.4533226744899	-3.76063252221945	573.758568573939	-43.5421826969761	-7.0252038221538	0.896073536751476	1.64347700884881	0.000140959939846388	0.00118612297523317
0.71	10.5139623890074	-3.76188697850357	573.67560975967	-43.4607087067132	-7.10517789238338	0.885585902017106	1.63566916070408	-3.59622906330806e-07	0.00105406717950163
0.72	10.5757822165671	-3.75874054938376	573.59860465247	-43.3897454475992	-7.18792118922221	0.875272368983338	1.62833355186733	-0.000146343171264655	0.000939742990989353
0.73	10.6372271636856	-3.75194733290094	573.529297672735	-43.3305854054395	-7.27258776058394	0.865368552175353	1.62161043357427	-0.000295474950721014	0.000845138634386858
0.74	10.6966408585766	-3.74230922821095	573.46903031658	-43.2842262583044	-7.3583038013943	0.856110208879158	1.61562770074053	-0.000446202296748865	0.000771770341600142
0.75	10.7523376405066	-3.73061746040569	573.418715233622	-43.2513272883508	-7.44419517181159	0.847723507360665	1.61049587571597	-0.000596984268371131	0.000720613278611504
0.76	10.8026753576982	-3.71759867629488	573.378831796838	-43.2321786753832	-7.52941359719893	0.840415483062381	1.60630349003053	-0.00074633723718847	0.000692052777659491
0.77	10.8461257450628	-3.70386936325533	573.349443012317	-43.2266851528901	-7.61316042130345	0.834365163781727	1.60311316230364	-0.000892875473976765	0.000685858081544699
0.78	10.8813394986678	-3.6899015965235	573.330232463643	-43.2343647433049	-7.694706959389	0.829715796444915	1.60095862865779	-0.00103534513664942	0.000701179604547741
0.79	10.9072035028294	-3.67600216289019	573.320558862383	-43.2543625091409	-7.77341071871245	0.826568538145697	1.59984292006975	-0.00117265049849385	0.00073656952834894
0.8	10.9228880737128	-3.66230602696262	573.319524756805	-43.2854785093853	-7.84872700432749	0.824977889305748	1.59973780589956	-0.00130387173270048	0.00079002445093071
0.81	10.9278825381466	-3.64878399333847	573.326055108087	-43.3262084800724	-7.92021569247034	0.824949054158193	1.60058454210219	-0.00142827405673038	0.000859047847487054
0.82	10.9220179492719	-3.63526336552529	573.338980841371	-43.3747952007067	-7.98754321572862	0.826437319799763	1.60229588401459	-0.00154530850851775	0.000940729325476425
0.83	10.905476236739	-3.62145949122515	573.357122167335	-43.4292880910235	-8.05048004905101	0.829349455195198	1.60475925377494	-0.00165460505008845	0.00103183708648782
0.84	10.8787855869834	-3.6070153775969	573.379366478052	-43.4876083215484	-8.1088942006031	0.833547049595061	1.60784089632412	-0.00175595905184124	0.00112891965635371
0.85	10.8428023395721	-3.59154610159472	573.40473595616	-43.5476166214098	-8.16274138613764	0.838851638044654	1.61139081843164	-0.00184931248664233	0.00122841280935031
0.86	10.7986801607268	-3.57468454812945	573.432440684108	-43.6071810218343	-8.21205269227285	0.845051400763058	1.61524828300367	-0.00193473134647098	0.00132674767782399
0.87	10.7478277065902	-3.55612507814704	573.461913965809	-43.6642419677856	-8.25692060808088	0.851909172854307	1.61924762487391	-0.00201238088022475	0.00142045628026943
0.88	10.6918564070343	-3.53566203489218	573.492827724963	-43.7168725392087	-8.29748432383068	0.859171460238162	1.62322416166134	-0.00208250023902561	0.00150627108547534
0.89	10.632520374386	-3.51322049872961	573.52508715804	-43.7633319172033	-8.33391516169029	0.8665781259876	1.62701999047892	-0.00214537800937402	0.00158121571856185
0.9	10.57165075714	-3.48887734743964	573.558805220826	-43.802110675653	-8.36640291963564	0.873872387944294	1.63048948432574	-0.00220132992393182	0.00164268446413211
0.91	10.5110871022102	-3.46287141353246	573.594258933595	-43.8319669411099	-8.39514378344358	0.88081075368146	1.63350432713916	-0.00225067977834171	0.00168850879007834
0.92	10.4526084461496	-3.43560229694843	573.631830814423	-43.8519529107252	-8.42033030165971	0.887172513391578	1.63595795065139	-0.00229374426838962	0.00171700966413671
0.93	10.3978669131864	-3.40761813943531	573.671939903616	-43.8614316217388	-8.44214373608861	0.89276841642306	1.6377692573377	-0.00233082211675166	0.00172703493229899
0.94	10.3483265460308	-3.37959335254838	573.714967736725	-43.8600842048436	-8.46074890838968	0.897448174558783	1.63888553101653	-0.00236218750695683	0.00171798145150394
0.95	10.3052099288239	-3.35229788033137	573.761185178051	-43.8479081138296	-8.47629147521653	0.901106466199021	1.63928445044023	-0.00238808750961339	0.00168980200795106
0.96	10.2694548803257	-3.3265600451258	573.810686173503	-43.8252070001533	-8.48889739324944	0.903687161365697	1.63897513293437	-0.00240874289724508	0.00164299730829756
0.97	10.2416831054571	-3.30322535359202	573.863334175856	-43.7925729971475	-8.49867419350787	0.905185548018941	1.63799814699295	-0.00242435152130352	0.00157859351675538
0.98	10.2221822065633	-3.28311381974091	573.918726221646	-43.7508622063975	-8.50571358143126	0.90564841459071	1.6364244472477	-0.00243509328520875	0.00149810594905389
0.99	10.2109018899314	-3.26697838823338	573.976178419723	-43.7011641571522	-8.51009482236447	0.905171929672995	1.6343532048306	-0.00244113570108792	0.001403489653202
1	10.2074645810092	-3.25546691552681	574.03473501061	-43.6447659622382	-8.51188836469211	0.903897354030995	1.63190853274672	-0.00244263906781484	0.00129707773842132
1.01	10.2111900106212	-3.24908989561024	574.093201279573	-43.5831118468738	-8.51115919447164	0.902004718136712	1.62923514052236	-0.00243976044825263	0.0011815084873016
1.02	10.221132684785	-3.24819571488237	574.150198597752	-43.5177587055316	-8.50796950168876	0.89970469518076	1.62649299505654	-0.00243265584059264	0.00105964252595554
1.03	10.2361305349882	-3.25295470893253	574.204237895736	-43.4503283684252	-8.50238036134713	0.897228989730563	1.62385111404759	-0.00242148021197139	0.000934471646664631
1.04	10.254862496896	-3.2633527029248	574.253806126105	-43.3824573484762	-8.49445228172987	0.894819640753218	1.62148067214035	-0.00240638536687431	0.000809021278207728
1.05	10.2759123148916	-3.27919408554831	574.297458924642	-43.3157449977704	-8.48424463445084	0.892717700042513	1.61954765447283	-0.0023875159303424	0.000686249066817218
1.06	10.2978355456937	-3.30011383917302	574.33391188821	-43.2517012244928	-8.47181414230168	0.891151789423434	1.61820534311138	-0.00236500400864619	0.00056894253606006
1.07	10.3192265592709	-3.32559737425141	574.362122761613	-43.1916951902668	-8.45721274718554	0.890327059682301	1.61758696388386	-0.00233896332197413	0.000459619292923652
1.08	10.3387823248348	-3.35500654110243	574.381357417249	-43.1369066954373	-8.44048529823164	0.890415069304481	1.61779884916125	-0.00230948376302247	0.000360433684260836
1.09	10.3553599302979	-3.38760985734298	574.391233800792	-43.0882822283104	-8.42166757789988	0.891545071255492	1.61891448145001	-0.00227662740608043	0.000273094119433395
1.1	10.3680251113954	-3.42261482291909	574.39173991014	-43.0464978595485	-8.40078521253175	0.893797141846405	1.62096976955093	-0.00224042696389842	0.000198795396983337
1.11	10.3760895468384	-3.45920020947049	574.383224210449	-43.0119312587273	-8.37785398775787	0.897197508991254	1.62395987148476	-0.00220088756219334	0.000138170246447286
1.12	10.3791352826701	-3.49654640084163	574.36635944596	-42.9846450536899	-8.35288200674528	0.901716340871154	1.62783781648195	-0.00215799247931334	9.12638748664374e-05
1.13	10.3770253470933	-3.53386220282871	574.342083334803	-42.9643835107759	-8.32587399309984	0.907268144269852	1.63251509458564	-0.00211171319368032	5.75345648683029e-05
1.14	10.3699003637117	-3.57040699287336	574.311521862563	-42.9505840654169	-8.29683785746195	0.913714799770588	1.63786428169761	-0.00206202371301959	3.5882306953991e-05
1.15	10.358161719548	-3.60550759354488	574.275902581288	-42.9424045766634	-8.26579342895077	0.920871134598629	1.64372365710156	-0.0020089187516556	2.47060921380465e-05
1.16	10.3424425471529	-3.63856977175151	574.236466279479	-42.938766336162	-8.23278301504542	0.928512809749551	1.64990365786657	-0.00195243490449999	2.19889028177794e-05
1.17	10.3235683939084	-3.66908473526907	574.194385495901	-42.9384118746067	-8.19788321478396	0.93638618297704	1.65619490872401	-0.00189267357113276	2.54077095434707e-05
1.18	10.3025099396485	-3.69663137441565	574.150697576758	-42.9399755404561	-8.16121719080628	0.944219709793785	1.66237747505267	-0.00182982404422796	3.24640234951878e-05
