Time [s]	GRFml [N]	GRFap [N]	GRFv [N]	Mml [N.m]	Map [N.m]	Mv [N.m]	Mfree [N.m]	COPml [m]	COPap [m]
0.01	16.1375291202446	-11.354423185092	580.200326320558	-49.723689627927	-7.67593906639296	1.27468056821072	2.50759909401618	-0.0130163507841403	0.00278030358345344
0.02	16.2744741674615	-10.7713582663648	580.687543084756	-49.6138626926735	-7.66693050752147	1.18579098758309	2.43412653684643	-0.0129868923010803	0.00251577775040725
0.03	16.4104881525327	-10.1983189293865	581.161372515406	-49.5009008240086	-7.6581513298161	1.09841000835775	2.36181213872853	-0.0129589279807485	0.00225024901644529
0.04	16.5437645064191	-9.64520050560346	581.610602233077	-49.3845651582058	-7.64956622127115	1.01393852863168	2.29179510651464	-0.0129326217908938	0.00198489791910272
0.05	16.6724969374569	-9.12120531435478	582.024856806544	-49.2648423478764	-7.64106440160869	0.933678752853813	2.22513320654854	-0.0129079629780117	0.0017210694198901
0.06	16.7949164470144	-8.63450133551291	582.395059377327	-49.1420297427945	-7.63245594002946	0.858787777478108	2.16276488258202	-0.0128847535715938	0.00146036253470039
0.07	16.909331362093	-8.19193268804094	582.713823339496	-49.0168002895613	-7.62347386865822	0.790237443525363	2.10547674485405	-0.0128626078791704	0.00120469949069403
0.08	17.0141696935152	-7.79879560081591	582.975752773287	-48.8902409259634	-7.61378220813881	0.728782356210984	2.05387800883995	-0.0128409644801532	0.000956366014150903
0.09	17.1080224535113	-7.45868945917006	583.177636689839	-48.7638605106492	-7.60298940938733	0.674937601336557	2.00838311148583	-0.0128191100773184	0.000718017182952627
0.1	17.1896859856605	-7.17344794840585	583.318529222804	-48.639565765345	-7.59066615675964	0.628967219100888	1.96920330008784	-0.0127962134553713	0.000492646284359993
0.11	17.258200954943	-6.94315062755518	583.399715149037	-48.5196060999959	-7.57636603357999	0.590883951742357	1.93634750393613	-0.012771366848021	0.000283517043082007
0.12	17.3128854691047	-6.76621078090856	583.424567012051	-48.4064903645831	-7.559647263968	0.560460194200341	1.90963229662895	-0.0127436313272654	9.40622392904683e-05
0.13	17.3533598781314	-6.63953140639014	583.398306199908	-48.302880392094	-7.54009363856661	0.537249484252151	1.88870027311268	-0.0127120824693098	-7.22460014697668e-05
0.14	17.3795611215928	-6.55871794815866	583.327685230472	-48.2114675772815	-7.51733281007963	0.52061730934304	1.87304573155916	-0.0126758525530511	-0.000212047165863816
0.15	17.3917450339197	-6.5183340337631	583.220611974034	-48.1348396308782	-7.49105039364494	0.509779518538668	1.86204619092159	-0.0126341659041373	-0.000322256176203115
0.16	17.3904757249711	-6.51218512173582	583.085738475879	-48.0753450532739	-7.46099869824301	0.503846241459663	1.85499800732894	-0.0125863646695277	-0.000400230904385721
0.17	17.3766019629731	-6.5336146110984	582.932037434548	-48.0349628124336	-7.42699940867892	0.501868955776191	1.85115418579259	-0.0125319232234644	-0.000443933909840752
0.18	17.3512213273425	-6.57579754334667	582.768388364246	-48.0151842401936	-7.38894008643702	0.502888225523182	1.84976242113263	-0.0124704504733991	-0.00045207913279037
0.19	17.3156336980839	-6.63201841202607	582.60319323389	-48.0169133480992	-7.34676491270733	0.50597965863541	1.8501014419024	-0.0124016804498365	-0.000424254939622656
0.2	17.2712863407168	-6.69592161213786	582.444038207542	-48.0403906868943	-7.30046061067378	0.510295798111849	1.85151386808318	-0.0123254526227821	-0.000361016018741084
0.21	17.2197133771104	-6.76172551253923	582.297414323408	-48.0851446131886	-7.25003891466513	0.515101952362293	1.85343401907666	-0.0122416842946738	-0.000263938116311743
0.22	17.1624727650012	-6.82439381359978	582.16850585741	-48.1499724600864	-7.19551726724974	0.519804364247791	1.8554094116082	-0.0121503380985943	-0.000135631415412646
0.23	17.1010840224312	-6.87976056463375	582.061051016653	-48.2329527060063	-7.13689959846989	0.523969587230144	1.85711505269839	-0.0120513880286152	2.02895899103772e-05
0.24	17.0369698269782	-6.92460779087899	581.977275748738	-48.3314878584846	-7.07415906245931	0.527334449745142	1.85836004222678	-0.0119447875210239	0.000199279703025398
0.25	16.9714043107735	-6.95669698284644	581.917898028318	-48.4423764681207	-7.00722447593575	0.529806513292126	1.85908643052542	-0.0118304428932973	0.000395977925365526
0.26	16.9054703940049	-6.97475763700762	581.882197123203	-48.5619115025541	-6.93597193223162	0.531455434877124	1.85936070383311	-0.0117081949598695	0.000604359428066109
0.27	16.8400278970677	-6.97843755281519	581.868140116687	-48.6860012729025	-6.86022267552333	0.532496102541887	1.85935866806475	-0.0115778109292185	0.000817918604194251
0.28	16.7756934973255	-6.96822067231674	581.872556382964	-48.8103082390921	-6.77974784288438	0.533264800544724	1.85934484398595	-0.0114389878106254	0.00102987580853521
0.29	16.7128329052868	-6.94531891302371	581.891349745009	-48.9304003432952	-6.69428015265979	0.534189960800735	1.85964775279913	-0.0112913675957745	0.00123339942680409
0.3	16.6515649784741	-6.9115447346702	581.919737622139	-49.0419090444634	-6.60353207541303	0.535759258227368	1.86063264437805	-0.011134563507775	0.00142183441820827
0.31	16.5917769129652	-6.86917115415365	581.95250650947	-49.1406879597566	-6.50721950747209	0.538484904992803	1.86267329242549	-0.0109681957025852	0.00158892843053628
0.32	16.5331491844681	-6.8207856454306	581.984273525698	-49.2229659649094	-6.40508951346742	0.542868993975618	1.86612445143338	-0.0107919340307189	0.00172904694237849
0.33	16.4751885707877	-6.76914389703138	582.009744421523	-49.2854887660863	-6.29695034478467	0.549370642404408	1.87129644731482	-0.0106055448727766	0.00183736956124782
0.34	16.4172673791963	-6.71702880727867	582.023959269433	-49.3256433276474	-6.18270170018524	0.558376504857646	1.87843317165758	-0.0104089386866706	0.00191006050431243
0.35	16.3586669158669	-6.66711942399795	582.022517981679	-49.3415601162845	-6.06236308930017	0.57017597638258	1.8876944884007	-0.0102022147655534	0.00194440731834014
0.36	16.2986232502222	-6.62187381703741	582.001778771346	-49.3321888900466	-5.93609819649334	0.584942109512404	1.89914376371063	-0.00998569980394839	0.00193892298388999
0.37	16.2363734184197	-6.58342913169046	581.959023646554	-49.297344703014	-5.80423331964361	0.602718942379926	1.91274091758659	-0.00975997719000115	0.00189340765191619
0.38	16.171200348906	-6.55352132211019	581.892585997381	-49.2377218885471	-5.66726826467464	0.623415597497683	1.92834109012552	-0.00952590445553447	0.00180896736925265
0.39	16.1024749531384	-6.53342631137682	581.801936306941	-49.1548749949722	-5.52587849302502	0.646807179156294	1.94569873386905	-0.00928461698443686	0.00168798828501106
0.4	16.0296939864167	-6.52392357024871	581.687723017774	-49.0511669390387	-5.380907819726	0.672542186511965	1.96447669921053	-0.00903751685964098	0.00153406603658639
0.41	15.9525124363367	-6.52528235049429	581.551766649936	-48.9296859694806	-5.23335151319647	0.700155881162645	1.98425968052268	-0.0087862465728522	0.00135189134174155
0.42	15.8707693385083	-6.53727005453093	581.397006440119	-48.7941343446629	-5.08433021992264	0.729088811174485	2.00457123977889	-0.00853264818290777	0.0011470943098386
0.43	15.7845060589884	-6.55918147964761	581.22740008929	-48.6486928693144	-4.93505569246303	0.75870950401253	2.02489352119133	-0.00827870934414211	0.000926051637941822
0.44	15.6939762353781	-6.58988695790905	581.047778692395	-48.4978665481576	-4.78678980352239	0.788340201991015	2.04468871094844	-0.00802649839484294	0.000695662638779432
0.45	15.5996467521592	-6.6278967445048	580.863660575974	-48.3463175415399	-4.64079875138606	0.817284426976956	2.06342127494391	-0.00777809136121043	0.0004631018680928
0.46	15.5021893581116	-6.67143841634647	580.681029554837	-48.1986922959017	-4.49830467740225	0.844855125904437	2.08058001851648	-0.00753549426172572	0.000235557839651707
0.47	15.4024628269592	-6.71854356129849	580.506084967917	-48.0594501226422	-4.36043710600925	0.870402163790547	2.09569905056517	-0.00730056446242008	1.99687605915433e-05
0.48	15.3014859204369	-6.7671396990455	580.344972661851	-47.9327005752817	-4.2281866716273	0.89333799405691	2.10837679656479	-0.00707493501215262	-0.000177232804891667
0.49	15.2004018284952	-6.8151432061626	580.203507724711	-47.8220567029563	-4.10236351264784	0.91316044379959	2.11829228961229	-0.00685994586188476	-0.000350354109729847
0.5	15.1004352154402	-6.86054904180667	580.086901078668	-47.7305106311803	-3.98356249713355	0.929471699904174	2.12521807610449	-0.00665658563451818	-0.000494643464592062
0.51	15.002843463916	-6.90151329691339	579.999502862038	-47.6603369508926	-3.87213711162117	0.941992765007822	2.12902920432472	-0.00646544716407375	-0.000606448092326878
0.52	14.9088641432462	-6.93642501574404	579.944575723763	-47.6130281175929	-3.76818341386089	0.950572863283433	2.12970792106917	-0.00628669937948101	-0.000683320298364584
0.53	14.8196610932191	-6.96396434652737	579.924110604093	-47.5892645288796	-3.67153494751037	0.955193506406046	2.12734388254144	-0.00612007729786239	-0.000724066532471881
0.54	14.7362717681529	-6.98314483638049	579.938696219064	-47.5889202360399	-3.58176896993454	0.955967170037206	2.12212988690129	-0.00596489095808597	-0.000728737302464533
0.55	14.6595585941354	-6.99333855151241	579.987451300044	-47.6111034454953	-3.49822378299066	0.953130769848912	2.11435334879313	-0.00582005312325368	-0.000698559523119563
0.56	14.5901670304227	-6.99428362530713	580.068025729488	-47.6542291826125	-3.4200264104966	0.947034352067475	2.10438394854375	-0.00568412457523052	-0.000635816433635847
0.57	14.5284927841412	-6.98607475827598	580.176673197573	-47.7161198323694	-3.34612936290154	0.938125615429103	2.09265808505938	-0.00555537488314169	-0.000543683387450658
0.58	14.4746602119859	-6.96913805908081	580.308394083739	-47.7941278444436	-3.27535479458316	0.926931048890309	2.07966092511871	-0.00543185571546257	-0.000426030342336348
0.59	14.4285133762099	-6.9441923730803	580.457143196297	-47.8852737890621	-3.2064440133589	0.914034593744886	2.06590695734376	-0.00531148313631154	-0.000287203560852087
0.6	14.389620541816	-6.91219985026628	580.616093067398	-47.9863922498065	-3.13811006159128	0.900054813771471	2.05192001500959	-0.00519212491945859	-0.000131799765891352
0.61	14.3572921550189	-6.87430892506742	580.777939992431	-48.0942777899425	-3.06909096454033	0.88562157955769	2.03821372224453	-0.00507168874753094	3.55542269044884e-05
0.62	14.330611583035	-6.83179309638063	580.935237195936	-48.2058234483633	-2.99820123919518	0.871353243524036	2.0252732443001	-0.00494820723757806	0.000210404481397752
0.63	14.3084771758307	-6.78598890167197	581.080737628982	-48.3181448953959	-2.92437937424359	0.857835204165946	2.01353909266883	-0.00481991602737275	0.000388645436302432
0.64	14.2896535808813	-6.7382362828278	581.207728117505	-48.428684460295	-2.84672922140237	0.84560063859493	2.00339356399969	-0.00468532163455588	0.000566660220124082
0.65	14.2728297429222	-6.68982416599673	581.310336965499	-48.5352906545653	-2.76455356641902	0.835114031170445	1.9951501959376	-0.00454325641849157	0.000741420787970321
0.66	14.2566806811405	-6.64194355706789	581.383798657454	-48.636270457902	-2.67737855584902	0.826757954303541	1.98904642243252	-0.00439291868426811	0.000910545703358218
0.67	14.2399299721354	-6.59564983182865	581.424661895296	-48.7304133902053	-2.58496812022494	0.820823377714496	1.9852394237205	-0.00423389672281589	0.00107231612878113
0.68	14.2214098805933	-6.55183522394952	581.430930657458	-48.8169881407251	-2.48732802963633	0.817503606750206	1.98380500667722	-0.0040661763389086	0.0012256530820282
0.69	14.2001162607001	-6.51121183510613	581.402132026958	-48.8957141438528	-2.38469971692409	0.81689178988821	1.98473922935971	-0.00389013214540438	0.00137006112755786
0.7	14.1752556787949	-6.47430485769427	581.339308903728	-48.9667118727653	-2.27754447994245	0.818981799309424	1.98796240363962	-0.00370650357074313	0.00150554530567748
0.71	14.1462826524519	-6.4414551533473	581.244940080256	-49.0304366802152	-2.16651910300365	0.823672182704189	1.99332507107858	-0.00351635711774249	0.0016325091942994
0.72	14.1129254288029	-6.41282990184172	581.122794216516	-49.087601690566	-2.05244429763092	0.830772812399536	2.00061554453073	-0.00332103691103679	0.00175164252023899
0.73	14.0751992994558	-6.38843974496729	580.977727734892	-49.1390955100264	-1.93626763787482	0.840013819272431	2.00956863338542	-0.00312210596802167	0.00186380669357351
0.74	14.0334070360929	-6.36816070528948	580.815439360368	-49.185900376281	-1.81902284514918	0.851056390467883	2.01987521444507	-0.00292128091657601	0.00196992606433023
0.75	13.9881265989337	-6.35175915406442	580.642195819099	-49.229015847957	-1.70178735732115	0.863505025831654	2.03119236366015	-0.00272036305674479	0.00207089165873427
0.76	13.9401867947308	-6.33891821785992	580.464544020118	-49.2693922982646	-1.58564009810456	0.876920880566019	2.04315381782872	-0.00252116871938853	0.00216748273026951
0.77	13.8906320237176	-6.32926422266663	580.289024895713	-49.3078774053795	-1.47162125253167	0.890835862435212	2.05538058315339	-0.00232546181114576	0.00226030976709587
0.78	13.8406776449658	-6.32239204486882	580.121903047267	-49.34517761721	-1.36069566384482	0.904767192504717	2.06749154451767	-0.00213489125357686	0.00234978075474512
0.79	13.7916578025155	-6.31788853602468	579.968924568398	-49.3818353077017	-1.25372121146202	0.918232171525162	2.07911395279854	-0.0019509357307941	0.00243609063189312
0.8	13.744967791253	-6.31535348048093	579.835113064654	-49.4182211309815	-1.15142322595709	0.930762914062424	2.08989367655738	-0.00177485776501525	0.00251923212731039
0.81	13.7020032060724	-6.31441780387317	579.724611146732	-49.4545400042553	-1.05437566365796	0.941920816053743	2.09950509959216	-0.00160766865977181	0.00259902464855274
0.82	13.6640982158322	-6.31475895621355	579.640571733677	-49.4908482812074	-0.962989419030194	0.951310508026181	2.10766052880663	-0.00145010530822768	0.0026751567103819
0.83	13.6324653395378	-6.31611353371005	579.585100547623	-49.5270790659636	-0.877507815193546	0.95859301791367	2.1141189503601	-0.00130261928668158	0.00274723662028384
0.84	13.6081390779012	-6.31828727561975	579.55924837851	-49.5630722925629	-0.798008997805354	0.963497829048559	2.11869393970675	-0.00116537807212131	0.00281484582467396
0.85	13.5919256671377	-6.32116258134013	579.563049189094	-49.5986061623301	-0.72441467891689	0.965833477507933	2.12126049738653	-0.00103827767062401	0.00287758947146154
0.86	13.5843610681836	-6.32470365031261	579.595598032814	-49.6334267752136	-0.656504446169812	0.965496297152144	2.12176055254645	-0.000920965452431376	0.00293513933494774
0.87	13.5856790757816	-6.32895926969613	579.655161155628	-49.6672732748653	-0.593934676482235	0.962476899648219	2.12020685596837	-0.00081287158778463	0.00298726521575658
0.88	13.5957911204565	-6.33406318140462	579.739309602528	-49.6998964986528	-0.536260976322989	0.956863979347292	2.11668497981616	-0.000713247186646078	0.00303385218124869
0.89	13.6142789377145	-6.34023187081452	579.845067173282	-49.7310699192471	-0.482963013452682	0.948845066342816	2.11135315785948	-0.000621207078188996	0.00307490243973334
0.9	13.6404007944557	-6.34775955269165	579.96906366232	-49.7605925141534	-0.433470605011426	0.938703920020972	2.10443974180027	-0.000535775125472899	0.0031105221230612
0.91	13.6731114028672	-6.35701010108246	580.107684936391	-49.7882840332023	-0.38718997857335	0.926814361152255	2.09623811870877	-0.000455930050092264	0.00314089466467307
0.92	13.7110950372994	-6.36840569013614	580.25721248485	-49.8139738857332	-0.343529218448918	0.913630480435554	2.08709903098088	-0.000380649924746047	0.0031662436911974
0.93	13.7528107299682	-6.38241198792271	580.413946530015	-49.8374854822387	-0.301922039579193	0.899673328913011	2.07742036011568	-0.000308953755321493	0.00318678930068494
0.94	13.7965477949535	-6.39951987553906	580.574308498272	-49.8586182955863	-0.261849185291062	0.885514380929544	2.06763457237283	-0.000239938890215382	0.00320270220979488
0.95	13.8404893598741	-6.42022384394432	580.73492050136	-49.877130125959	-0.222856912086932	0.871756250809326	2.05819416872511	-0.000172813333474898	0.00321406047508277
0.96	13.8827811144407	-6.44499744097395	580.892661330972	-49.8927220495918	-0.184572193964758	0.859011326121729	2.0495556223027	-0.000106922371434526	0.00322081332018584
0.97	13.9216021544698	-6.47426638682594	581.044700200471	-49.9050283095165	-0.146714440879027	0.847879138954563	2.04216241175374	-4.17692254024784e-05	0.00322275605150302
0.98	13.9552346401064	-6.50838023101642	581.188510959378	-49.9136129884282	-0.109103672738073	0.83892341857756	2.03642785706767	2.29703025553185e-05	0.00321951916753853
0.99	13.9821290169678	-6.5475836684018	581.321870664478	-49.9179747251738	-0.0716652156331961	0.83264984293783	2.03271852553823	8.74390279855377e-05	0.00321057363179339
1	14.0009617730176	-6.59198884631989	581.442847148339	-49.9175600443552	-0.0344310869660731	0.829485524354077	2.03133899253314	0.00015159512906158	0.00319525297335839
1.01	14.0106831109008	-6.64155015901028	581.549780546991	-49.9117851179552	0.00246169061164636	0.829761222193486	2.03251871094609	0.000215214061342308	0.00317279150127145
1.02	14.010552479111	-6.69604311993852	581.641263632226	-49.900065027241	0.038775559034292	0.833697172146064	2.03640166486118	0.000277895229664039	0.00314237657039605
1.03	14.0001605873437	-6.75504891035535	581.716125272382	-49.8818489004262	0.0741793662559758	0.841393262267427	2.04303936108081	0.000339072997091427	0.00310321161770782
1.04	13.9794372847185	-6.81794610995088	581.773420479042	-49.8566587198781	0.108257460549979	0.852824078683617	2.05238755408586	0.000398031615377682	0.00305458568936735
1.05	13.9486454530975	-6.88391091469036	581.81242936933	-49.8241291667505	0.140520625253373	0.867839100730548	2.06430691557897	0.000453923663694166	0.00299594447723806
1.06	13.9083618105784	-6.95192683653972	581.832666083088	-49.7840456338241	0.170418555277074	0.886168061033628	2.07856766047065	0.000505791572765357	0.00292695753544076
1.07	13.8594461856943	-7.02080446647967	581.83389734754	-49.7363775081875	0.197353593008092	0.907431216998415	2.09485793912155	0.000552591786213417	0.00284757638628709
1.08	13.8030013715501	-7.08921138121109	581.816169084646	-49.6813040081828	0.220695456311514	0.931154023305508	2.11279561278302	0.0005932210722627	0.00275807865706133
1.09	13.7403260711812	-7.15571170892363	581.779838306429	-49.6192302425789	0.239796702740492	0.9567854665928	2.13194285656048	0.000626544454402685	0.00265909419320252
1.1	13.6728636816382	-7.21881427156295	581.725606625352	-49.550791718853	0.254008680677529	0.983719138147762	2.15182289160102	0.000651424189418228	0.00255161022047504
1.11	13.6021497264802	-7.27702762712196	581.65455108651	-49.4768462242256	0.262697720009793	1.01131598997379	2.17193804362475	0.000666749195635656	0.00243695400453653
1.12	13.5297606369042	-7.3289197860318	581.568147750632	-49.3984527908041	0.265261312959097	1.03892765232219	2.19178826444664	0.000671464330778546	0.00231675298601774
1.13	13.4572663128948	-7.37317991187666	581.468283543243	-49.3168382820028	0.261144031166634	1.06591919078286	2.21088924056673	0.000664598940064532	0.00219287394360285
1.14	13.3861884885198	-7.40867897713477	581.357252334305	-49.2333529461509	0.249852919496259	1.09169024782338	2.22878924945929	0.000645294137858857	0.00206734424103294
1.15	13.3179664083473	-7.43452616257878	581.237732000252	-49.1494170211337	0.230972101529133	1.11569364215762	2.245084008222	0.00061282834179217	0.0019422595333748
1.16	13.2539307296588	-7.45011778886572	581.112740302515	-49.0664610921316	0.204176327338335	1.13745068009211	2.25942888608144	0.000566640634797036	0.00181968334184945
1.17	13.1952859370275	-7.45517576411815	580.985568731643	-48.9858633620254	0.169243191503732	1.15656265297801	2.27154801422925	0.00050635157552925	0.00170154457368167
1.18	13.1431009340861	-7.44977292254191	580.859694937974	-48.9088872601561	0.126063748889838	1.17271823837766	2.2812400132616	0.000431781101297015	0.00158953930969025
