Time [s]	GRFml [N]	GRFap [N]	GRFv [N]	Mml [N.m]	Map [N.m]	Mv [N.m]	Mfree [N.m]	COPml [m]	COPap [m]
0.01	-1.50663197858933	1.89882446022919	879.190683184217	-12.9097645317716	69.6881951977753	0.623339786716265	-0.751705671852435	0.00149569101984126	0.00765846023595479
0.02	-1.62935038730914	1.82024805169707	879.246339017791	-12.9276393352948	69.5958719415169	0.607504363745775	-0.727619501162081	0.00147519184740585	0.00754840747344382
0.03	-1.7482741249707	1.74199979053765	879.32996693196	-12.9417734215739	69.5088969811005	0.595624499815209	-0.707593623272018	0.00145941850081721	0.00744195611159409
0.04	-1.85696247298091	1.66470712257042	879.463592465227	-12.9489858929143	69.4310022753288	0.590366156158469	-0.694454141946524	0.00145235922270559	0.00734138538923351
0.05	-1.94943664313837	1.58935975605026	879.651010605597	-12.9462154488929	69.3628203683445	0.592233235295447	-0.688880320140743	0.00145756044674628	0.00724705670472031
0.06	-2.02112480493921	1.51764128908985	879.875420909874	-12.9307752426156	69.3015199306321	0.599400560284042	-0.689248801433459	0.00147779685476057	0.00715721167054861
0.07	-2.07008637106277	1.45211588041053	880.103239486772	-12.9008217249774	69.2416691022095	0.608316198196323	-0.692233605054259	0.00151460131656955	0.00706862379147172
0.08	-2.0983305436547	1.396009005386	880.292442577996	-12.8558748354209	69.1771182207216	0.614859068861835	-0.693929946913654	0.00156781242936088	0.00697800995497544
0.09	-2.1128219306676	1.3524529484178	880.402708197188	-12.7971823508726	69.1033265875144	0.615659277929909	-0.691104346664972	0.00163533017240913	0.00688378608888257
0.1	-2.12562449048	1.32334225645144	880.404557285179	-12.7277692650861	69.0193686511223	0.609149459052819	-0.682157459471525	0.00171321437462169	0.00678754217110777
0.11	-2.15270179978187	1.3082229844226	880.285438438794	-12.6521220366346	68.9289228334622	0.596020436930959	-0.667511946055538	0.00179614848021614	0.00669462448272806
0.12	-2.21122465009344	1.30375808204805	880.051835694546	-12.5755738874205	68.8398551000663	0.578960562316486	-0.649348651367932	0.00187817674583568	0.00661346553682179
0.13	-2.31576045672981	1.30417372869776	879.727583018753	-12.5035341858125	68.7624550264526	0.561792012664487	-0.630830720447216	0.0019535534306877	0.00655371299695418
0.14	-2.47423366965291	1.30272754654851	879.34934321499	-12.4407225629878	68.7068126268589	0.548301577377225	-0.615104338777305	0.00201753584330466	0.00652363143339446
0.15	-2.68481690814515	1.29379689927805	878.960542796423	-12.3905377725312	68.6800953533488	0.541140991687626	-0.604404223839227	0.00206699502534036	0.006527530350527
0.16	-2.93478482663016	1.2748619206829	878.605012563738	-12.3546415405194	68.6845094798815	0.541123997591458	-0.599520596332215	0.00210077568211786	0.00656400364206017
0.17	-3.20184739808714	1.24760997056234	878.321324994819	-12.3327957748137	68.7165069341227	0.547098134891023	-0.599738365040564	0.00211978156148029	0.00662553337975075
0.18	-3.45775636452129	1.2176571580503	878.138494696627	-12.3229667480213	68.7674097524678	0.556376023514391	-0.603196738848902	0.00212678495012819	0.006699594876931
0.19	-3.67331931399449	1.1928723521486	878.073394859978	-12.3216919271106	68.8252050569529	0.565542390388752	-0.607496131927983	0.00212597221638844	0.0067709478778008
0.2	-3.82360068513594	1.18080576540844	878.129951703344	-12.3246763540438	68.8769524564847	0.57136397248465	-0.610335346776586	0.00212226246259395	0.00682446821856564
0.21	-3.89214209522383	1.18606036216361	878.299909262265	-12.3275381301479	68.9111345311557	0.571540319454002	-0.609998602233234	0.00212048353565675	0.00684777055256086
0.22	-3.8734261459363	1.20846990296094	878.564741885061	-12.3265686889184	68.91938319674	0.565125594191701	-0.605600874815297	0.00212454684778218	0.00683300893029287
0.23	-3.77334247413607	1.24266359417818	878.898193313024	-12.3193405660432	68.8972682961168	0.552577969633957	-0.597097105382486	0.00213679978106385	0.0067775421029645
0.24	-3.60787384071538	1.27912927914061	879.26898111247	-12.3050099477529	68.8441348606727	0.535502149481205	-0.585126756192614	0.00215772149038995	0.00668349046788508
0.25	-3.40046610899086	1.30642140036339	879.643400072022	-12.2842318181051	68.7622208042889	0.516207474839031	-0.570782028177866	0.00218605339146638	0.00655647700191431
0.26	-3.17857421524849	1.31385973302643	879.987796702375	-12.2587142526726	68.65541687489	0.4972044180428	-0.555364132212688	0.00221933712550504	0.00640397329576559
0.27	-2.96979180948478	1.29400509932242	880.271052483723	-12.2305477308314	68.5280378740177	0.480727854443037	-0.540153841290731	0.00225471081473627	0.00623366492093108
0.28	-2.79791241401748	1.24434946525819	880.467221486469	-12.2015144754887	68.3838901353955	0.46833858263301	-0.526198373538401	0.00228973443932623	0.00605215164791312
0.29	-2.67931637181742	1.16792080002315	880.558305895741	-12.1725854445058	68.2257903846972	0.460638115970402	-0.514120612763334	0.0023230078118982	0.00586416126112749
0.3	-2.62020612526418	1.0727693594096	880.536885868321	-12.1437473360197	68.0555540760014	0.457136973301834	-0.503981643431156	0.00235441327555397	0.00567232038492882
0.31	-2.61530476384444	0.970504085686227	880.408063713099	-12.1141921476674	67.8743531046374	0.456324262822972	-0.49525030970838	0.00238493558871122	0.00547741199151208
0.32	-2.64854706848406	0.87417415412577	880.190058589974	-12.0827855280499	67.6832610441559	0.455970653890718	-0.486929125257278	0.00241614203075935	0.00527896647680287
0.33	-2.69595111509042	0.795865323410989	879.912882807955	-12.0486454561605	67.4837723413262	0.453644583159893	-0.477843828527803	0.00244950431828239	0.00507598888574268
0.34	-2.7303118113101	0.744426785661704	879.61486476771	-12.0116343928767	67.2781077256805	0.447343905190263	-0.467036517139056	0.00248578238797847	0.00486762543703056
0.35	-2.72678139173827	0.723757732894141	879.337295888365	-11.9726002392414	67.0691962227645	0.436075612290821	-0.454140590507285	0.00252466246536154	0.0046536173206948
0.36	-2.66802797747972	0.732032792719386	879.118031030808	-11.9332789763401	66.8603326374305	0.420194389367446	-0.439594157710018	0.0025647630676684	0.00443446621457622
0.37	-2.5476733472784	0.762098701535911	878.985280656333	-11.8958678969401	66.6546138635111	0.401360887346827	-0.424586697549069	0.00260402011477845	0.00421132120302131
0.38	-2.37114512576361	0.803029137688515	878.952933275311	-11.8623657707273	66.4543237600121	0.382095959268683	-0.410724369117586	0.00264036414114288	0.00398566605844419
0.39	-2.15380672065101	0.842528835560562	879.018464741514	-11.8338372122489	66.2604454812921	0.365049197020442	-0.399509429255699	0.00267252786319605	0.00375892306144704
0.4	-1.91699931316732	0.869621755339881	879.163889852406	-11.8097865424681	66.0724361277178	0.352213424366067	-0.391813299216232	0.00270077961853765	0.00353209289973067
0.41	-1.68317525001529	0.87693861464558	879.359481290332	-11.7878212346139	65.8883245556116	0.34435244351858	-0.387542807888257	0.00272737137269108	0.0033055289897988
0.42	-1.47144515506542	0.861998892376167	879.569365520828	-11.7637453555368	65.7051174445927	0.340846769582066	-0.385641316242676	0.00275652496225987	0.00307890988572929
0.43	-1.29458494125451	0.827157525468401	879.757797396587	-11.7321463007625	65.5194402506449	0.340019413084527	-0.384448602446772	0.00279386370316381	0.00285143089516465
0.44	-1.15799104354297	0.778280440278928	879.894967652644	-11.6874264568713	65.3283025431174	0.339831978417985	-0.382308836994455	0.00284532580912145	0.00262218663278613
0.45	-1.06045509014913	0.722599121686921	879.961505205489	-11.6251033040735	65.1298558621439	0.338704836677818	-0.378216614456648	0.00291574840345077	0.00239066348996841
0.46	-0.99616359949198	0.66643923362162	879.951204446689	-11.5430917327509	64.9240014106524	0.336166442304688	-0.372266655682225	0.0030074428324034	0.00215721601285324
0.47	-0.957134824266669	0.613531579176554	879.871770922259	-11.4426321315134	64.7127064835366	0.333095799916926	-0.36573504060446	0.00311914354563814	0.00192338020659732
0.48	-0.935385417084765	0.564386276269158	879.743498252893	-11.328567402229	64.4999115744521	0.331467556246409	-0.360747012168667	0.0032456688184529	0.00169189313243134
0.49	-0.92438122493912	0.516824372776677	879.595866876039	-11.2088064123237	64.2909654073069	0.333687131978464	-0.35963183607157	0.00337847840865801	0.00146634522494044
0.5	-0.919637494858901	0.467359880113555	879.462251529966	-11.0930145330171	64.0916172391575	0.341747687303804	-0.364175407728823	0.00350708364665875	0.00125048099833552
0.51	-0.918582225202639	0.412859919160582	879.373328226392	-10.9907915286076	63.906714903541	0.356499295620485	-0.375016676861204	0.00362102107564566	0.0010472666671133
0.52	-0.9199281927782	0.351874730011728	879.350306009628	-10.9097674649071	63.738874913641	0.37727502391587	-0.391383678397672	0.0037119155073787	0.000857934025186025
0.53	-0.922823799553577	0.285220235220428	879.399539228731	-10.8541082431441	63.5874648362682	0.401989846362663	-0.411249880662748	0.00377509694314171	0.000681259764942099
0.54	-0.926019660974793	0.215720071777679	879.510121707225	-10.8238401488568	63.4482256058167	0.427666872623513	-0.431854572431044	0.00381033151729526	0.000513323042146852
0.55	-0.927246929403827	0.147332109385282	879.655553773718	-10.8151874140431	63.3137410097454	0.451209609802455	-0.4504195279987	0.00382146461086075	0.0003478906942051
0.56	-0.922972918819174	0.0840738291239882	879.799555831335	-10.8218265810805	63.1747493960963	0.470172932173834	-0.464842929656767	0.00381508838456668	0.000177422613955203
0.57	-0.908658578884293	0.0291653462015769	879.904857508178	-10.8366891362087	63.0220444828085	0.4833048385789	-0.474172257332627	0.00379863508392519	-5.49088313267498e-06
0.58	-0.879552777229768	-0.0153464061355441	879.942737586165	-10.8537849757408	62.8485074085497	0.490721394151573	-0.47873825854776	0.00377845997286252	-0.000206596418645566
0.59	-0.831903415380072	-0.0484494069140788	879.900631867648	-10.869533711519	62.6507258410409	0.49370203781715	-0.479942060530024	0.00375845265570152	-0.000428750107221654
0.6	-0.76427779470185	-0.0696872772330031	879.785500070641	-10.8832747810939	62.4297300155826	0.494207623803251	-0.47978980557388	0.00373951169105491	-0.000671345085376196
0.61	-0.678543896851843	-0.0786195187949371	879.621809575769	-10.8969107667709	62.190601364268	0.494292835214812	-0.480332033679158	0.0037199142324994	-0.000930583895933201
0.62	-0.580060778692143	-0.0744857140692821	879.444621848318	-10.9139126963881	61.9410273383489	0.495591097396231	-0.483172329087333	0.00369632802574216	-0.0012005562697513
0.63	-0.476809606487064	-0.0562235221914318	879.289823729625	-10.9380812258215	61.6891923934033	0.499000403792128	-0.489165733975181	0.00366505225048064	-0.00147484721835961
0.64	-0.37753678753858	-0.0228345963033844	879.184478127331	-10.9724648419572	61.4416101189892	0.504617429745459	-0.498353253987726	0.00362308198955974	-0.00174822799591956
0.65	-0.289365882854641	0.0260409444921502	879.140218227394	-11.0187056781614	61.2015404931593	0.511886615963456	-0.510102897726964	0.00356873911849409	-0.00201793084823454
0.66	-0.215613352512639	0.0895483446303295	879.151567008613	-11.076887677843	60.9684755332958	0.519876794522734	-0.523375029283429	0.00350181728043675	-0.00228410532337664
0.67	-0.154585916966384	0.165237861886744	879.19939250895	-11.14578638902	60.7388560086995	0.527583270764975	-0.537014009315725	0.00342335913297465	-0.00254928414243732
0.68	-0.0998969167127299	0.249010681406832	879.258015335918	-11.2233243194596	60.5077976523908	0.534175442630061	-0.549988492461122	0.003335263043315	-0.00281698933805297
0.69	-0.042375142059321	0.335430560647012	879.303385855614	-11.307034577243	60.2712821583253	0.539153718196549	-0.561545752138537	0.00323989879654751	-0.00308989125930598
0.7	0.0268972797486578	0.418356833974281	879.319630176144	-11.3944022732643	60.0281172974446	0.542422938167259	-0.571289693684908	0.00313983412800622	-0.00336809728545323
0.71	0.11330210370115	0.49179418482996	879.302125794761	-11.4830431077202	59.7810477166662	0.544313042469271	-0.57921698455278	0.00303768664590875	-0.00364812896817573
0.72	0.216188308922532	0.55081779226696	879.256722137231	-11.5707516601021	59.5366797849961	0.545572320923458	-0.585739961431008	0.00293605754763249	-0.00392294152963496
0.73	0.328000484118912	0.592410272115423	879.196155910115	-11.6554869784591	59.304271604754	0.547331002674652	-0.591693871327369	0.00283748793591099	-0.00418301201278942
0.74	0.435395287252587	0.616036019440115	879.13554998101	-11.7353601250081	59.0937941767862	0.55100353682923	-0.598290211539096	0.00274439586778275	-0.00441818470573957
0.75	0.522105483897951	0.623791544609094	879.088835177257	-11.8086619555794	58.9138660910326	0.558090512319371	-0.606963895381598	0.00265898135233333	-0.00461973491636747
0.76	0.572779576167238	0.62002996198953	879.067109918402	-11.8739381638936	58.7701399407707	0.569869165744589	-0.619087077597893	0.00258310843493725	-0.00478207440009581
0.77	0.576737585267516	0.610475492281664	879.078803959373	-11.9300957895511	58.6644997233479	0.587018082984496	-0.63558299894555	0.00251818078646293	-0.00490367989025675
0.78	0.530627316645591	0.600997734406101	879.130603043496	-11.9765151715558	58.5951149945163	0.609280955541924	-0.656542902898791	0.00246502428229267	-0.00498711057561574
0.79	0.439317422446883	0.596348309461912	879.227824331292	-12.0131414975276	58.5571188994266	0.63530284936237	-0.680990747943763	0.0024237858062589	-0.00503827562185616
0.8	0.31490093598619	0.599208314856823	879.373373847886	-12.0405373787574	58.543536743097	0.662747069391238	-0.706924916155643	0.00239385643682688	-0.0050653067212762
0.81	0.174223944717993	0.609819416505617	879.565300272019	-12.0598905510838	58.5461264015009	0.688721064877237	-0.731688489669178	0.00237382664941443	-0.00507742030727609
0.82	0.0357192888871142	0.626296340613529	879.793851326806	-12.0729862501717	58.5559626185281	0.710431116796964	-0.752604201418723	0.00236147709783108	-0.00508402976469957
0.83	-0.0835977729061023	0.645512031114949	880.039457224503	-12.0821646204326	58.5638117735539	0.72588919322561	-0.767701240457092	0.00235380338188351	-0.00509416453214884
0.84	-0.170327169611982	0.664284761011618	880.27302195459	-12.0902786640231	58.5604987280733	0.734452128459463	-0.77630444010687	0.00234707694597769	-0.00511607318827584
0.85	-0.215819652013677	0.680525389655628	880.45932322485	-12.1006419868341	58.5374918963432	0.737006003965515	-0.779279350417874	0.00233696440464859	-0.00515681446017546
0.86	-0.216385034078029	0.694027763976873	880.563381793635	-12.1169180051939	58.487815650562	0.735711633785779	-0.778826331511844	0.00231875597606523	-0.00522170048689852
0.87	-0.172935354625422	0.706684858122766	880.558619782629	-12.1428803650579	58.4071920412879	0.733367105076868	-0.777860599215886	0.00228776369569217	-0.00531361267714031
0.88	-0.0904171692718486	0.722060981073862	880.434785637919	-12.1819978562406	58.2951091760293	0.73257148067923	-0.779153405208411	0.00223991199542417	-0.00543238008719915
0.89	0.0228108817059842	0.744419907949492	880.203277173788	-12.2368750289097	58.1554081759287	0.734943905326183	-0.784493705553616	0.00217245059886939	-0.00557450567454859
0.9	0.15574839853978	0.77746647048083	879.89785054299	-12.3086842184955	57.99603612432	0.740638710574329	-0.794129837655154	0.0020846065541803	-0.00573349173371285
0.91	0.295904341053677	0.823160176938043	879.56977091783	-12.3967981757307	57.8278283995798	0.748304071645153	-0.806666068121682	0.00197792404467412	-0.00590085237177329
0.92	0.430989637084577	0.880960699490261	879.277991468609	-12.4988182495416	57.6624934377268	0.75549192101037	-0.819447724480428	0.00185607868879656	-0.00606766432585348
0.93	0.551037760126252	0.947750151625245	879.07648510059	-12.6110729147002	57.5102652650738	0.759388138643003	-0.829318069833166	0.00172411213204193	-0.00622628933475788
0.94	0.650488524681677	1.01847454203338	879.001887583619	-12.7294760522415	57.3778505800681	0.757639805618767	-0.833519163425982	0.00158725969018481	-0.00637179269718358
0.95	0.729529966391743	1.08732494895738	879.064761413254	-12.8504696746105	57.2672572118234	0.749037335908547	-0.830471779980753	0.00144973525007808	-0.00650263630491632
0.96	0.794026675227618	1.14911740112547	879.246948361839	-12.9717193350003	57.1758515498196	0.73386417277399	-0.82021429732941	0.00131389138317339	-0.00662043106599508
0.97	0.853723405515232	1.20048464864959	879.505852817871	-13.0923215353553	57.097629308347	0.713832152235742	-0.804388455839301	0.00118004567658336	-0.00672882418286053
0.98	0.919003095548415	1.24057189819819	879.784556588113	-13.212485463267	57.0253170839682	0.69163989665169	-0.785793459033227	0.00104700302436345	-0.0068318698393266
0.99	0.997080133904911	1.27109521075124	880.025005953974	-13.3328708614489	56.9526731446683	0.670288579298333	-0.767647122696043	0.000913025633670572	-0.00693239347467933
1	1.08887010786761	1.29581223484677	880.180678379841	-13.453893880758	56.8763059133506	0.652340441808525	-0.752761966143799	0.000776837781870432	-0.00703085742313836
1.01	1.18771597700055	1.3196066931871	880.225433277023	-13.575293672346	56.7964928228975	0.639304828121098	-0.742852553049213	0.000638275510810749	-0.00712507359310371
1.02	1.28063952845955	1.34745793860894	880.156601444712	-13.6961021810297	56.7168061846	0.631294004554397	-0.738144540561395	0.000498382581058499	-0.00721084235876168
1.03	1.35197123025946	1.38354351787304	879.992294106117	-13.8149619483617	56.6427306522089	0.627023786361241	-0.737374389298358	0.000359010861214593	-0.00728331041454466
1.04	1.38836410571112	1.43062620163107	879.764689588813	-13.93059349791	56.5797664370701	0.624157747451112	-0.738172860682293	0.000222177833068327	-0.00733861947444592
1.05	1.3836228518461	1.4897526313888	879.51200523798	-14.0421885082504	56.5316555416616	0.619919156041827	-0.737733625069618	8.94813489944468e-05	-0.0073753241127415
1.06	1.34170296380289	1.56019494555875	879.271662727468	-14.1495910616925	56.4993036521273	0.611830099008395	-0.73359608418627	-3.82273707363323e-05	-0.00739511434483647
1.07	1.27671434349435	1.63954387774013	879.076001346514	-14.2532615428679	56.4807255169087	0.598394360565534	-0.724334533780684	-0.000160880785018302	-0.00740257009119977
1.08	1.20966400454922	1.72391842467583	878.950405065115	-14.3541162540937	56.4720008558475	0.579536170853599	-0.709959060294467	-0.000279048507398461	-0.0074039505688907
1.09	1.16270730703255	1.80834931018179	878.912620828162	-14.4533536138221	56.4689018697155	0.556655091095129	-0.691903954007557	-0.000393754043196748	-0.0074053104595927
1.1	1.152509306753	1.88744371074545	878.971848161395	-14.5523235071114	56.4686437551643	0.532257225253172	-0.672595835413019	-0.000506344764043876	-0.00741045756536035
1.11	1.18467338790298	1.95638222183324	879.126891710953	-14.6524203461463	56.4711784248505	0.509250680320118	-0.654723665537785	-0.000618406937718086	-0.00741935468572597
1.12	1.25095308917167	2.0121324584521	879.363848190434	-14.7549383867804	56.4796044640439	0.490105977977207	-0.640431392130235	-0.000731648630135195	-0.00742748305726482
1.13	1.33019412486441	2.05456133578873	879.654785349452	-14.8608466273434	56.4995512585633	0.476135509234525	-0.630682471239231	-0.000847675603311893	-0.00742643596718723
1.14	1.39288983010314	2.08700878757773	879.959111682944	-14.9705052702554	56.5377186243676	0.467115124648988	-0.624990075094607	-0.000967652457513624	-0.00740566413870619
1.15	1.40819574509662	2.11594647855981	880.228653136031	-15.0834123589993	56.6000098472816	0.461363261931233	-0.621586377713745	-0.00109192763347477	-0.00735495476789566
1.16	1.35154821191266	2.14960172324727	880.416112011713	-15.1980929229289	56.6898042765611	0.456247008258615	-0.617963235989533	-0.00121975184640577	-0.00726700500016975
1.17	1.21087376798176	2.19579654848861	880.485149735562	-15.312204666564	56.8068465054944	0.448952908868237	-0.611605697446768	-0.00134920370886582	-0.00713942245636229
