Time [s]	GRFml [N]	GRFap [N]	GRFv [N]	Mml [N.m]	Map [N.m]	Mv [N.m]	Mfree [N.m]	COPml [m]	COPap [m]
0.01	-2.2668266939191	1.77798337544243	881.122178542519	-14.7744054165924	70.8034160933672	0.329748260787561	-0.434614407754377	-0.00224939957933279	0.000407457819616985
0.02	-2.42347564304828	1.84427560318427	880.558878277252	-14.7536639074468	70.8599643581104	0.311766196228183	-0.419594926808286	-0.00223595535000076	0.00052886284139475
0.03	-2.57446527953924	1.89924689893492	880.048891749947	-14.7338937277526	70.9170434840985	0.297148485985615	-0.407116349678298	-0.00222250406199087	0.000646132485266238
0.04	-2.71434101929302	1.93497515470569	879.633921922169	-14.7155773604413	70.974667190856	0.288873518101632	-0.399605215288716	-0.00220872892778678	0.000755576813201764
0.05	-2.83854759266216	1.94908417234647	879.339122401323	-14.6980058497339	71.0333504289258	0.288834467862956	-0.398840940050427	-0.00219331580376081	0.000855535271147623
0.06	-2.94369812309901	1.94492918751306	879.170624263719	-14.6793470661677	71.0942206641092	0.297561574920943	-0.405688768402945	-0.00217408285344134	0.000946720381836186
0.07	-3.0277463351824	1.92990662689883	879.11755688606	-14.6572415306105	71.1588219241066	0.314185726736106	-0.419921753403735	-0.00214861115253007	0.00103181742853459
0.08	-3.09015438581295	1.91269509045596	879.157544484914	-14.6296761000437	71.2286725671295	0.336612431602422	-0.440165376379385	-0.00211511506074369	0.00111449960456073
0.09	-3.1320784562775	1.90050901202898	879.26364408127	-14.5957814366306	71.3047148087615	0.361851960587945	-0.463998968275017	-0.00207319466771605	0.00119819491286621
0.1	-3.15646207423586	1.89725123384605	879.410450719013	-14.5562496393743	71.3868152616827	0.386454650619851	-0.488237651855108	-0.00202417523680642	0.00128498580102671
0.11	-3.1678327483281	1.90296264705106	879.577694269092	-14.5132371337562	71.4734490013396	0.407012523306257	-0.509392261321258	-0.00197091752325851	0.00137493868117033
0.12	-3.17162953919892	1.91445095170787	879.750806112763	-14.4698204912283	71.5616500396049	0.420689536564531	-0.524262903446297	-0.00191718816043529	0.00146600177174472
0.13	-3.17306518228813	1.92664679059681	879.919155222888	-14.4292213664631	71.647259729512	0.425723923553351	-0.530572503067665	-0.00186682133636806	0.00155444348492145
0.14	-3.17577447875619	1.93415698720419	880.073456330368	-14.3940594374279	71.7254570282834	0.421815764056854	-0.527505670240883	-0.00182293327746463	0.00163567913635021
0.15	-3.18069209474514	1.93260142324568	880.203949726929	-14.3658313573033	71.7915047307015	0.410293641547626	-0.516005271069789	-0.001787378633202	0.00170526975765778
0.16	-3.18561960626293	1.9195091876983	880.30035885948	-14.3446964706741	71.841590469767	0.393969776428311	-0.498709845593713	-0.00176051651455833	0.00175986790712707
0.17	-3.18574443676362	1.89470765979013	880.353650430269	-14.3295397624998	71.8735916450203	0.376653837627761	-0.479492060669446	-0.00174124966969824	0.00179791716029853
0.18	-3.17503180013188	1.86022833541342	880.358706039675	-14.3182255794662	71.8875749004475	0.362390099856265	-0.462665884142257	-0.00172725621329772	0.00181997259332445
0.19	-3.14807422294408	1.81979839990561	880.316570268066	-14.3079603762958	71.8858796779402	0.354579409704907	-0.45203622504427	-0.00171534986830124	0.00182859257968598
0.2	-3.10180691490025	1.77802786546236	880.235143442247	-14.295720214186	71.8727398489482	0.355207966164843	-0.450031654206108	-0.00170194455709727	0.00182785115692879
0.21	-3.03656351914039	1.73945471014344	880.127906850457	-14.2787249020556	71.8535436225788	0.364399951905116	-0.457159281023923	-0.00168361436961728	0.00182262009891943
0.22	-2.95622377991412	1.7076530705831	880.011137579877	-14.2549265056004	71.8339654627886	0.38043386500945	-0.471942935935374	-0.00165770487361561	0.00181784229579807
0.23	-2.86756297595644	1.68460320120518	879.900677870883	-14.2234317304103	71.8192600398825	0.400233149998918	-0.491370455390391	-0.00162288251006337	0.00181802721838636
0.24	-2.77918808309724	1.67044701156281	879.809415314449	-14.1847339514053	71.813945025259	0.420201225860263	-0.51172479627878	-0.00157945535773374	0.00182712016595815
0.25	-2.70051448764996	1.66363230378666	879.746213331222	-14.1406367305902	71.8219254727567	0.437166299597302	-0.529557699512819	-0.00152931302945014	0.00184873845137656
0.26	-2.64107448373899	1.66133880145446	879.716342715697	-14.0938268739196	71.8468938316526	0.449168451517065	-0.542524757898538	-0.00147543448248599	0.00188658289396132
0.27	-2.61014108071221	1.6600342483676	879.722832877727	-14.0471795648165	71.8926760640709	0.455872042652483	-0.549851971497759	-0.0014210682433119	0.00194470504118482
0.28	-2.61636076757122	1.6560444402702	879.767846952489	-14.0029953766111	71.963173126903	0.458503693466193	-0.552328283742839	-0.00136883086132866	0.0020273146955529
0.29	-2.66698397244483	1.6461002269149	879.853276612346	-13.9624190984833	72.0616971981018	0.459360971206603	-0.55187176379316	-0.00132002571559697	0.0021379737515736
0.3	-2.76645027890033	1.62788076951949	879.980152633307	-13.9252414859357	72.1897734846074	0.46106222125549	-0.550844906099285	-0.00127442101542341	0.00227829358121362
0.31	-2.91447990917376	1.6005538710323	880.146968348595	-13.8901514026535	72.3457597709357	0.465774021498875	-0.551353583388507	-0.00123056327844495	0.00244652676655543
0.32	-3.1042652711932	1.5652225568135	880.347417109096	-13.8553420058729	72.5238027660932	0.474640541884516	-0.554738147149526	-0.00118650728807546	0.00263659656222326
0.33	-3.32161203668796	1.52508402730542	880.568257867889	-13.8192499703077	72.7136223401974	0.487556568277079	-0.561370417083049	-0.00114069684259088	0.00283805586108671
0.34	-3.54577409193259	1.48508194578979	880.788066907565	-13.7811718996849	72.9013925361503	0.503304990419378	-0.570748696440461	-0.00109269015009295	0.00303721009143754
0.35	-3.75224576670851	1.4509460807249	880.977573453162	-13.7415653190809	73.0716532559122	0.519964249016718	-0.581783888283688	-0.00104349765740741	0.00321926223023639
0.36	-3.9170862979771	1.42774860173117	881.102127386799	-13.7019677252836	73.2098638996261	0.535421218689679	-0.593129207506668	-0.000995447494167578	0.00337098451884132
0.37	-4.02173675039185	1.41836555796395	881.126542557932	-13.6645989983738	73.3050131195318	0.547820511895974	-0.603431905877316	-0.000951649990512227	0.00348322598683165
0.38	-4.05701220478319	1.42237951351077	881.022018091958	-13.6318012689127	73.3516822762084	0.55583627177797	-0.611456754409621	-0.000915243198884697	0.00355259800332658
0.39	-4.02513497246165	1.43589544212453	880.77408567727	-13.6054954339076	73.3511072045345	0.558739222941162	-0.616109674327321	-0.000888641982193294	0.00358192009955011
0.4	-3.93924715697852	1.45246309927715	880.389768649327	-13.586802439118	73.3110259615629	0.556312896853103	-0.616439395800662	-0.000872989468905683	0.0035793584147924
0.41	-3.82057846413489	1.46490669568781	879.901715594707	-13.5759117799202	73.2443603739121	0.548717561886385	-0.611696135138133	-0.000867940936618794	0.00355652604116141
0.42	-3.69407565189701	1.46751678054354	879.367314675918	-13.5722009416947	73.1669974881345	0.536395176309604	-0.601483108546292	-0.000871816132169023	0.00352603975666671
0.43	-3.58362022484766	1.45790177615824	878.861818517998	-13.5745347801588	73.0950834160266	0.520061496644672	-0.585971950495619	-0.000882054478698047	0.00349909607494897
0.44	-3.50790891454215	1.43788764485501	878.466102218963	-13.5816191886045	73.0423066616665	0.500766452658782	-0.56609678340422	-0.000895820077670972	0.00348355020416463
0.45	-3.47772871525191	1.41315306722546	878.251349392708	-13.5922660222944	73.0176300292223	0.47995114765243	-0.543619160196676	-0.000910556936245976	0.00348280047231203
0.46	-3.4948936494975	1.3916819760941	878.264129705059	-13.6054590204885	73.0238352500964	0.459413715440546	-0.520979708787332	-0.000924313074409433	0.0034955604438095
0.47	-3.55269946695229	1.3814742077074	878.515552655734	-13.620191155038	73.057089150084	0.441125965266004	-0.500917652901461	-0.000935739603296959	0.00351640286061344
0.48	-3.63750894106078	1.38817423047188	878.977330948214	-13.6351483630486	73.1075555501868	0.426908013349265	-0.485925936213527	-0.000943802471865873	0.00353683115708198
0.49	-3.73102586003499	1.41330298701498	879.585903387235	-13.6484019200153	73.1609038228766	0.418041909618036	-0.47768580653253	-0.000947370356088051	0.00354659886202879
0.5	-3.81289229318115	1.45360810480852	880.253763512046	-13.6572996664049	73.2004403688181	0.414953776993566	-0.476657670081986	-0.000944906508319132	0.00353504797838239
0.51	-3.86335748580355	1.50173103357937	880.885407158753	-13.6586916525166	73.2095322352515	0.41709110954186	-0.481974295763805	-0.000934459472991978	0.00349233914316921
0.52	-3.86583817213045	1.54801209104538	881.394318103171	-13.6494987761244	73.1739957439402	0.423062619482649	-0.491691346347238	-0.000914021183179958	0.00341054592736612
0.53	-3.80918683136385	1.582921535529	881.71736832895	-13.6274790838304	73.0841604609519	0.431013405501012	-0.503328768556633	-0.000882148596442978	0.00328463182646094
0.54	-3.68942692628906	1.59941521087087	881.823846396929	-13.5919311885427	72.9363614704828	0.439117687215028	-0.514531741855499	-0.000838601699651886	0.00311329557591372
0.55	-3.51065788399251	1.59452982680497	881.717749288702	-13.5440555715049	72.7336504059455	0.446024829912763	-0.523635639721198	-0.000784706476679387	0.0028995752076233
0.56	-3.28483949564226	1.56976081785904	881.433571041281	-13.4867936140597	72.485564127077	0.451112853724179	-0.529956181698883	-0.000723237017876133	0.0026510018077292
0.57	-3.03027794880338	1.53014549563824	881.02718645131	-13.424150658389	72.2068800992644	0.454478895500313	-0.533730079623413	-0.000657798810989596	0.00237906511375136
0.58	-2.76885947723766	1.48239232634047	880.564250001359	-13.3602095690027	71.9154395110637	0.456695295381035	-0.535761052074724	-0.000591907268122749	0.00209784790049333
0.59	-2.52237461656102	1.43271494468271	880.1086718383	-13.2981685873344	71.629319367361	0.458441975641456	-0.536929509318901	-0.000528096150563706	0.0018219022412479
0.6	-2.30856869253646	1.38512703792689	879.713262574843	-13.2397319753444	71.3638310396973	0.460160094025265	-0.537762563518166	-0.000467391227010894	0.00156371181657494
0.61	-2.1377420827141	1.34077849195673	879.41379865584	-13.1850413551119	71.1289422376384	0.461850434017862	-0.538223241561273	-0.00040933857640113	0.00133130368727219
0.62	-2.01071498031091	1.29851112593498	879.226862446643	-13.133118795488	70.9277003946814	0.463076861775455	-0.53778298215203	-0.000352546423619149	0.00112663930802065
0.63	-1.91872246370855	1.25632822561072	879.151102550843	-13.082594578576	70.756056664432	0.463157708379664	-0.535728943182873	-0.000295487875552336	0.000945279282069389
0.64	-1.8453551869022	1.21310034347902	879.17112515467	-13.0323996888467	70.6041831264755	0.461463979855444	-0.531570099900769	-0.000237215661148982	0.000777507296710389
0.65	-1.77013394070825	1.16973498777145	879.262999134375	-12.9821521880764	70.4590189229846	0.45771169389787	-0.525373846200446	-0.00017770111064952	0.000610710699536055
0.66	-1.67287628905788	1.12927468525303	879.400225841121	-12.9321280583215	70.3074725346981	0.452142415440492	-0.517895929220583	-0.000117695579919364	0.000432472167997688
0.67	-1.53783163771371	1.09586360662042	879.558962853453	-12.8829011369595	70.1395361152375	0.445525782443026	-0.510446272331726	-5.82330446945445e-05	0.000233634234734048
0.68	-1.35668613838415	1.07302869919748	879.721398306898	-12.8348744396506	69.9505859437714	0.438977300369117	-0.504531068033414	-4.52720690935493e-08	1.06077745312683e-05
0.69	-1.12990814656464	1.0620276194181	879.876583296947	-12.7879507891154	69.7423510536446	0.43364659680571	-0.501392758241261	5.68188742550157e-05	-0.000233604591329262
0.7	-0.866366316354167	1.06098508455008	880.018761670642	-12.7415041742426	69.5223777452757	0.430377265158858	-0.50160690229186	0.00011299030006473	-0.00048987058403277
0.71	-0.581540437690621	1.06519384229973	880.144094931969	-12.6946631510938	69.3022085553038	0.429453805794902	-0.504876869540809	0.000169397993019738	-0.000744707542432999
0.72	-0.294857840928174	1.06846359077829	880.247310285147	-12.6467732263942	69.0948209326817	0.4305265022071	-0.510100899207584	0.000226687408222292	-0.00098289500446308
0.73	-0.0267198093206113	1.064984939913	880.319870836345	-12.5978255118886	68.9120377700371	0.432746786141013	-0.515694554608839	0.000284707274990526	-0.00119025336903972
0.74	0.204301523189068	1.05100701671642	880.350674759746	-12.5486513000929	68.7625783669155	0.435072822543679	-0.520066628041978	0.000342307314724621	-0.00135591833128812
0.75	0.383736670737285	1.02575220329383	880.329246553019	-12.5007760023371	68.6511788507129	0.436644449499524	-0.522097395961627	0.000397564245904647	-0.00147362016970093
0.76	0.502720562435749	0.991325091893881	880.250325239887	-12.4559602757383	68.5788543474366	0.43710168605282	-0.521470971892997	0.000448383226723581	-0.00154178826237727
0.77	0.558596197074912	0.951755527484942	880.118124889814	-12.4155775156348	68.5440196188959	0.436741205192108	-0.518765289572593	0.000493274877695793	-0.00156264961351271
0.78	0.554626588212861	0.911592946970888	879.948578735687	-12.3800400286119	68.543947760747	0.43646157127923	-0.51528320968931	0.000532039019273012	-0.00154076346894277
0.79	0.498966259498862	0.874554488378156	879.768521830886	-12.3484714441104	68.5760026198371	0.43751808861402	-0.512686978323652	0.000566115815085144	-0.00148154191569999
0.8	0.403159276348661	0.842625929655181	879.611732547996	-12.3187414815353	68.638235099694	0.441166179470741	-0.512549881119568	0.000598474720768571	-0.00139021675892992
0.81	0.280465674018364	0.815796431329546	879.512682793296	-12.2878650536947	68.7292205393813	0.448300223013873	-0.515950441163728	0.00063305633665367	-0.00127146876723605
0.82	0.144254711638186	0.792377191898598	879.499462339874	-12.2526616701004	68.8473217061254	0.459187707154623	-0.523208576665409	0.000673910981459858	-0.00112963948929096
0.83	0.00658371543513627	0.769696179257889	879.587520573968	-12.210505661326	68.9897745024721	0.473363457565311	-0.533814091387754	0.000724252366210099	-0.000969218800494498
0.84	-0.123013978866008	0.744915713938905	879.77563220778	-12.1599878714724	69.1520380077229	0.489699741738007	-0.546544019511481	0.000785649720188131	-0.000795229182549873
0.85	-0.238517326694272	0.715772513601074	880.044957560347	-12.1013502295084	69.3277233617283	0.506620672985819	-0.559721882202526	0.000857525757787969	-0.000613225133632933
0.86	-0.338096187266662	0.681137541974994	880.361385503327	-12.0366243768408	69.5091816456612	0.522396250802054	-0.571547297317467	0.000937038555578362	-0.000428833102226023
0.87	-0.424317380858662	0.641374331166688	880.680672782653	-11.9694748847474	69.6885907336058	0.535440095524019	-0.580420372419962	0.00101933822086508	-0.000246971656576778
0.88	-0.503722234564414	0.598502108510073	880.955362476603	-11.9047928056531	69.8592275664844	0.544546393360322	-0.585198734127772	0.00109813212332277	-7.1019488493973e-05
0.89	-0.585746779677266	0.556147560374595	881.142174249364	-11.8481004880887	70.0165898200245	0.54902963215182	-0.585349572191841	0.00116647228562905	9.78016459575182e-05
0.9	-0.681153989155397	0.519233990089346	881.208554556474	-11.8048279356836	70.1591220327849	0.548763850953909	-0.580986787929739	0.00121767899459557	0.000260666626366035
0.91	-0.800310781073914	0.493355582998655	881.137342699291	-11.7795273533949	70.2884438196941	0.544143766143083	-0.572806734742237	0.00124630968704698	0.000420985779918226
0.92	-0.951677008153548	0.483844427467045	880.928978545386	-11.7751191974824	70.4091019782212	0.536000091926358	-0.561950324904154	0.00124905645603934	0.000583918900637914
0.93	-1.14075845623497	0.494649051787311	880.601227406427	-11.7923013657973	70.5279323463619	0.525495448753097	-0.549823774316499	0.00122541848032143	0.000755664500477593
0.94	-1.3695759607311	0.527261185478332	880.186868108659	-11.8292747125602	70.6531238028667	0.514012689808884	-0.537907849331142	0.00117797830417798	0.00094259016387116
0.95	-1.63652730107001	0.579993143272946	879.730029385545	-11.8819109112444	70.7930626844364	0.503034425387066	-0.527580182129939	0.0011121474233996	0.0011502335938578
0.96	-1.93645568455284	0.647875757137398	879.281790010436	-11.9443986494005	70.9550435906268	0.49400832800174	-0.519969518561892	0.00103535119958842	0.00138222066131816
0.97	-2.26080804971678	0.723306922969451	878.895339271547	-12.0102691807517	71.143980071391	0.488198520693509	-0.515854636719738	0.000955774704449408	0.00163923090728546
0.98	-2.59791339490868	0.797369429538061	878.620632572053	-12.073570571862	71.3613158433013	0.486534265250117	-0.515612873197726	0.000880936527446918	0.00191824986229178
0.99	-2.93353961463261	0.861523826734925	878.49835101729	-12.1298898350217	71.6043763313759	0.489476322559676	-0.519213541381081	0.000816434111870601	0.00221240100073028
1	-3.25191000703741	0.909245947594649	878.553290172169	-12.1769522573147	71.8663654312387	0.496923727107512	-0.526242401707798	0.000765171362937966	0.00251157707987248
1.01	-3.53724466989485	0.937175039487222	878.788039292445	-12.2146541297636	72.1370890836406	0.508178719857695	-0.535939172402998	0.00072724215960096	0.00280387793440307
1.02	-3.77567696661171	0.94547694933876	879.178647608379	-12.2445619103853	72.4043064722118	0.521978851134963	-0.547234919831837	0.000700452141158658	0.00307757592692098
1.03	-3.95717707541371	0.937364790556831	879.674388248716	-12.2690697593895	72.655436472731	0.53659781112434	-0.558790534255859	0.000681286222611655	0.00332309473190506
1.04	-4.07700131030451	0.917976101524552	880.203262042613	-12.290491703696	72.8792507837989	0.550012881987444	-0.569056035593117	0.000666028298392018	0.00353442402351095
1.05	-4.13624570859914	0.892990814724751	880.68342885651	-12.3103523094944	73.067206411655	0.560134707630714	-0.576382643057488	0.000651735156719457	0.00370955682614194
1.06	-4.14131037741824	0.867422657310269	881.038719725544	-12.3290469448195	73.2142002467692	0.565088563827237	-0.579214209255561	0.000636844886667931	0.00384987856674579
1.07	-4.10239987571787	0.844911226971325	881.21456963688	-12.3459108441513	73.3187127784783	0.563521119782973	-0.576356905784104	0.000621324767574039	0.00395881888842436
1.08	-4.03147764360999	0.82762352711967	881.189961810542	-12.3596119253176	73.3824713496489	0.554885018057463	-0.567282885029541	0.000606393800048233	0.0040403337839523
1.09	-3.94025102599724	0.816627792597294	880.981760998415	-12.3687016333033	73.4098453117673	0.539635521845848	-0.552383462187752	0.000593957063667494	0.00409780368423884
1.1	-3.83872920121281	0.812428801259943	880.639973778645	-12.3721381314744	73.4071674326069	0.519272429199868	-0.533072577108806	0.000585941821900859	0.00413370747326947
1.11	-3.73467881176538	0.815326054811161	880.235248442314	-12.3696343685698	73.3820861539551	0.496185140902363	-0.511666588599007	0.000583721156632633	0.00415006724918815
1.12	-3.63397322004989	0.825386815045507	879.842280167856	-12.3617615376566	73.3429486976618	0.473306482450652	-0.491029263114542	0.000587755990760774	0.00414931675342373
1.13	-3.54150245390775	0.842055629426697	879.523858738414	-12.349828179847	73.2981514440871	0.453636715766743	-0.47404991179376	0.000597500027857301	0.00413507255299206
1.14	-3.46210002611142	0.863641970913665	879.319758758106	-12.3356263189807	73.2554006078636	0.439741908993524	-0.463086256982802	0.000611524069552338	0.0041123453080717
1.15	-3.40093681785374	0.887030042080087	879.242826042641	-12.3211643405575	73.2208947626956	0.433342466853525	-0.459523701644372	0.000627758089448371	0.00408698101908611
1.16	-3.36305131272344	0.907886277478599	879.282203063849	-12.308482472271	73.1985323698157	0.435081878795587	-0.463568260625425	0.000643742536917236	0.0040644544580799
1.17	-3.35206259383498	0.921429651216507	879.411515018551	-12.2995816054267	73.1893125422198	0.444511429513227	-0.474313590067465	0.000656824167708736	0.00404841188350186
