Time [s]	GRFml [N]	GRFap [N]	GRFv [N]	Mml [N.m]	Map [N.m]	Mv [N.m]	Mfree [N.m]	COPml [m]	COPap [m]
0.01	11.9424397633684	-1.31217078721952	706.06931953777	-61.0274822322298	-0.346318166264282	-1.26277414733244	-0.231187308674227	0.002519737905479	0.00523192596266231
0.02	11.6211941100829	-1.22839148920144	706.98700465397	-60.70370377099	-0.473264950574585	-1.30185689865666	-0.304746309155704	0.00234985519012612	0.00466719379423304
0.03	11.30552469121	-1.14611873109221	707.887304873074	-60.3853612954991	-0.597580002616297	-1.34058081117781	-0.376975157583472	0.00218181340552286	0.00411171566619094
0.04	11.0011241957246	-1.0668723893523	708.75350818894	-60.0782720721576	-0.716931803190342	-1.37852277818295	-0.446873370089085	0.00201890022752602	0.00357567717271019
0.05	10.7133529189812	-0.992091728391136	709.57001851074	-59.7879334039193	-0.82917615830215	-1.41530035168044	-0.513540688188787	0.00186425450616429	0.00306870890377593
0.06	10.4470437321041	-0.923082623190408	710.322953178787	-59.5193251763486	-0.932443000148858	-1.45058078821335	-0.576201554326974	0.00172072278484154	0.00259953210429213
0.07	10.2063316868452	-0.860970353135026	711.000654897138	-59.2767374792187	-1.02520842740277	-1.48408722651289	-0.634222361519014	0.00159072914947869	0.00217564791655755
0.08	9.99451605396451	-0.80666008485645	711.594093377164	-59.0636310737889	-1.1063482398901	-1.51560173693115	-0.687121254561749	0.0014761675599944	0.00180308498744901
0.09	9.8139607109316	-0.760806760572528	712.097138963579	-58.88253645944	-1.17517046968475	-1.54496514535393	-0.734570699538653	0.00137832421917225	0.0014862166295864
0.1	9.66603662428479	-0.723795627817589	712.506698304481	-58.7349950134005	-1.2314257711724	-1.57207372004668	-0.776393395149763	0.00129783519962489	0.0012276545336987
0.11	9.55110785535934	-0.695734115626875	712.822710176965	-58.6215432925088	-1.27529590463561	-1.59687300765955	-0.81255236371132	0.00123468173183861	0.00102822154004885
0.12	9.46856020293819	-0.67645521165355	713.048007356328	-58.5417392549799	-1.30736183679476	-1.61934929891581	-0.84313623538398	0.00118822256291612	0.000887001507408502
0.13	9.41686942421343	-0.665531953664347	713.188057440674	-58.4942270289177	-1.32855410624228	-1.63951937758234	-0.868340840200268	0.00115725994526504	0.000801460173107518
0.14	9.39370407154617	-0.662302143620347	713.250601418009	-58.476835045501	-1.34008899820991	-1.65741934060109	-0.888448267072188	0.00114013339391468	0.000767627343378444
0.15	9.39605644788362	-0.665901945148188	713.245213198147	-58.4867009601699	-1.34339469838968	-1.67309335771709	-0.903804554203186	0.00113483358006822	0.000780327997085078
0.16	9.420394089627	-0.675306653070517	713.182806151075	-58.5204158612581	-1.34003192787153	-1.68658325509139	-0.914797152698659	0.00113912773644777	0.000833448062635231
0.17	9.46282357106588	-0.689376639711196	713.075113839464	-58.5741798325781	-1.33161359998793	-1.69791975474096	-0.921833258659591	0.00115068776794179	0.000920219792748561
0.18	9.51925829543081	-0.70690629577865	712.934171660582	-58.6439609802233	-1.31972780351848	-1.70711608238125	-0.925320035723429	0.00116721282742681	0.00103351179201888
0.19	9.58558226999063	-0.726673699117609	712.771824174811	-58.7256505100295	-1.30586794018449	-1.71416447906172	-0.925647642678545	0.00118653929523674	0.00116610975543284
0.2	9.65780260592809	-0.747488764808418	712.599279726034	-58.8152072825809	-1.29137317517924	-1.71903593115471	-0.923175831732207	0.00120673270680528	0.00131097570421464
0.21	9.73218456656644	-0.76823775437067	712.4267298404	-58.9087863925697	-1.27738155366008	-1.72168318700339	-0.918224687908022	0.00122615800230371	0.00146147577299828
0.22	9.80536432384844	-0.787922246386755	712.263046142889	-59.002847625011	-1.26479725387367	-1.72204687700146	-0.911069840779793	0.00124352632867337	0.00161156920575144
0.23	9.87443607863554	-0.805690988050553	712.115562481866	-59.0942410369472	-1.25427254903924	-1.72006431702522	-0.901942205801181	0.00125791834282543	0.00175595395419587
0.24	9.93701175950083	-0.820863444651739	711.989944914053	-59.1802683095811	-1.24620419148251	-1.71568037083827	-0.891032020561367	0.00126878542419925	0.00189016695578249
0.25	9.99125304536703	-0.832944324176392	711.89014745995	-59.2587198323983	-1.24074316273185	-1.70885958965703	-0.87849665337727	0.00127593133472763	0.00201063964185309
0.26	10.0358768766774	-0.841628853871134	711.818447334035	-59.3278886523396	-1.23781609143436	-1.69959874632385	-0.864471402042915	0.00127947764139785	0.00211471137046147
0.27	10.0701368577083	-0.846799096664914	711.775549875234	-59.3865633989039	-1.23715615450146	-1.68793884242182	-0.84908229255945	0.00127981665656451	0.00220060521201203
0.28	10.093783954708	-0.848512086142077	711.7607507845	-59.4340030494681	-1.23834096091473	-1.67397568931451	-0.832459750293956	0.00127755579609765	0.00226737179745366
0.29	10.1070106237115	-0.846980996411556	711.772141592172	-59.4698969148036	-1.24083477486372	-1.6578682443007	-0.814751961613097	0.00127345716140759	0.00231480776056459
0.3	10.1103829391893	-0.842550916366721	711.806843543468	-59.4943135053126	-1.24403245673401	-1.63984401304396	-0.796136776904616	0.0012683758774644	0.0023433556884795
0.31	10.1047654390833	-0.835671039734619	711.861255264919	-59.5076419997877	-1.24730266860338	-1.62020099870623	-0.776831122081207	0.00126320031946322	0.00235399248007089
0.32	10.0912432690506	-0.826865193743948	711.931300565541	-59.5105299067117	-1.25002817953956	-1.59930587466611	-0.757097073849138	0.00125879688119989	0.00234811265683248
0.33	10.0710458296151	-0.816702600842383	712.012664398085	-59.5038202163158	-1.25164148440452	-1.57758826857321	-0.737243997293552	0.00125596141403429	0.00232741254087611
0.34	10.0454755474801	-0.805770601662972	712.101007188376	-59.48849092656	-1.25165438509486	-1.55553125830814	-0.717626422365736	0.00125537892339423	0.00229378037846559
0.35	10.0158446587289	-0.794650777098301	712.192150244133	-59.4655993253538	-1.24968064255942	-1.53365838378331	-0.698637627273158	0.00125759257065219	0.00224919651364336
0.36	9.98342206483116	-0.783899517513114	712.282227581333	-59.4362328606237	-1.24545126151538	-1.51251766268636	-0.680699181219075	0.00126298250852549	0.00219564666997277
0.37	9.9493914618349	-0.774033631382244	712.367802066359	-59.4014678618809	-1.23882239190168	-1.49266325548389	-0.664246958710129	0.00127175459243985	0.00213505033856759
0.38	9.9148211064079	-0.765521103634027	712.445946097428	-59.3623368201425	-1.22977620171808	-1.47463554964226	-0.649714358712342	0.00128393857186735	0.00206920524953901
0.39	9.8806448214809	-0.758776647974386	712.514289004137	-59.3198044110347	-1.21841538112013	-1.458940521513	-0.637513634351918	0.00129939498658817	0.00199974796562602
0.4	9.84765320250877	-0.754161288596351	712.571034836261	-59.2747519776132	-1.20495216976446	-1.44602928496561	-0.628016356719537	0.00131782968332507	0.00192812981607035
0.41	9.81649349514877	-0.751984891245776	712.614955195748	-59.2279697893409	-1.18969295641542	-1.43627874848743	-0.621534097334149	0.00133881463564671	0.00185560671157343
0.42	9.78767629616222	-0.752510369721779	712.645362239879	-59.1801560722426	-1.17301958460176	-1.42997427820431	-0.618300418599732	0.00136181359812968	0.00178324086413022
0.43	9.76158708792777	-0.75595823869768	712.662066992377	-59.1319215693053	-1.15536851734907	-1.42729520508639	-0.618455213040736	0.00138621105401618	0.0017119120865505
0.44	9.73850064630447	-0.762510271590343	712.665327721641	-59.0837982431562	-1.13720897711927	-1.42830392304387	-0.622032334713468	0.00141134291927978	0.00164233616514325
0.45	9.71859654279917	-0.772311243826071	712.655792484242	-59.0362506751062	-1.1190210950661	-1.43293920356991	-0.628951325509583	0.00143652753659969	0.00157508777740464
0.46	9.70197426589181	-0.785468074884162	712.634439102271	-58.9896887427594	-1.10127498818862	-1.44101420513602	-0.639013861360287	0.00146109561880163	0.00151062554998867
0.47	9.68866687590789	-0.802046093250998	712.602514959136	-58.9444802661415	-1.08441154532942	-1.45221948498619	-0.651905335442792	0.00148441796954326	0.00144931710043232
0.48	9.67865254098895	-0.822062594841524	712.561478162023	-58.9009624898691	-1.06882555375116	-1.46613113097592	-0.667201764773601	0.00150593000543557	0.00139146225403874
0.49	9.67186373478533	-0.845478301079728	712.512940911791	-58.8594515030282	-1.05485164639032	-1.4822239259597	-0.684381961089104	0.00152515231488748	0.00133731304638786
0.5	9.66819426755185	-0.872187701337826	712.458615397337	-58.8202489727742	-1.04275340325957	-1.49988924219228	-0.702844655458898	0.00154170670268049	0.00128708958118075
0.51	9.66750463473247	-0.902009544294519	712.400262217509	-58.7836458633921	-1.03271580430294	-1.51845714474893	-0.721930018228668	0.0015553273757904	0.00124099128069409
0.52	9.66962637280451	-0.934678891625409	712.3396412277	-58.7499231093797	-1.02484110866597	-1.53722196897192	-0.740944781916322	0.00156586711815353	0.00119920351107394
0.53	9.67436619428634	-0.969842145582531	712.278464783747	-58.71934948875	-1.01914812811886	-1.55547043672211	-0.759189965322641	0.00157329847569704	0.00116189995893833
0.54	9.68151062857969	-1.00705630465216	712.21835356699	-58.692177182415	-1.01557476968759	-1.57251120030485	-0.775990023214269	0.00157771012653526	0.00112924145599615
0.55	9.69083173249654	-1.04579339940918	712.160795463214	-58.6686356914862	-1.01398364231977	-1.5877045627288	-0.79072211798301	0.00157929874559265	0.00110137217786578
0.56	9.70209417651533	-1.0854506394463	712.1071082713	-58.6489249052335	-1.01417045158712	-1.60049102999477	-0.802844137234608	0.00157835679048139	0.00107841427290013
0.57	9.71506369334074	-1.12536629973843	712.058407274326	-58.6332081621225	-1.01587484165647	-1.61041731624385	-0.811920072253037	0.00157525673943087	0.00106046200563718
0.58	9.72951653493795	-1.16484083766167	712.015578865221	-58.6216061241912	-1.01879328214769	-1.61715845488735	-0.817641432302978	0.00157043240545588	0.0010475764342934
0.59	9.74524926683286	-1.2031622111059	711.979261445027	-58.6141921958585	-1.02259353732612	-1.62053477444115	-0.819843501229664	0.00156435803570681	0.00103978149591509
0.6	9.76208797660534	-1.23963391415324	711.949834687285	-58.6109900716037	-1.02693019643147	-1.6205226788005	-0.818515444421499	0.00155752598117732	0.00103706216470345
0.61	9.77989582344949	-1.27360390478847	711.927417990403	-58.6119738061336	-1.03146068907071	-1.6172584252681	-0.813803540188351	0.00155042378745026	0.00103936509974632
0.62	9.79857783328149	-1.30449240465253	711.911878543894	-58.6170705814642	-1.03586116292516	-1.61103441140331	-0.806007129638644	0.00154351160733186	0.00104660192981676
0.63	9.81808196124644	-1.33181652665858	711.90284895254	-58.6261661149609	-1.03984156876511	-1.60228784968988	-0.795567238395472	0.00153720086440585	0.00105865505597079
0.64	9.8383956970623	-1.35520984006024	711.89975384329	-58.6391124280922	-1.04315928716606	-1.59158210798433	-0.783048203265476	0.00153183509485669	0.00107538560615723
0.65	9.8595378589997	-1.37443530613051	711.901844374644	-58.6557374939481	-1.04563064955423	-1.57958140051001	-0.76911301569838	0.0015276738554399	0.00109664296587828
0.66	9.88154567563724	-1.38939048743506	711.908239124577	-58.6758561171648	-1.04713975916314	-1.56701990314939	-0.754493448562969	0.00152488050164082	0.00112227514797864
0.67	9.90445774595929	-1.40010451259833	711.917969487685	-58.6992812849777	-1.04764410858373	-1.55466671182159	-0.739956340706144	0.00152351450800793	0.00115213916270263
0.68	9.92829394654316	-1.40672691865188	711.930027487667	-58.7258351715902	-1.04717661988307	-1.54328833933651	-0.726267654304592	0.00152352882240901	0.00118611051295339
0.69	9.95303376732215	-1.40950914008916	711.9434138146	-58.7553589848876	-1.04584389690574	-1.53361063355113	-0.714156076247085	0.00152477252217813	0.00122409097265366
0.7	9.9785948575143	-1.40878001139031	711.957183920872	-58.7877209152756	-1.04382066962586	-1.5262820827025	-0.704277994902199	0.00152699878220414	0.00126601390798396
0.71	10.0048137139522	-1.40491714513052	711.970490138723	-58.8228215769472	-1.04134061618112	-1.52184044408007	-0.697185641908905	0.00152987788668181	0.00131184656759971
0.72	10.0314304230256	-1.39831639625845	711.982617994759	-58.8605965133414	-1.03868395597223	-1.5206844889109	-0.693300045878544	0.00153301473454051	0.00136158898956823
0.73	10.0580791696955	-1.38936179265159	711.993015171286	-58.9010155579205	-1.03616240227771	-1.52305240630162	-0.692890208374052	0.00153597002238651	0.0014152694357983
0.74	10.0842858652322	-1.37839828605847	712.001311883252	-58.9440790821892	-1.03410223079074	-1.52900806629185	-0.696059595413048	0.00153828405723393	0.0014729365507654
0.75	10.1094737485136	-1.36570945646391	712.007331790636	-58.9898114064778	-1.03282634851595	-1.53843592664214	-0.702740658197307	0.00153950197187306	0.00153464872847134
0.76	10.132977226194	-1.35150190412194	712.011092942059	-59.0382518760048	-1.03263632553778	-1.55104490474076	-0.712697676754853	0.00153919900279001	0.00160046143594125
0.77	10.1540635860366	-1.33589751966944	712.01279864249	-59.0894442966436	-1.03379537389045	-1.5663810528317	-0.725537784006003	0.00153700445401898	0.00167041345928566
0.78	10.1719616001637	-1.31893417895429	712.012818553019	-59.1434255655905	-1.03651322082136	-1.5838484006525	-0.740729600560181	0.00153262301478808	0.00174451318785243
0.79	10.1858954843612	-1.30057471904433	712.011660758851	-59.2002144096336	-1.04093373001395	-1.60273689275508	-0.757628516673324	0.00152585222328238	0.00182272611618942
0.8	10.1951222426725	-1.28072337270703	712.00993597309	-59.2598011507583	-1.04712597954599	-1.622255973832	-0.775507319299413	0.00151659506675825	0.00190496471187297
0.81	10.1989701391685	-1.25924822668225	712.008315463306	-59.3221393538415	-1.05507931848229	-1.64157208552252	-0.793590597443771	0.00150486696815196	0.0019910816670856
0.82	10.1968759226556	-1.2360077745148	712.007484673782	-59.3871400783502	-1.06470270647334	-1.65984814800134	-0.811091181719693	0.00149079671579058	0.00208086732910925
0.83	10.1884184908709	-1.21087929746916	712.008094842925	-59.4546692648707	-1.07582840556105	-1.67628301819598	-0.827246792326997	0.0014746212275347	0.00217405180399766
0.84	10.1733469081442	-1.18378665341164	712.010715154351	-59.5245485520885	-1.08821985429222	-1.69014894588433	-0.841355086074365	0.00145667438373809	0.00227031187036476
0.85	10.1516010599005	-1.15472509419428	712.015788084581	-59.5965595581202	-1.10158332481879	-1.7008251846048	-0.852805404379771	0.00143737049449969	0.00236928245390249
0.86	10.1233237028683	-1.12378096152015	712.023590597073	-59.6704513915253	-1.11558275672042	-1.70782614556412	-0.861105722026418	0.00141718326632068	0.0024705720287844
0.87	10.0888632086581	-1.09114450879026	712.034203666031	-59.7459509021471	-1.12985698818048	-1.71082279370152	-0.865903567943019	0.00139662138393091	0.00257378096126393
0.88	10.0487668556063	-1.0571146283229	712.047492288309	-59.8227749595246	-1.14403847525575	-1.70965635599529	-0.867000017922697	0.00137620201016807	0.0026785215234902
0.89	10.0037650571831	-1.02209488617864	712.063097663915	-59.900643874081	-1.15777251021158	-1.70434382068421	-0.864356225922276	0.00135642361973019	0.00278443810747306
0.9	9.9547473891768	-0.986580931345231	712.080442613548	-59.9792949672533	-1.17073592432147	-1.69507512895846	-0.858092344882658	0.00133773961531751	0.00289122607931493
0.91	9.90273166590854	-0.951140001146458	712.098750586022	-60.0584952603655	-1.18265429015251	-1.68220237486208	-0.848479069128612	0.0013205341260766	0.0029986477431411
0.92	9.84882760213215	-0.916383841398251	712.11707783026	-60.138052292424	-1.19331672106337	-1.66622171335893	-0.835922388540144	0.00130510126232083	0.00310654403419924
0.93	9.79419677676193	-0.882936854506123	712.134357514701	-60.2178221927146	-1.2025874963554	-1.64774901231488	-0.820942462093391	0.00129162890585615	0.00321484082342179
0.94	9.74001069114257	-0.851401646233548	712.149453823345	-60.2977143181808	-1.21041391157143	-1.62749055683334	-0.804147780299106	0.00128018786444316	0.00332354907436989
0.95	9.68740869945978	-0.822324337749993	712.161223394041	-60.3776920059374	-1.21682995507284	-1.60621031352169	-0.786205981464447	0.00127072692743302	0.00343275852305448
0.96	9.63745749806877	-0.796162031415097	712.168580936568	-60.4577692712836	-1.22195563301996	-1.58469538192157	-0.767812808599076	0.0012630740446227	0.00354262502078322
0.97	9.59111371214692	-0.773254667078928	712.170565512554	-60.5380035810916	-1.2259919932097	-1.56372129892775	-0.749660739379715	0.00125694352960807	0.0036533521553077
0.98	9.54919093006145	-0.753803193755893	712.166403800679	-60.6184851292709	-1.22921212171385	-1.54401882192039	-0.732408792036372	0.00125194887953294	0.00376516821049461
0.99	9.51233232377292	-0.737855534405028	712.155566720092	-60.6993233124992	-1.23194859320424	-1.52624370324757	-0.7166549099944	0.00124762052082976	0.00387829990556957
1	9.48098976923809	-0.725301274139053	712.137816040033	-60.7806313292879	-1.23457803553757	-1.51095079091967	-0.70291216516251	0.00124342754888769	0.00399294464207377
1.01	9.45541015127705	-0.715875396597365	712.113238049352	-60.862509985509	-1.23750361235859	-1.49857355806936	-0.691589803675163	0.0012388023395965	0.00410924315696987
1.02	9.43562930528393	-0.70917077546559	712.082261970991	-60.9450318710885	-1.24113632679262	-1.4894098882428	-0.682979900002291	0.001233166780656	0.00422725451896187
1.03	9.42147381232074	-0.704658544483842	712.045661550557	-61.0282270677881	-1.24587609959098	-1.48361463696618	-0.677250097922309	0.00122595880578687	0.0043469353063626
1.04	9.41257062125213	-0.701714962622843	712.004539086936	-61.1120714553828	-1.25209357377306	-1.48119916472137	-0.674442612738191	0.00121665791792548	0.00446812457256468
1.05	9.40836421832644	-0.699652997482451	711.960292065414	-61.1964785084045	-1.26011354508385	-1.48203770519821	-0.674479361367032	0.00120480845746862	0.00459053585243542
1.06	9.40814079980723	-0.697756595832054	711.914563457846	-61.2812952297264	-1.27020081661498	-1.48588010850244	-0.677172788683609	0.00119003950482219	0.00471375701137469
1.07	9.41105862976577	-0.695315510427325	711.869177627509	-61.3663025681839	-1.28254913281273	-1.49237019524373	-0.682241682795032	0.00117208049587059	0.00483725821729129
1.08	9.41618349103818	-0.691658609066354	711.82606457703	-61.451220337303	-1.29727367160639	-1.50106868766501	-0.689331031490281	0.00115077186436476	0.00496040775902466
1.09	9.42252787615585	-0.686183794986418	711.787175966041	-61.5357163161736	-1.3144073745318	-1.51147946160249	-0.698034778937547	0.00112607029365658	0.00508249488112099
1.1	9.42909233492039	-0.6783829953419	711.754396863757	-61.6194188977776	-1.33390118596391	-1.52307770066398	-0.707920206441056	0.00109804844648095	0.00520275829400922
1.11	9.43490721719254	-0.667861095354891	711.729457557438	-61.7019323798116	-1.35562806690627	-1.53533844241886	-0.71855259223762	0.00106688932904306	0.00532041858876034
1.12	9.43907294470498	-0.654348171871407	711.713849883554	-61.782853790274	-1.37939045870256	-1.54776399361272	-0.72951880844768	0.00103287571770418	0.00543471247073245
1.13	9.44079693305114	-0.637704870388559	711.70875246542	-61.8617900217205	-1.40493070848947	-1.55990876153832	-0.740448590150243	0.000996375317294845	0.0055449265534135
1.14	9.43942537783482	-0.617921233629812	711.714968919921	-61.9383740243749	-1.43194383975917	-1.57140020094832	-0.751032359505458	0.000957822515992245	0.00565042844000109
1.15	9.43446832295512	-0.595109691242907	711.732882539423	-62.0122788817941	-1.46009196360156	-1.58195480411211	-0.761034699659689	0.000917697742583856	0.00575069297154761
1.16	9.42561674056603	-0.569493230612359	711.762430178434	-62.0832287580696	-1.48901958136057	-1.59138835415712	-0.770302837157292	0.00087650551168158	0.00584532183015578
1.17	9.41275075807228	-0.541389969683315	711.803097107872	-62.1510059496524	-1.5183690267306	-1.59962000208933	-0.778769792287273	0.000834752259363012	0.00593405513448519
