Time [s]	GRFml [N]	GRFap [N]	GRFv [N]	Mml [N.m]	Map [N.m]	Mv [N.m]	Mfree [N.m]	COPml [m]	COPap [m]
0.01	2.80645845759241	-1.63362252107218	726.138895365119	-0.732593975933544	1.14217128846413	1.75338823978737	-1.75363057461886	-0.00295578161809917	-0.00436354204155737
0.02	3.30446644468836	-1.4015176497064	723.733754340145	-0.859083577865692	1.03667288666416	1.77353370573462	-1.77553715634034	-0.00313330651848287	-0.00450677008560429
0.03	3.75114504694227	-1.16854746982147	721.385433364519	-0.983401961675371	0.947239059038974	1.79129271545174	-1.79497428552014	-0.00330812617288945	-0.00462780175965227
0.04	4.10533025136912	-0.936806377712079	719.144298265109	-1.10221250551263	0.885590998025768	1.80475129211535	-1.80994952717397	-0.00347587254611037	-0.00471045172878642
0.05	4.34374182823423	-0.714077846207014	717.072014197121	-1.21319959613663	0.859640826026628	1.81311407414195	-1.81960966498585	-0.00363342957421087	-0.00474381801819906
0.06	4.46428400353466	-0.513561644583433	715.238735615239	-1.31576128400406	0.8728847801601	1.8169262638071	-1.82447077545054	-0.00377986743001901	-0.00472311647909446
0.07	4.48424085962984	-0.351119639023904	713.714152239401	-1.41137543755956	0.924647404548674	1.81792541715236	-1.82627350146666	-0.0039169699626862	-0.00464933636949094
0.08	4.43413614357557	-0.24103180269638	712.556673205871	-1.50347639405259	1.011088695224	1.81855667097439	-1.82749596118878	-0.00404911560720289	-0.00452784522556771
0.09	4.34923179622714	-0.191709772478246	711.804939733437	-1.59679766716426	1.12667444536089	1.82128908135796	-1.83066230960833	-0.00418243133460527	-0.00436636146463487
0.1	4.26115437637162	-0.202732526604993	711.47389209787	-1.69629368929163	1.26569718267713	1.82793490535876	-1.83765061202541	-0.00432336032200642	-0.00417286442458292
0.11	4.19182479694322	-0.264069970893196	711.555191115345	-1.80589216090631	1.42346638479135	1.83917232838231	-1.84920319843342	-0.0044769835421673	-0.00395396347181826
0.12	4.15091113765522	-0.357664213090289	712.020135529671	-1.92740114404582	1.59694331817617	1.85440568591347	-1.86477620163619	-0.0046455434996161	-0.0037140283089887
0.13	4.13682117139445	-0.460872649232855	712.822878812127	-2.05987504655158	1.78480841651082	1.87199035198359	-1.88275741985848	-0.00482759472326022	-0.0034550886460859
0.14	4.14022413589761	-0.550816532215001	713.902551339054	-2.1996301345963	1.98713103131417	1.88973937334728	-1.90097054213048	-0.00501804795474181	-0.00317726253950879
0.15	4.14853839302111	-0.608516685678524	715.184194568955	-2.34091980988123	2.2048968420329	1.90555053811824	-1.91730436217758	-0.0052091214280815	-0.00287935921199289
0.16	4.14983895635161	-0.621843763166559	716.579510134332	-2.47708353685074	2.43961824087882	1.91796737528171	-1.93027954502694	-0.00539193646868374	-0.0025593493956374
0.17	4.13512856961962	-0.586701320064025	717.988875548537	-2.60183443068403	2.69313914076741	1.92651913952136	-1.93939639957542	-0.00555828635013156	-0.00221455980353447
0.18	4.09865254137333	-0.506379357675157	719.305813309674	-2.71030512976857	2.96761047479488	1.93176003632287	-1.94518186294812	-0.00570204596459156	-0.00184164082677613
0.19	4.03665539969596	-0.389517258909659	720.424349339879	-2.79955577551241	3.26551770495232	1.93502192556772	-1.94894773050303	-0.00581981134077469	-0.00143649162011428
0.2	3.94545314464706	-0.247455165059767	721.248798345197	-2.86844192718427	3.58961997950422	1.93797801556382	-1.95235570360957	-0.00591063342115528	-0.000994357003193613
0.21	3.81980701304306	-0.0918334055086465	721.704753540836	-2.91697842515996	3.94270758519831	1.94216206009328	-1.95693262725998	-0.00597504666083337	-0.000510240739242274
0.22	3.65234134615142	0.0668987524154849	721.749592802142	-2.94552673248539	4.32716841137006	1.94858502251211	-1.96367808451392	-0.00601386200787046	2.03473362422324e-05
0.23	3.43427486526398	0.219809977139517	721.380677642087	-2.95419816712093	4.74443718028934	1.95754319225814	-1.97286025520337	-0.00602728364192184	0.0006004236548805
0.24	3.15722358084426	0.358866946998561	720.639580505576	-2.94277081130798	5.19445604935081	1.96863866783761	-1.98402459014691	-0.00601477387991367	0.0012305501057624
0.25	2.81546915234544	0.475958092516223	719.61108070489	-2.91119608658337	5.67529183146275	1.98096348697101	-1.99617135830867	-0.00597577676108163	0.00190808632788203
0.26	2.40797629881116	0.56228937749747	718.416288794222	-2.86050917773971	6.1830360683775	1.99335756266783	-2.00801691306115	-0.00591104048237256	0.00262690326569243
0.27	1.93958347436743	0.608726678351835	717.200071604793	-2.79376206278098	6.71206614957839	2.00464963648622	-2.01825076210886	-0.00582400124464999	0.0033777158662055
0.28	1.42108417981549	0.607260099430806	716.113900742562	-2.71654975000074	7.25567449297966	2.01382409699898	-2.02573061819025	-0.00572161961784734	0.00414907669885584
0.29	0.868224960300962	0.553261589960297	715.296206852758	-2.63682141282859	7.80698582869302	2.02010549899119	-2.02960207673467	-0.00561422635688635	0.00492892247571608
0.3	0.299861471525377	0.447789886177137	714.853087738543	-2.56391376802597	8.35999444949111	2.02299307139055	-2.02936603255104	-0.00551427572141638	0.00570640779538195
0.31	-0.264399816528005	0.299039724885261	714.842568618061	-2.50702277670566	8.91048853145039	2.02229128081747	-2.02492909562568	-0.00543429330782819	0.00647363710117449
0.32	-0.80674952460734	0.122221045307686	715.265384398984	-2.47353982857123	9.45661652312308	2.01816485332974	-2.01665669059777	-0.00538460022900078	0.00722686587340088
0.33	-1.31360275285745	-0.0623572685919319	716.064405136738	-2.46774513813422	9.99891150154239	2.0112080044496	-2.00541577120166	-0.00537149163516359	0.00796682063767712
0.34	-1.77756692737728	-0.232606737483829	717.13346232263	-2.49025071442569	10.5397194617667	2.0024790531449	-1.99256361897521	-0.00539641236360944	0.00869798287551288
0.35	-2.19854936830544	-0.368479086152128	718.334692878839	-2.53835179913263	11.0821415268963	1.99343547415098	-1.97983044494652	-0.00545635315893611	0.00942694492979851
0.36	-2.5835859666559	-0.455189392412546	719.521915732334	-2.60715778957244	11.6287401797499	1.98572413176905	-1.96906661418286	-0.00554529696232531	0.0101601910252794
0.37	-2.94509254351633	-0.484957203755989	720.566307403008	-2.69112873980024	12.1803196577134	1.98083420633826	-1.96187552578479	-0.00565621126595983	0.0109017964421214
0.38	-3.29754344751634	-0.456925310953713	721.379985068986	-2.78552464052827	12.7350450259777	1.97968692707893	-1.95921160429876	-0.00578292389755808	0.0116515254709177
0.39	-3.65302032901525	-0.375581458522616	721.933155811221	-2.88732059419445	13.2880350981254	1.98228799480885	-1.96106369513713	-0.00592128799483027	0.0124036623150293
0.4	-4.01651640077372	-0.248526784996603	722.261254437484	-2.99533134292222	13.831413644759	1.98757936474556	-1.96634563135637	-0.00606930690319074	0.0131467047455014
0.41	-4.38216490714786	-0.0845957642430252	722.459899532335	-3.10955284194498	14.3547031217651	1.99358489607266	-1.97306993588225	-0.00622625132974819	0.0138638816565014
0.42	-4.73155585315267	0.106928496198814	722.667431880491	-3.22997575096243	14.8454377650406	1.99785781357167	-1.97879802289432	-0.00639113194257801	0.0145343816425281
0.43	-5.0349638604492	0.315833981343392	723.037084382851	-3.35527978290793	15.2899457928111	1.99813430718232	-1.98126708568313	-0.00656108582702497	0.0151351913005786
0.44	-5.25568097860772	0.529715362579758	723.703173329325	-3.48184114933831	15.6743410176583	1.99301379898624	-1.97902315791905	-0.00673024568411262	0.0156434694644398
0.45	-5.35686776930644	0.732862054905556	724.747632444835	-3.60338290754244	15.9857943826987	1.98245535169864	-1.97186941215056	-0.00688949895930013	0.0160393431428922
0.46	-5.30960074553755	0.90629792220534	726.174130674396	-3.71140794852655	16.2140787767058	1.96791751488006	-1.96098027580743	-0.00702727003868386	0.0163088639124131
0.47	-5.10031745108633	1.02959368478996	727.896353743819	-3.79633343405761	16.3532120873759	1.95206785418962	-1.94862556334302	-0.00713115706181933	0.0164466527581848
0.48	-4.73581155397143	1.08438030985393	729.74453518922	-3.84905447620522	16.4028419242656	1.93811849044098	-1.93756580780997	-0.00719001246649587	0.0164576000823319
0.49	-4.24437179050385	1.05874146406679	731.490317025035	-3.86255392022329	16.3689247744753	1.92896300384966	-1.93028252090561	-0.00719593920117079	0.0163570030399495
0.5	-3.672508299559	0.951149316311123	732.885465570635	-3.83317056043601	16.2633294911783	1.92635832466244	-1.92826154675237	-0.00714570956601424	0.0161687836665692
0.51	-3.07775474833435	0.772547952894206	733.706228155751	-3.7612351957487	16.1022472601855	1.93038935543633	-1.93153604641933	-0.00704128108098667	0.0159219010555198
0.52	-2.51899510018351	0.545635623278084	733.793467711412	-3.65094953902428	15.9036444193358	1.93937512295883	-1.93862163284917	-0.00688932566443257	0.0156456072679756
0.53	-2.04638160198579	0.301214507079047	733.079803913741	-3.50956789469676	15.6843239417397	1.95024820569317	-1.94686337273151	-0.00669993047871675	0.0153646069066611
0.54	-1.69302392682052	0.0723866183129774	731.598518991165	-3.346096055015	15.4573376281973	1.95930390569861	-1.95309778744873	-0.00648480549263464	0.0150953009199236
0.55	-1.47021368877709	-0.111939362982451	729.473775586689	-3.16980962673286	15.2304378499405	1.96311309038418	-1.95444707782831	-0.00625540566554572	0.0148440620254893
0.56	-1.36711690016106	-0.232539596102909	726.89615933689	-2.98890053006898	15.0059825171206	1.95935184167466	-1.94903095753432	-0.00602134103630003	0.0146079646739429
0.57	-1.35483651252682	-0.28297906858108	724.090361885176	-2.8094954318822	14.7822967009696	1.94733154310329	-1.93641052776484	-0.00578933368767853	0.0143777393171459
0.58	-1.39377844667416	-0.269661338314668	721.282382885158	-2.63518159819055	14.556079302583	1.9281038608418	-1.91765867398582	-0.00556283223726939	0.0141421362994746
0.59	-1.44257831717583	-0.209038003370965	718.672260586887	-2.46705804786236	14.3251480479918	1.90413887204378	-1.89505932912275	-0.00534225594025395	0.0138925301537947
0.6	-1.46660232669377	-0.122945419989847	716.415939860906	-2.30422884478134	14.0907206057807	1.87869484017703	-1.87154261717429	-0.00512573650234516	0.0136265505289726
0.61	-1.44424663503245	-0.0334427301766285	714.617425459844	-2.14458210118765	13.858552221302	1.85507871367988	-1.85003299520389	-0.00491015826199082	0.0133497840361482
0.62	-1.36984148882732	0.0414997104035268	713.33045079644	-1.98565408601443	13.6385532917862	1.83601242303396	-1.83290059063687	-0.00469225772731641	0.0130750779817614
0.63	-1.25276696234692	0.0905111958456922	712.567620477735	-1.82536525531917	13.4429159629223	1.82326693878543	-1.82165718355341	-0.00446953077626033	0.0128195783889714
0.64	-1.1132236332691	0.109195124492238	712.314141594082	-1.66244387076117	13.2831871470995	1.81762293133334	-1.8169444493295	-0.00424072603092929	0.012600217528923
0.65	-0.975794570099464	0.0986654758808411	712.54264058963	-1.49643343198601	13.1670329993884	1.81910091268116	-1.81875700702919	-0.00400579672512713	0.0124287945741502
0.66	-0.862341989416311	0.0630193173075442	713.225228107783	-1.32730712638038	13.0955620557563	1.82731683426198	-1.82676522353115	-0.00376534089562253	0.0123079520829669
0.67	-0.785831537143664	0.00671715541873752	714.339254811677	-1.15485314262031	13.0619683909198	1.84179176449771	-1.84058080959836	-0.00351974132982902	0.012229178729586
0.68	-0.7463906396267	-0.0672722674517719	715.864469023233	-0.978094098833947	13.0519393623082	1.86208363453551	-1.85984818260498	-0.00326834920999464	0.0121734846823572
0.69	-0.730387218437591	-0.158077007341649	717.771621977195	-0.795009533351128	13.0458230926503	1.88769661804832	-1.88412830960245	-0.00300906623583619	0.0121147110948863
0.7	-0.71269904991304	-0.266282126233956	720.005526222901	-0.60272354822014	13.0220902761981	1.91782361355795	-1.91263509755424	-0.0027385412538482	0.0120247304693155
0.71	-0.661748573510791	-0.392490428340831	722.468225338529	-0.398133085059501	12.9612834571235	1.95105120352023	-1.94395142057045	-0.00245295160324377	0.0118792722620745
0.72	-0.54636758619483	-0.535771742180531	725.009176858512	-0.178761578482501	12.8495232643213	1.98517839089763	-1.97586879131148	-0.00214908782357459	0.011662926967732
0.73	-0.343161284008118	-0.692667823468831	727.428394772185	0.0564875030175111	12.6807694213178	2.01726521291212	-2.00545759204037	-0.0018253166764598	0.0113721017381424
0.74	-0.042806251647744	-0.857171276786298	729.495282628755	0.306979941284335	12.4573725583618	2.04395039328222	-2.02939901068549	-0.00148203116368817	0.0110152573129442
0.75	0.346266319128374	-1.02173462595113	730.981224370391	0.570555392433733	12.188897654928	2.06198674762618	-2.04452253794697	-0.00112139777459408	0.0106104821287395
0.76	0.797972308129073	-1.17902540647639	731.699347543477	0.844223588495206	11.8896232345336	2.0688690897778	-2.0484227100159	-0.000746496099031213	0.010181141836428
0.77	1.27284816454164	-1.32392395836528	731.541831528846	1.12509472586199	11.5754110228723	2.06339371538076	-2.03999659785326	-0.000360194654880241	0.00975079315293859
0.78	1.7258097786525	-1.45519695912155	730.504849923803	1.41119296077984	11.2607345016261	2.04599930929934	-2.01975715483436	3.57821063210473e-05	0.00933866183807808
0.79	2.11563799581056	-1.57635353973818	728.693971885015	1.70184341813465	10.956544594773	2.01879074988839	-1.98983126924037	0.000441209670238973	0.00895674870722846
0.8	2.41374384326114	-1.69536521919441	726.307855344841	1.99748243328192	10.6693798387052	1.98522437607392	-1.9536294806238	0.00085697673583951	0.00860912926872964
0.81	2.60977664939499	-1.82317617234171	723.603831812856	2.29895863566102	10.4017744957717	1.94951595482403	-1.91525612452888	0.00128407913641393	0.00829339713334254
0.82	2.71243627463428	-1.97122302195159	720.853739065086	2.606591462056	10.1536739072882	1.91590107728269	-1.87879360356851	0.001722370348609	0.00800363543475546
0.83	2.74523438658956	-2.14848351136997	718.300677514152	2.9193638147841	9.92431852340192	1.8879157725597	-1.84762629458454	0.00216957092869297	0.00773393005468487
0.84	2.73848388359941	-2.35880550014748	716.126627612968	3.23460503608142	9.71396619429209	1.86786270882062	-1.82395965680898	0.00262098952648782	0.00748135189941224
0.85	2.71997139782447	-2.59933037889495	714.437419289257	3.54836817736325	9.5249041831232	1.85658402893784	-1.80863968195619	0.00307018823017313	0.00724754205256245
0.86	2.70718911853678	-2.8606359600048	713.266534059868	3.85646496839418	9.36142996216183	1.85358444602657	-1.80129872100277	0.00351049880515164	0.00703846445086243
0.87	2.70352113502653	-3.12877862773133	712.594156416686	4.15587144799944	9.2287889886525	1.85745616131506	-1.80076623885196	0.00393697184670816	0.0068624226719477
0.88	2.69953884163652	-3.38882022150016	712.374158225958	4.44604727313014	9.13136657829102	1.86647490855103	-1.80561118895468	0.00434813719459226	0.00672692971054872
0.89	2.67894007894786	-3.6288797914307	712.560187712987	4.72969141958033	9.07066094806501	1.87918805524736	-1.81464761929901	0.00474695694096616	0.00663534942024518
0.9	2.62716573189327	-3.84346862456385	713.122983891945	5.01260446621978	9.04365662656192	1.8948176811792	-1.82724880705804	0.00514057563774717	0.00658431588836311
0.91	2.53981309342854	-4.0349868589345	714.054082016376	5.30259846071064	9.04214428931201	1.91335695663376	-1.84337629546954	0.00553884497003365	0.00656275887702817
0.92	2.42793661207877	-4.21277743083321	715.355385004261	5.60769667846924	9.05330550107234	1.93533399759284	-1.8633230132679	0.00595199043028327	0.00655295665515282
0.93	2.31822087623841	-4.3898944900505	717.018524028287	5.93409192009902	9.06154957050894	1.96132656948357	-1.88726716126889	0.00638805500200879	0.00653349662653896
0.94	2.24758048915107	-4.57849765120308	719.001300250206	6.28440682895696	9.05123870056063	1.99139892997688	-1.9148041403105	0.00685080808701244	0.00648348706766078
0.95	2.25351685426603	-4.78527045708004	721.209756641039	6.65670413412946	9.00966588876681	2.02466728597953	-1.94464113822836	0.00733863989590777	0.00638698142726213
0.96	2.36298677419158	-5.0083057244033	723.493065420338	7.04447067418316	8.92954359006741	2.05916639551331	-1.97459241109653	0.0078446468553659	0.00623647145938033
0.97	2.58314497783538	-5.23647705427923	725.654718789888	7.43752786832093	8.81036293258757	2.09209387058886	-2.00191433535448	0.00835777101839785	0.0060345245312623
0.98	2.89689076082335	-5.45156242124692	727.478581532346	7.82359045014493	8.65827358605055	2.12038144555481	-2.02390030596066	0.00886459883213253	0.00579313246031343
0.99	3.26478514209719	-5.63255222740653	728.76380105027	8.19006876614805	8.48453204627554	2.14142820543443	-2.03855894689966	0.00935132010328799	0.00553096290921884
1	3.63302221218916	-5.7609288698111	729.359887246543	8.52571126421244	8.30295215955528	2.15377077393885	-2.045161173496	0.00980540450944312	0.00526927157064166
1.01	3.94532788534549	-5.82543941945069	729.193315239871	8.82179346370228	8.12704822258566	2.15748156617703	-2.04447767467626	0.0102167247548424	0.00502757167041329
1.02	4.15549808785398	-5.82505627840311	728.279622445935	9.07272630106146	7.96761079408471	2.15417207482726	-2.03862587850284	0.0105780657276894	0.00482016828194665
1.03	4.23714544628129	-5.76935729393273	726.719131511378	9.27611868375772	7.8312880297204	2.14660203497466	-2.03056884532184	0.0108851315565666	0.00465435613838761
1.04	4.18813256991464	-5.67628648032039	724.678663236279	9.43243905285196	7.72042000782676	2.13801300391118	-2.02341338088754	0.0111362506712758	0.00453055927272233
1.05	4.02881737417203	-5.56796885370972	722.364599091328	9.544461351557	7.63399753098717	2.13137729811297	-2.01970556170332	0.0113319792330241	0.00444412830082486
1.06	3.79506969601435	-5.46575171662024	719.993713650863	9.61666341297344	7.56930886447646	2.12876093536258	-2.02090604337397	0.0114747458651852	0.00438807909111649
1.07	3.52844305907749	-5.38579677023332	717.76738144925	9.65469559040579	7.5236880291304	2.13094791125094	-2.02715815946971	0.0115686050337247	0.00435587497669804
1.08	3.26647010901668	-5.33632003240526	715.852717188075	9.66497671961642	7.49581989321053	2.13738800874219	-2.03736986524504	0.0116190990631317	0.00434345558536808
1.09	3.03567296157453	-5.3170509213874	714.371819986305	9.65441535799939	7.48625889825145	2.14644318246965	-2.04954966427214	0.0116331765635651	0.00435003848623527
1.1	2.84875149705775	-5.32082924554552	713.398333368235	9.63020263324124	7.49709898194362	2.15584343052918	-2.06128910537149	0.0116190754839159	0.00437764008523495
1.11	2.70597615350618	-5.33668213424987	712.959430196123	9.59958678859625	7.53099492058911	2.16323288543018	-2.07027502663082	0.0115860548302622	0.0044296388364729
1.12	2.59956328791472	-5.35338727699444	713.041116757387	9.56953176069394	7.58990260034549	2.16668788313913	-2.0747335736102	0.0115438645459556	0.00450893116500245
1.13	2.5191232461887	-5.36251028823368	713.595158375662	9.5461958576915	7.67394382560042	2.16511067179507	-2.07373927770585	0.0115018960980885	0.0046162682346913
1.14	2.45628386043934	-5.36017462556145	714.546580936924	9.53424339480752	7.78072210388228	2.15843447868242	-2.06735328633921	0.0114680615656729	0.00474923454042858
1.15	2.4072008397349	-5.34727125541518	715.801278198409	9.53610297532406	7.90526169076214	2.14761115722143	-2.05658008061018	0.0114475832952593	0.00490210233126537
1.16	2.37259223425652	-5.32829091303136	717.253590277037	9.55137245983884	8.04056508299449	2.13438892463389	-2.04315344809455	0.0114419888003515	0.00506654419460995
1.17	2.35583374488511	-5.30932074810537	718.793805528781	9.57659859023524	8.17863063518525	2.12092313633154	-2.02918396131117	0.0114486375202395	0.0052329738803481
1.18	2.3602310206057	-5.29589462969572	720.315452740925	9.6056005916054	8.31167525313126	2.10929401749632	-2.01672283639302	0.0114610196662994	0.00539215645530489
1.19	2.38668539394224	-5.29130257854228	721.722084610414	9.63036708794843	8.43328353254248	2.10102583860781	-2.00731723435855	0.0114698707825763	0.00553670331674633
