Time [s]	GRFml [N]	GRFap [N]	GRFv [N]	Mml [N.m]	Map [N.m]	Mv [N.m]	Mfree [N.m]	COPml [m]	COPap [m]
0.01	20.1045058755087	-5.13993174767462	681.136623997955	-58.6048845066058	-6.66016802387601	-1.39054127485836	0.28908447432182	0.00475009178061572	0.0100440804922861
0.02	19.8421043110761	-4.98489982158666	682.436757714321	-58.7422547773912	-6.72158367235329	-1.36071157091121	0.298256756215656	0.00468003891996929	0.0100826902745645
0.03	19.5854584541372	-4.83143562895105	683.708705825712	-58.8793315453117	-6.78267907721729	-1.33182848946034	0.307028270908916	0.00460985927816148	0.0101245846524975
0.04	19.3396939880728	-4.6816507976626	684.929165275836	-59.0162394479464	-6.84318569112565	-1.3046602084975	0.315109285123092	0.0045396473570787	0.0101728401935022
0.05	19.109545836955	-4.53755340119727	686.076602040112	-59.1532766192853	-6.90289722293393	-1.27991540850856	0.322234501326548	0.0044694690528854	0.0102305391136472
0.06	18.8991633564122	-4.40099156638926	687.132112637605	-59.2908795055472	-6.96166821702239	-1.25821033048788	0.328177584225933	0.00439936496709396	0.0103006144289639
0.07	18.7119475447647	-4.27360296219134	688.080166322482	-59.4295853450653	-7.01941158753379	-1.24004123392503	0.332763556813356	0.00432934948810594	0.0103857090290173
0.08	18.5504287559433	-4.15677176197067	688.909189573054	-59.5699947412104	-7.07609555737178	-1.22576380565155	0.33587817783981	0.00425940692284694	0.0104880559491199
0.09	18.4161905863989	-4.051594401092	689.611962682493	-59.7127361392042	-7.13174026486301	-1.2155805473063	0.337473640452395	0.00418948653171007	0.0106093850834736
0.1	18.3098425697242	-3.95885511537568	690.185808205447	-59.8584334014011	-7.18641412030534	-1.20953660762225	0.337570217859769	0.00411949844971047	0.010750859535598
0.11	18.2310412757095	-3.87901185596981	690.632562171827	-60.0076771387947	-7.24022984436597	-1.20752397010737	0.336253798521656	0.00404931219512738	0.0109130428914598
0.12	18.1785565803907	-3.81219275269332	690.958330701244	-60.1610000474691	-7.29334001594787	-1.20929339491929	0.333669569681795	0.00397875888032477	0.0110958970120444
0.13	18.1503774203647	-3.75820286677998	691.173046257796	-60.3188562385939	-7.34593190636447	-1.21447307610782	0.33001239370803	0.00390763749671185	0.0112988085154534
0.14	18.1438493961471	-3.71654056269482	691.289848599382	-60.4816044367201	-7.39822138030314	-1.22259263391933	0.325514650344507	0.00383572490441224	0.011520640960936
0.15	18.1558352281819	-3.68642246322696	691.324324870723	-60.6494949320566	-7.45044569734634	-1.2331108300945	0.320432470387149	0.00376278855321248	0.0117598088473625
0.16	18.1828883323898	-3.66681565398867	691.293650722326	-60.822660273146	-7.50285514159328	-1.24544527748283	0.315031352309132	0.00368860058752446	0.0120143688790416
0.17	18.2214296644437	-3.65647558811469	691.215679383903	-61.001109834363	-7.55570352889282	-1.25900241177517	0.309572132567329	0.00361295188275103	0.012282123516485
0.18	18.2679184403454	-3.65398801743342	691.108027997281	-61.1847285433595	-7.60923777720317	-1.27320609403227	0.304298181350066	0.00353566470749763	0.012560731607526
0.19	18.3190083015729	-3.65781324337751	690.987210096705	-61.3732801654446	-7.66368686085265	-1.28752340374247	0.299424534264306	0.00345660304485967	0.0128478208779665
0.2	18.3716818590161	-3.66633103346858	690.867859955317	-61.5664155805914	-7.7192505897759	-1.30148644485552	0.295129467471753	0.00337568004814322	0.0131410972441481
0.21	18.423358208865	-3.67788467606149	690.76208880093	-61.7636864304167	-7.77608874759362	-1.31470930013935	0.291548801452492	0.00329286255590071	0.0134384462821568
0.22	18.4719698461486	-3.69082283221212	690.679004997097	-61.9645643456453	-7.83431117773788	-1.3268996092811	0.288772998401872	0.00320817296399544	0.0137380227315239
0.23	18.5160072890263	-3.70353807219625	690.624420669345	-62.1684656911887	-7.89396941804806	-1.33786459028887	0.286846918692387	0.0031216889913742	0.014038324597064
0.24	18.5545315581861	-3.71450123832067	690.600756508681	-62.3747814010993	-7.95505044843653	-1.3475116501341	0.285771936812121	0.00303354195909365	0.0143382492030806
0.25	18.5871563335296	-3.72229103942435	690.607145239751	-62.5829110461175	-8.01747303425152	-1.35584401998843	0.285509995567011	0.00294391414166441	0.0146371294051238
0.26	18.6140030556314	-3.72561854231539	690.639723149618	-62.7922998186098	-8.08108702441779	-1.36295208735618	0.285989102912789	0.00285303558639982	0.0149347490295295
0.27	18.6356333941651	-3.72334647053371	690.692088759883	-63.0024766760493	-8.14567580615974	-1.36900127097626	0.287109747922896	0.00276118058605778	0.0152313374474818
0.28	18.6529643335423	-3.71450344318052	690.755898751779	-63.2130915001647	-8.21096193761382	-1.37421738880622	0.288751726886504	0.00266866378988809	0.0155275439642583
0.29	18.6671716129112	-3.69829348017511	690.821564088626	-63.4239488485854	-8.27661578834224	-1.37887050428324	0.290780920542579	0.0025758357943582	0.0158243933933128
0.3	18.6795874086809	-3.67410126052102	690.879004273998	-63.6350357381728	-8.34226682912975	-1.38325820609053	0.29305564048509	0.00248307799401159	0.0161232247791212
0.31	18.6915979853848	-3.6414937426885	690.918415058039	-63.8465409344462	-8.40751704002831	-1.38768919105784	0.295432257458647	0.00239079649952717	0.0164256157334455
0.32	18.704546601561	-3.60021883651766	690.931004745716	-64.0588634480657	-8.47195576206762	-1.39246789132566	0.297769927108673	0.00229941502871691	0.0167332952654884
0.33	18.7196462886672	-3.55020184931444	690.90965652571	-64.2726083619136	-8.535175214183	-1.39788073044027	0.299934330767385	0.00220936681813837	0.0170480483288645
0.34	18.7379062773097	-3.4915404105824	690.84947876343	-64.4885687206322	-8.59678584085558	-1.40418442427224	0.301800442123074	0.00212108575426888	0.0173716155872513
0.35	18.7600748842525	-3.42449850709631	690.748211717102	-64.7076929832367	-8.65643065249256	-1.41159657639503	0.303254408742623	0.00203499705263536	0.0177055921203105
0.36	18.7866006540133	-3.34950013257453	690.606467284906	-64.9310384292559	-8.71379777071227	-1.4202886664622	0.304194695870845	0.00195150789857556	0.0180513289483951
0.37	18.8176125255472	-3.26712287792627	690.427787748279	-65.1597118683144	-8.76863049157016	-1.4303814035545	0.304532676227255	0.00187099849399901	0.0184098413365081
0.38	18.8529188170779	-3.17809156778903	690.218519567228	-65.3947999714713	-8.82073432480655	-1.44194231991527	0.304192863195803	0.0017938139322401	0.018781727825274
0.39	18.8920239321971	-3.08327180098945	689.987508604317	-65.6372924537109	-8.86998064667308	-1.45498541540304	0.303112977220911	0.00172025725910929	0.0191671038046977
0.4	18.9341609204438	-2.98366299577214	689.745633191508	-65.8880021230573	-8.91630680564607	-1.46947262713372	0.301244009254014	0.001650583989486	0.0195655531692697
0.41	18.9783373985188	-2.88039029820435	689.505200704579	-66.1474864083536	-8.95971273074951	-1.48531688699894	0.29855040471454	0.00158499825338334	0.019976101147567
0.42	19.0233918676493	-2.77469450945474	689.27924129775	-66.4159753280777	-9.00025429727492	-1.50238653498367	0.295010441306227	0.00152365065863916	0.0203972107703037
0.43	19.0680571536024	-2.66791905027613	689.080738748702	-66.6933109221914	-9.03803389104027	-1.52051087070171	0.290616819146772	0.00146663788889057	0.0208268046236811
0.44	19.1110275467857	-2.56149293247339	688.921842609799	-66.9789029096571	-9.07318876824813	-1.53948664199894	0.285377427002397	0.00141400400804641	0.0212623125405258
0.45	19.1510262237816	-2.45690876633142	688.813107778775	-67.2717047470038	-9.10587792419245	-1.55908528194425	0.279316198677183	0.0013657434124619	0.0217007447376311
0.46	19.1868696776302	-2.35569501199241	688.762807018543	-67.570213360734	-9.13626825425603	-1.57906071026728	0.272473933008536	0.00132180535130824	0.0221387886589341
0.47	19.2175261585205	-2.25938198491564	688.77635881702	-67.8724946432063	-9.16452081189783	-1.59915751100731	0.264908922994832	0.00128209991434626	0.0225729264919521
0.48	19.2421655133726	-2.16946154393516	688.855907361354	-68.1762353941122	-9.19077794107859	-1.61911928591954	0.256697226973929	0.00124650535583607	0.0229995690636652
0.49	19.2601982942962	-2.08734090718265	689.000083522138	-68.4788208330716	-9.21515198837631	-1.63869696615603	0.247932419046498	0.0012148765787428	0.0234152006744436
0.5	19.2713025622627	-2.01429162741701	689.203965955297	-68.777435193622	-9.23771618914667	-1.65765684732801	0.238724677393271	0.00118705454494037	0.0238165284793117
0.51	19.2754374216321	-1.95139537518809	689.459250214415	-69.0691813352768	-9.25849818081621	-1.67578810018636	0.229199106650261	0.00116287631010555	0.024200629354282
0.52	19.2728429594184	-1.89948877869932	689.754621716741	-69.3512138822098	-9.27747643445944	-1.69290950540747	0.219493241470722	0.00114218531559423	0.0245650868586879
0.53	19.2640269045695	-1.85911010092729	690.076316197579	-69.620879214939	-9.29457972354937	-1.7088751698814	0.209753738778475	0.00112484151457742	0.0249081109703683
0.54	19.2497389401318	-1.83045094376757	690.408839642553	-69.8758547951152	-9.30968957645493	-1.72357900546838	0.200132330779597	0.0011107308759806	0.0252286337528905
0.55	19.2309341678272	-1.81331640494729	690.735809331907	-70.1142798659837	-9.32264549646278	-1.73695778964092	0.190781173588959	0.00109977380419655	0.0255263750089477
0.56	19.2087277141914	-1.80709713313337	691.040869249467	-70.3348695922221	-9.3332525881845	-1.74899267922276	0.181847781288549	0.00109193203773665	0.0258018732494862
0.57	19.1843428564178	-1.81075649937641	691.308627294164	-70.5370052053133	-9.34129110897002	-1.75970911050531	0.17346977696357	0.00108721364418015	0.0260564789051055
0.58	19.1590553148385	-1.82283561452442	691.525558941524	-70.7207936971482	-9.34652737339502	-1.76917508718881	0.165769716752496	0.00108567580673956	0.0262923085430206
0.59	19.1341364934595	-1.84147817783537	691.68082251905	-70.8870920173956	-9.34872538119222	-1.77749792707853	0.158850248173328	0.00108742519244712	0.0265121608302521
0.6	19.1107984427499	-1.86447616827314	691.766935162833	-71.0374925124054	-9.34765851551692	-1.78481960443906	0.152789850207628	0.00109261579636667	0.0267193969921418
0.61	19.0901431699971	-1.88933623458786	691.780265674688	-71.17426840235	-9.34312066888505	-1.79131088300876	0.14763937230599	0.00110144426488634	0.0269177904419608
0.62	19.0731186397611	-1.91336537004656	691.721310543405	-71.3002803156679	-9.33493619673829	-1.79716448141939	0.143419546849462	0.00111414281092994	0.0271113519934053
0.63	19.0604834055178	-1.93377315445442	691.594731772483	-71.4188471583336	-9.32296817038267	-1.80258754583656	0.140119599877753	0.00113096994394186	0.0273041385145423
0.64	19.0527813154615	-1.94778660110496	691.409149142858	-71.5335867563188	-9.30712449797926	-1.80779372300445	0.137697033349526	0.00115219934808841	0.0275000539562086
0.65	19.050327168287	-1.9527725530809	691.176694282212	-71.6482336408707	-9.28736159945979	-1.81299513076088	0.136078603244225	0.00117810735324754	0.0277026523264144
0.66	19.0532035905081	-1.94636172017689	690.912348494412	-71.7664429259269	-9.26368545312918	-1.81839451378648	0.135162474282523	0.00120895955282791	0.0279149523435447
0.67	19.0612688000058	-1.9265679100851	690.633099800737	-71.8915903508715	-9.23614997220745	-1.82417785197638	0.134821494821681	0.00124499722440735	0.0281392731673648
0.68	19.0741743462326	-1.89189584134119	690.356966193783	-72.0265791501765	-9.20485281221167	-1.83050765999141	0.13490750357861	0.00128642429339445	0.0283770997845568
0.69	19.0913914096459	-1.84143116222656	690.101940958072	-72.1736644144828	-9.16992884828274	-1.83751718204653	0.135256550868916	0.00133339563236077	0.028628985345466
0.7	19.1122438316446	-1.77490694304373	689.884921489213	-72.3343050090883	-9.13154168879444	-1.84530564848447	0.135694888106707	0.00138600749340381	0.0288944960650191
0.71	19.1359457558694	-1.69274193419919	689.720684973684	-72.5090519344492	-9.08987370162132	-1.8539347224074	0.136045547951257	0.00144429081314176	0.0291722022894384
0.72	19.1616416086468	-1.59604723779185	689.620972431589	-72.6974803023787	-9.04511511661968	-1.86342622722947	0.136135302725377	0.00150820800000735	0.0294597170868805
0.73	19.1884461376243	-1.4865996512117	689.593737070161	-72.8981699458794	-8.99745282732555	-1.87376121034878	0.135801751706386	0.00157765361038946	0.0297537813556665
0.74	19.2154823599403	-1.36678171505043	689.642603968919	-73.1087371913991	-8.94705954277997	-1.88488036432408	0.134900252072658	0.00165245905399608	0.0300503920799807
0.75	19.241915530901	-1.23949033041787	689.766576344243	-73.3259176313475	-8.89408393424926	-1.89668579437495	0.133310379121324	0.00173240116121548	0.0303449681251984
0.76	19.2669816080622	-1.10801759404639	689.960009713138	-73.545696986118	-8.83864238045459	-1.90904408856918	0.130941585410873	0.00181721412719773	0.0306325459747689
0.77	19.2900091234606	-0.97590912729549	690.212860003509	-73.7634844871987	-8.78081283954551	-1.92179061331267	0.127737732184692	0.00190660405464789	0.0309079961771195
0.78	19.3104338536661	-0.846806550231327	690.511195917915	-73.9743207909717	-8.72063126907927	-1.93473492038975	0.123680194855052	0.00200026508454473	0.0311662500842404
0.79	19.3278061574235	-0.724281791848285	690.837950538568	-74.173110379799	-8.65809088118628	-1.9476671119576	0.118789299995742	0.00209789595857122	0.0314025257881553
0.8	19.3417913003065	-0.611671568860474	691.173873113848	-74.3548668380233	-8.59314436511258	-1.96036496658116	0.113123933464724	0.00219921581439796	0.0316125420337436
0.81	19.3521634767797	-0.511920567296117	691.498629957801	-74.5149583968166	-8.52570904108925	-1.97260158379416	0.106779263749598	0.00230397807633331	0.0317927093137478
0.82	19.3587945516494	-0.427441606461858	691.791994071069	-74.6493407865237	-8.45567473673555	-1.98415325937322	0.0998826440685227	0.00241198145700643	0.0319402883145272
0.83	19.3616387631895	-0.360000361290872	692.035056955281	-74.7547647503998	-8.38291400935194	-1.99480726251962	0.0925878815061783	0.00252307730839796	0.0320535073356099
0.84	19.3607147563232	-0.310631097868716	692.211393480283	-74.8289465589706	-8.30729418405719	-2.004369154682	0.0850681806058731	0.00263717282545595	0.032131632188915
0.85	19.356086351342	-0.279588390985344	692.30811174055	-74.8706914863678	-8.2286905480024	-2.01266927382564	0.07750817140238	0.00275422988603967	0.0321749843150921
0.86	19.347843413392	-0.266338013775782	692.316724596494	-74.8799624038977	-8.14699994328777	-2.01956801365093	0.0700955079754885	0.00287425958535859	0.032184905342089
0.87	19.3360840860855	-0.269588205238757	692.233787862299	-74.8578883173337	-8.06215394292007	-2.02495955988955	0.0630125653987882	0.00299731277729176	0.032163668951204
0.88	19.3208995061623	-0.287360430434219	692.061261537436	-74.8067107026525	-7.9741307807416	-2.02877380891032	0.0564287654053984	0.00312346716255711	0.0321143435955981
0.89	19.3023619408286	-0.317096656142206	691.806564597349	-74.729668738517	-7.88296524127006	-2.03097628831074	0.0504940223756673	0.00325281166384154	0.0320406122149524
0.9	19.2805170972982	-0.355798179490754	691.482310036761	-74.6308278353073	-7.78875579996308	-2.03156602241738	0.0453337229345244	0.00338542900193138	0.0319465574816858
0.91	19.2553811520938	-0.400189273425838	691.105724354499	-74.5148590530751	-7.69166843701191	-2.03057143133973	0.0410455393473507	0.00352137753377567	0.0318364231711287
0.92	19.2269428373438	-0.446897447999151	690.697773641305	-74.3867799151919	-7.59193672388948	-2.02804451037034	0.0376982367391361	0.00366067352696214	0.0317143638461168
0.93	19.1951706994142	-0.492641054879796	690.282035970246	-74.2516695967312	-7.48985799400354	-2.02405369388942	0.0353324770034305	0.00380327511179196	0.0315841960723724
0.94	19.1600254058164	-0.534414351978182	689.883375942222	-74.1143733461723	-7.38578564643366	-2.01867594919614	0.0339634598675326	0.0039490691521566	0.0314491647415076
0.95	19.1214767133812	-0.56966004259143	689.526491056685	-73.9792121569445	-7.28011788167738	-2.01198875489077	0.0335850866165086	0.00409786218715238	0.0313117377100757
0.96	19.0795244212459	-0.59641973205688	689.234410157045	-73.8497140426152	-7.17328341526511	-2.00406268071632	0.0341751972501731	0.00424937639751141	0.0311734408417533
0.97	19.0342223193161	-0.613453701169129	689.02703073821	-73.7283827245877	-7.06572494233817	-1.9949552892329	0.0357013294415946	0.00440325123572406	0.031034743688261
0.98	18.9857038179579	-0.62032284841505	688.919783753747	-73.6165180963346	-6.95788131678999	-1.98470701710745	0.0381263881029761	0.00455905093469119	0.0308950035365678
0.99	18.9342076285135	-0.617427543209686	688.92251128995	-73.5141005144359	-6.85016954614971	-1.97333956395308	0.0414136057198282	0.00471627760673185	0.0307524725084837
1	18.8801015865164	-0.606000373636561	689.038633918668	-73.4197478660308	-6.74296777395787	-1.96085712517013	0.0455302206354055	0.00487438911359219	0.030604368990236
1.01	18.8239025065799	-0.588052254254874	689.264670846284	-73.3307506074716	-6.63660041426198	-1.94725056466941	0.050449403741105	0.00503282039471597	0.0304470110917641
1.02	18.7662898690977	-0.566273951840992	689.590157627401	-73.2431857398292	-6.53132651196972	-1.93250435246691	0.0561501192937868	0.00519100655592448	0.0302760063021019
1.03	18.7081112012854	-0.543897644948145	689.997984037864	-73.1521062035287	-6.42733222767823	-1.91660581447613	0.062614803339969	0.00534840580540055	0.0300864882315185
1.04	18.6503772581089	-0.524525505949693	690.465149855628	-73.0517976868334	-6.32472809210914	-1.89955598361888	0.0698249688192674	0.00550452031823818	0.0298733885098469
1.05	18.5942455484277	-0.511934333413475	690.963910207909	-72.9360906179378	-6.22355135588128	-1.88138112898811	0.0777550806945703	0.0056589133237247	0.0296317297111587
1.06	18.5409913865094	-0.509866832319418	691.463256434932	-72.798711415843	-6.12377339389939	-1.86214389697217	0.0863652651010249	0.00581122111644533	0.0293569237271434
1.07	18.4919664562894	-0.521821126334739	691.930654817249	-72.6336541624894	-6.02531173461477	-1.84195294347118	0.095593599980105	0.0059611592398197	0.0290450594017988
1.08	18.4485458110194	-0.550850408450589	692.333945715207	-72.4355519452587	-5.92804590163666	-1.82096998058164	0.105348858593519	0.00610852270686019	0.0286931635102632
1.09	18.4120652298656	-0.599384251598962	692.64329122568	-72.2000263714355	-5.83183590994896	-1.79941330630031	0.115504623101725	0.00625318073064124	0.0282994203120725
1.1	18.3837518353784	-0.669082011947665	692.833051645653	-71.9239942754304	-5.73654198282328	-1.77755712405784	0.125895640791026	0.00639506696664014	0.0278633368871189
1.11	18.3646517520333	-0.760727013716427	692.88347072746	-71.6059124497599	-5.6420438775043	-1.75572627296463	0.136317156815964	0.00653416666814355	0.0273858441816066
1.12	18.3555592655569	-0.874167900154262	692.782057317684	-71.2459442733596	-5.5482581517468	-1.73428635418727	0.146527730775818	0.00667050239298432	0.0268693270207225
1.13	18.3569523428511	-1.00831080554666	692.524566352224	-70.8460362438308	-5.45515178523581	-1.71362962270774	0.15625574683541	0.00680411996431432	0.0263175801161828
1.14	18.3689394275274	-1.16116301435068	692.115504634178	-70.4098974239349	-5.36275079541576	-1.6941573828093	0.165209484890321	0.00693507628578479	0.0257356911099685
1.15	18.3912220963341	-1.32992571305546	691.568115110282	-69.9428804011376	-5.2711428497834	-1.67625994639086	0.173090267417831	0.00706343035918537	0.025129855727154
1.16	18.4230774388551	-1.51113050323427	690.903825772678	-69.4517681970476	-5.1804733568011	-1.66029545582519	0.179607871050971	0.00718923847313077	0.0245071339267501
1.17	18.4633629339278	-1.70081171984433	690.1511837625	-68.9444772878323	-5.09093508313431	-1.64656901450581	0.184497130842133	0.0073125540509647	0.0238751593098178
1.18	18.5105452040614	-1.89470445755846	689.344329424824	-68.4296921395367	-5.00275195269111	-1.63531359454019	0.187534500266398	0.00743343209420863	0.0232418167587122
