Time [s]	GRFml [N]	GRFap [N]	GRFv [N]	Mml [N.m]	Map [N.m]	Mv [N.m]	Mfree [N.m]	COPml [m]	COPap [m]
0.01	19.9845178423695	-10.1156078146079	918.352297485519	-67.8417448057127	4.58503960426998	-1.2554426127355	0.271417028189407	-0.00472239433350329	0.00202741664058805
0.02	19.9981803552409	-9.58731145053217	918.760458161493	-67.9877067733002	4.63928455156387	-1.14268453943609	0.385631160870514	-0.00466720633255986	0.00214812383677811
0.03	20.0106109162345	-9.07032304562518	919.182648249676	-68.1364981304202	4.69300990147346	-1.03248895263081	0.497216830273427	-0.00461271200260388	0.00227035023878965
0.04	20.020532216294	-8.57511441177193	919.616901617489	-68.2877458381623	4.74538172085745	-0.927060668232257	0.603918026691836	-0.00455981745630167	0.00239383560486475
0.05	20.0266843333332	-8.11160380204619	920.059501003716	-68.4407696487472	4.79556175003071	-0.828413709659963	0.703667834493937	-0.00450942111678416	0.0025181499227153
0.06	20.0278874049295	-7.68877336532664	920.504762581779	-68.5945144293285	4.84273449090755	-0.738285331704953	0.794675613342321	-0.00446238193157941	0.00264263899469015
0.07	20.0231009358329	-7.31432445001701	920.944982056415	-68.7475149104079	4.88613789895652	-0.658065956779839	0.87549839794038	-0.00441948471957065	0.00276639041763055
0.08	20.0114768981501	-6.99438730200414	921.370565828578	-68.8978987706837	4.92509711897096	-0.588748814667954	0.945092785549681	-0.00438140354786035	0.0028882240062772
0.09	19.9924043583631	-6.73329913112101	921.770355297075	-69.0434303246069	4.95906031628385	-0.530901635342628	1.00284502154802	-0.00434866436443066	0.00300670828188612
0.1	19.9655440138621	-6.53346116148101	922.132135739178	-69.1815933069543	4.98763522257248	-0.484661208685908	1.04857851150409	-0.00432160845238913	0.00312020228086314
0.11	19.930851679293	-6.39528129683382	922.443304799592	-69.3097076912796	5.01062457069813	-0.449750118602387	1.08253945885163	-0.00430035859430351	0.00322691981621284
0.12	19.8885903743177	-6.31720463861178	922.691660720704	-69.4250724201644	5.02805817970975	-0.425513590983405	1.10536264291367	-0.00428479010748586	0.00332501156129086
0.13	19.8393311856134	-6.29582954333053	922.866258230977	-69.525123583392	5.04021912163137	-0.41097325329393	1.11802042935758	-0.00427450909807214	0.00341265898104828
0.14	19.78394347832	-6.32610246559741	922.958271434464	-69.6075961040224	5.04766121242478	-0.404893751410455	1.12175888870435	-0.00426884034932104	0.00348817323746045
0.15	19.7235753037884	-6.40158076808993	922.961798816626	-69.6706764593966	5.05121507483342	-0.405857643153333	1.11802536200118	-0.00426682717669092	0.00355009175405296
0.16	19.6596249968179	-6.5147492337558	922.87454600479	-69.713134383123	5.0519802655602	-0.412343797626023	1.10839195761755	-0.0042672453222859	0.00359726514525928
0.17	19.5937049978008	-6.6573733935477	922.69832727479	-69.7344228103696	5.0513014716901	-0.422804660468134	1.09447931458112	-0.00426863250322448	0.00362892770282808
0.18	19.5275989069527	-6.82087113967289	922.439336724948	-69.7347374313941	5.05072756673515	-0.435738162088049	1.07788456938409	-0.00426933455915625	0.00364474557803332
0.19	19.4632127200293	-6.99668352366842	922.108153969584	-69.7150299495375	5.05195335288293	-0.449750697304203	1.06011686990574	-0.00426756826155891	0.00364483817994987
0.2	19.4025211497383	-7.17662616875909	921.719466271568	-69.6769723061879	5.05674505115424	-0.463608428037818	1.04254305231573	-0.00426149976602533	0.00362977007042427
0.21	19.3475099412329	-7.35320431755914	921.291508131474	-69.6228725189157	5.06685195503859	-0.476275087559299	1.02634529428936	-0.00424933644568863	0.00360051268059666
0.22	19.3001151693716	-7.51987708454312	920.845239199962	-69.5555461514855	5.08390803178182	-0.48693542654514	1.01249173545396	-0.00422942850530222	0.0035583773672882
0.23	19.2621606702574	-7.67125982363037	920.403300605719	-69.4781505697371	5.10932851879643	-0.495004373131386	1.00172026111073	-0.00420037544002484	0.00350492350387926
0.24	19.2352950030649	-7.80325744026525	919.988807014699	-69.3939918253828	5.14420759492771	-0.500122824394253	0.99453491693651	-0.00416113120093422	0.0034418472772441
0.25	19.2209296365012	-7.91312572238908	919.624045667295	-69.3063160695591	5.1892238882464	-0.502141699195151	0.991213791452961	-0.00411110101427833	0.00337085846305525
0.26	19.2201803694536	-7.99946206122614	919.329163170349	-69.2180986888582	5.24456081342245	-0.501096428823495	0.991826693264033	-0.00405022233381806	0.00329355352752786
0.27	19.2338142798918	-8.06213100171663	919.120925109311	-69.1318447876056	5.30984844321078	-0.497174422839458	0.996260578801504	-0.00397902252852506	0.00321129385319863
0.28	19.2622046986571	-8.10213363892121	919.01163208918	-69.0494141764498	5.3841327813106	-0.490678217199685	1.00425046490294	-0.00389864671938614	0.00312509766868203
0.29	19.3052967768079	-8.12143272942441	919.00826849674	-68.971882692826	5.46587693577328	-0.481986997246222	1.01541349355394	-0.00381085070527084	0.00303555340055522
0.3	19.3625861169125	-8.12274733541585	919.111947401529	-68.899449555435	5.55299685990192	-0.471519007769103	1.02928389998502	-0.00371795609439548	0.00294276074112004
0.31	19.4331126443971	-8.10933174922576	919.317697291319	-68.831397677437	5.64293214386078	-0.459697043409786	1.04534685673371	-0.00362276742559216	0.00284630386592749
0.32	19.5154713969415	-8.0847533189327	919.614614861266	-68.7661106110216	5.73274995616325	-0.446918788806832	1.06306950137581	-0.00352845398141849	0.00274525909536655
0.33	19.6078412200629	-8.05268265258846	919.986384252201	-68.701146281546	5.81927782793714	-0.433533286311409	1.08192787055763	-0.00343840187084516	0.00263823704203361
0.34	19.7080315074039	-8.01670763870801	920.412138596766	-68.6333641231942	5.89925873469628	-0.419824287821809	1.10142891660843	-0.0033560444914719	0.00252345708241392
0.35	19.8135461647007	-7.98017997188567	920.867616229629	-68.5590988834343	5.9695200463585	-0.406000732513372	1.12112723161502	-0.00328468140496114	0.00239884998435243
0.36	19.9216629708516	-7.94609965652181	921.326543181849	-68.4743714402096	6.0271465515935	-0.392194116142349	1.1406365068189	-0.00322729678482866	0.00226218283451164
0.37	20.0295255306512	-7.91703955438891	921.762157191162	-68.3751246645283	6.06964704620756	-0.378462106519955	1.15963608094298	-0.00318638883212261	0.00211119913852531
0.38	20.1342441369736	-7.89510872938356	922.148777719573	-68.2574708101424	6.09510398746095	-0.36479743296793	1.17787316129035	-0.0031638209148199	0.00194376617619628
0.39	20.2330011569461	-7.88195039725089	922.463322280884	-68.1179362166704	6.10229648021459	-0.351140846700182	1.19516143302207	-0.00316070377391424	0.00175802141692806
0.4	20.3231560882421	-7.8787679428782	922.686672163042	-67.9536893087521	6.09078833932997	-0.337396818123879	1.2113768156628	-0.00317731611910968	0.00155251003336181
0.41	20.4023452435813	-7.88637089708828	922.804800269103	-67.7627389361436	6.06097506979992	-0.32345060301514	1.22645110236968	-0.00321306850633998	0.00132630625459826
0.42	20.4685711394086	-7.90523206778653	922.809589641859	-67.544091943773	6.014086174008	-0.309185363486472	1.24036415212412	-0.00326651274538461	0.0010791124010775
0.43	20.5202770914441	-7.93554721223836	922.699292129273	-67.2978613505362	5.95214204672954	-0.294498158196373	1.25313522188421	-0.00333539640562436	0.000811330839738902
0.44	20.5564032349009	-7.97728964957125	922.47860102943	-67.0253194739646	5.87786764096644	-0.279313802939494	1.2648139432706	-0.00341675941815712	0.000524105671024538
0.45	20.5764211480494	-8.03025390083376	922.158337581036	-66.7288935605845	5.79456786274916	-0.263595829701382	1.27547137680716	-0.00350706743021881	0.000219332584470891
0.46	20.5803454028205	-8.09408460363999	921.754776866973	-66.4121047530425	5.7059720737813	-0.247354021451643	1.28519151814708	-0.00360237454858595	-0.000100363117300731
0.47	20.5687216193629	-8.16828933711954	921.288662143245	-66.079454333668	5.61605696973065	-0.230648254391252	1.29406358090047	-0.00369850649615141	-0.000431678916997288
0.48	20.5425918786182	-8.25223635572021	920.783976068598	-65.7362639387893	5.52885832578653	-0.213588623957097	1.30217533237094	-0.0037912540793609	-0.000770715298547497
0.49	20.5034395620634	-8.34514032645016	920.266551418264	-65.3884786807818	5.44828258155113	-0.196332052983213	1.30960770464907	-0.00387656629875531	-0.00111308021916233
0.5	20.4531167598776	-8.44604079043362	919.762611709698	-65.042443731039	5.37792895700295	-0.179075770182837	1.31643083980212	-0.00395073249382275	-0.00145401355436267
0.51	20.3937582483331	-8.55377908027013	919.297333372864	-64.704665842463	5.32093179386145	-0.162048197621354	1.32270165400492	-0.0040105436338824	-0.00178852671936948
0.52	20.327686631378	-8.66697974289223	918.893515836951	-64.3815715126367	5.27983120176479	-0.145497893050713	1.32846292480338	-0.00405342424231228	-0.00211155233039
0.53	20.2573135380164	-8.78404214004629	918.57043487104	-64.0792730467326	5.25647800153535	-0.129681255570957	1.33374382416929	-0.00407752840690869	-0.00241809857128196
0.54	20.185041756992	-8.9031468914322	918.342938837195	-63.8033527545023	5.25197657540815	-0.114849722310098	1.33856174414177	-0.00408179575363138	-0.0027034028551351
0.55	20.1131728873341	-9.02228031411163	918.220828639036	-63.5586740245485	5.26666674855482	-0.101237163148419	1.34292519724448	-0.00406596595295432	-0.00296307941236537
0.56	20.0438245227838	-9.1392781641913	918.208541701839	-63.3492261994484	5.30014342747957	-0.0890481252845221	1.34683752415498	-0.00403055305390006	-0.00319325560632329
0.57	19.9788602228097	-9.25188799509469	918.305139948937	-63.1780081732833	5.35131058014844	-0.0784474963196848	1.35030110781056	-0.00397678345419539	-0.00339069209044081
0.58	19.9198346180824	-9.35784750700592	918.504582965839	-63.0469535895881	5.41846439856953	-0.0695520509520463	1.3533217761903	-0.00390650339134452	-0.00355288239235009
0.59	19.8679550253542	-9.45497455554173	918.79625163615	-62.9568985564556	5.49939923247977	-0.0624242298893924	1.35591307458511	-0.0038220633086911	-0.0036781281459651
0.6	19.8240599769603	-9.54126316489698	919.165675410822	-62.9075910141992	5.59152916964571	-0.0570683773478787	1.35810010141712	-0.00372618722049502	-0.00376558698464112
0.61	19.788614168714	-9.61497905967782	919.595408548708	-62.897739355891	5.69201796159373	-0.0534295417766451	1.35992262911335	-0.00362183526573569	-0.00381529103592489
0.62	19.7617185507415	-9.67474794916999	920.065997241237	-62.9250966458839	5.79791030585958	-0.051394828387296	1.36143727290784	-0.00351206707834426	-0.00382813498916551
0.63	19.7431336679698	-9.71963007572885	920.556980225222	-62.9865758098362	5.90625821301865	-0.0507971856495761	1.36271852516966	-0.00339991255122219	-0.00380583380367003
0.64	19.7323139230742	-9.74917533540179	921.047869700621	-63.0783904616206	6.01423719970346	-0.0514214140540208	1.36385853939682	-0.00328825520814476	-0.00375085124827522
0.65	19.7284501905158	-9.76345451340042	921.519066292986	-63.1962155521716	6.11924823650952	-0.0530121061986986	1.3649656233773	-0.00317973190422789	-0.00366630157595074
0.66	19.7305181463572	-9.76306373901642	921.952670512635	-63.3353617309643	6.21900262248744	-0.0552831640585791	1.36616148061536	-0.00307665111680605	-0.0035558277042179
0.67	19.7373297729751	-9.74910102510632	922.333162741598	-63.4909571634379	6.31158814945844	-0.0579284931028934	1.36757731711806	-0.00298093079290018	-0.00342346025919273
0.68	19.7475857199804	-9.72311558131138	922.647933393828	-63.6581305184024	6.39551597591205	-0.0606334442952436	1.36934900068427	-0.00289405566981531	-0.00327346271154826
0.69	19.7599265173138	-9.68703234769312	922.887653875108	-63.8321889143222	6.46974849648664	-0.063086564061013	1.37161151601205	-0.00281705321770482	-0.00311016854667627
0.7	19.7729810074481	-9.64305577054105	923.046486851224	-64.0087847946082	6.53370914427019	-0.0649912186097241	1.37449299668081	-0.0027504868613785	-0.00293781692533379
0.71	19.7854107569682	-9.59355813945174	923.122140867073	-64.1840660063209	6.58727550351967	-0.0660766814606302	1.37810863189014	-0.00269446488515941	-0.00276039356054834
0.72	19.7959495940849	-9.540958753428	923.11577949529	-64.3548038100332	6.63075736796445	-0.0661083097874041	1.3825547417062	-0.00264866335025628	-0.00258148352071116
0.73	19.8034377740944	-9.48760073833098	923.03179904165	-64.518494179345	6.66486149940719	-0.0648964836643173	1.38790329183766	-0.00261236139047989	-0.00240414233679266
0.74	19.806850581653	-9.43563247809804	922.877491613712	-64.6734285791307	6.69064487583015	-0.0623040392070081	1.39419708197611	-0.00258448733151576	-0.00223079112927799
0.75	19.8053214249439	-9.38690035039512	922.662612334363	-64.8187314506475	6.70945822016893	-0.0582519882845066	1.4014457961214	-0.00256367414276498	-0.00206314048581539
0.76	19.7981596554924	-9.34285879726372	922.398870908071	-64.9543628676196	6.72288161472586	-0.0527233801814889	1.40962305512718	-0.00254832273549074	-0.00190214654746307
0.77	19.7848634563052	-9.30450275474812	922.099368822184	-65.0810862249985	6.73265406230152	-0.0457652208684979	1.41866456654124	-0.00253667154198717	-0.00174800125973804
0.78	19.76512818222	-9.27232617060382	921.778004296197	-65.2004023218209	6.74059896659078	-0.0374884206568101	1.42846742899804	-0.00252687064325143	-0.0016001570975343
0.79	19.7388505160475	-9.24630882833068	921.448867684153	-65.3144527212325	6.74854766611951	-0.0280657892683541	1.43889062036357	-0.00251705847215274	-0.00145738488058861
0.8	19.7061287325415	-9.22593205313048	921.125650299243	-65.4258967199934	6.75826334645343	-0.0177281382604307	1.44975668068212	-0.0025054388370402	-0.00131786166709424
0.81	19.6672592536274	-9.21022219401555	920.821089404621	-65.5377675373426	6.77136784042179	-0.00675858508337857	1.46085459054853	-0.00249035573118811	-0.00117928425404489
0.82	19.6227295504324	-9.19781915414326	920.546471206038	-65.6533143451939	6.78927396413065	0.00451481731519898	1.47194383861723	-0.00247036316732844	-0.00103900261850554
0.83	19.5732073210017	-9.18706577630026	920.311211905769	-65.7758374302175	6.81312608468281	0.0157279738654861	1.48275966295803	-0.00244428715514288	-0.000894166777535538
0.84	19.5195257691951	-9.1761126739632	920.12253410204	-65.9085240498784	6.8437515354642	0.026490983864391	1.49301943385657	-0.00241127696837843	-0.000741880071259859
0.85	19.4626647518346	-9.16303220967128	919.985252000389	-66.0542923958259	6.88162525819196	0.0363995088864977	1.50243011517491	-0.00237084306063903	-0.000579351797681704
0.86	19.4037275669053	-9.14593482208979	919.901674110422	-66.2156505189777	6.92684964324193	0.0450470234591491	1.51069669429389	-0.00232287940152111	-0.000404042432475313
0.87	19.3439132396863	-9.12308082782642	919.871626517671	-66.3945761427872	6.97915096321025	0.0520376574594661	1.51753140681493	-0.00226766861433721	-0.000213795308406137
0.88	19.2844843330054	-9.09298118300126	919.892593737426	-66.5924220633061	7.0378930686695	0.0569992928883562	1.52266350525802	-0.00220586907913829	-6.94954292919381e-06
0.89	19.2267305601483	-9.05448146275725	919.959967950052	-66.8098503956093	7.10210817547371	0.0595965308318012	1.52584923846167	-0.00213848407664462	0.000217569887776534
0.9	19.1719288019483	-9.00682445551371	920.06739150822	-67.0467973761953	7.17054366937376	0.0595431020808262	1.52688163095717	-0.0020668140308358	0.000460187805364443
0.91	19.1213005007317	-8.94968819776722	920.207172425655	-67.302468872624	7.24172294565905	0.0566132632606561	1.52559959172311	-0.00199239389084769	0.000720641831280247
0.92	19.0759677916139	-8.88319789802525	920.370748500369	-67.5753652812247	7.31401745361441	0.0506517060377529	1.52189585172749	-0.00191691860326383	0.000997973117762702
0.93	19.0369100978495	-8.8079119033573	920.549173117663	-67.8633331941929	7.3857263919881	0.0415815161550533	1.51572323949411	-0.00184216039379591	0.00129054404740402
0.94	19.0049232196968	-8.72478353034484	920.733594842391	-68.1636401533331	7.45515996079594	0.0294097563869712	1.50709885919934	-0.00176988214213233	0.00159608112574884
0.95	18.980583144106	-8.63510209705377	920.915703747354	-68.473068022144	7.52072176415284	0.0142303154497602	1.49610583635978	-0.00170175144942719	0.00191174043370672
0.96	18.9642168587873	-8.54041774821519	921.088120004842	-68.7880200214947	7.58098591084595	-0.0037762369559402	1.48289243555945	-0.00163926003661255	0.00223419232208671
0.97	18.9558823412901	-8.44245557580012	921.244704430468	-69.1046362858662	7.6347645883326	-0.0243459239833745	1.46766852066567	-0.00158365286527554	0.00255972152490343
0.98	18.9553595971117	-8.34302504190845	921.380776132953	-69.4189128869072	7.68116238628352	-0.0471377544475571	1.45069950413472	-0.0015358708527133	0.00288433853866116
0.99	18.9621541419801	-8.2439307819992	921.493228811975	-69.7268196030456	7.71961439234567	-0.0717430687742224	1.43229809989019	-0.00149651028859959	0.00320389795295814
1	18.9755136812855	-8.14689050893048	921.580544109644	-70.0244122407168	7.74990603163135	-0.0976975162644673	1.41281433610979	-0.0014658010978121	0.00351421941059918
1.01	18.9944579704996	-8.0534649893381	921.642707272436	-70.3079359800541	7.77217371303179	-0.124495197482204	1.39262438550138	-0.00144360499037897	0.0038112070075025
1.02	19.0178209960907	-7.96500398935396	921.68103673072	-70.57391696882	7.78688650858108	-0.151604384224418	1.3721188218488	-0.00142943336247522	0.00409096319730684
1.03	19.0443037604878	-7.88261077472121	921.697944597881	-70.8192401680221	7.79481024875425	-0.178484141171144	1.35169090958672	-0.00142248363489946	0.00434989362583953
1.04	19.0725351573353	-7.80712630380765	921.696649145444	-71.0412122117654	7.79695648746742	-0.204601125480375	1.33172548112539	-0.00142169161236515	0.00458479977018909
1.05	19.1011377553769	-7.73913277971331	921.680862737801	-71.2376087417921	7.79451970079404	-0.229445837657122	1.31258886334179	-0.00142579649095979	0.00479295678067526
1.06	19.1287948353136	-7.67897483590442	921.654479345188	-71.4067062838232	7.78880676817891	-0.25254763969853	1.29462019280574	-0.00143341439835566	0.00497217450700789
1.07	19.1543147953165	-7.62679541433768	921.621284566167	-71.5472992297771	7.78116319448559	-0.273487941731785	1.2781243236143	-0.00144311587647852	0.00512084031811137
1.08	19.1766890898572	-7.5825824344184	921.584708189593	-71.6587028701343	7.77290063510884	-0.291911079490332	1.26336639679162	-0.00145350254778813	0.00523794298357291
1.09	19.1951402017086	-7.54622170189107	921.547634950972	-71.740743687336	7.76523007638152	-0.307532552367226	1.25056801887688	-0.00146327836185106	0.00532307755687704
1.1	19.2091567508394	-7.51755120076341	921.512283644444	-71.7937382857249	7.75920451489888	-0.320144453583623	1.23990489933498	-0.0014713112922971	0.00537643186745398
1.11	19.2185136731304	-7.49641195550745	921.480158583619	-71.8184624137284	7.75567421048385	-0.329618087170089	1.23150572792898	-0.00147668211395981	0.00539875586821409
1.12	19.2232763906071	-7.48269102873974	921.452071063031	-71.816111550823	7.7552566172213	-0.335903917906054	1.225452036737	-0.0014787178800231	0.00539131567340026
1.13	19.2237889611736	-7.47635289519374	921.428222476534	-71.7882545073662	7.75832200049098	-0.339029128211745	1.22177878647335	-0.00147700886261895	0.00535583463288943
1.14	19.2206472497235	-7.4774563543913	921.408335597681	-71.7367814405602	7.76499461088492	-0.339093150701568	1.22047544009004	-0.0014714089262923	0.0052944241989643
1.15	19.2146591157753	-7.48615524943943	921.391816656995	-71.6638476425299	7.77516819747142	-0.33626160049956	1.22148733338719	-0.00146202047439263	0.00520950762873218
1.16	19.2067943883435	-7.50268247872818	921.377928601047	-71.5718144202703	7.78853368829137	-0.330759045339885	1.2247172163932	-0.00144916614877554	0.00510373971401994
1.17	19.1981279387225	-7.5273180490692	921.36595549913	-71.4631883701461	7.80461611921243	-0.322861026103621	1.23002691358598	-0.00143335028992439	0.00497992573245985
