Time [s]	GRFml [N]	GRFap [N]	GRFv [N]	Mml [N.m]	Map [N.m]	Mv [N.m]	Mfree [N.m]	COPml [m]	COPap [m]
0.01	-4.7693669951095	4.11153092962807	802.961731106891	25.0110133486468	-0.259992833804496	0.968279152870272	-1.1155639312103	-0.00450761266273059	-0.00419637485901336
0.02	-4.57984517078921	4.01391903676107	803.742682178623	25.1031938920648	-0.35258575960833	1.00668152558511	-1.14793632595452	-0.00442506559912936	-0.00430626574005072
0.03	-4.38893500052937	3.90940150127699	804.122767159389	25.2079612208917	-0.470976690173883	1.04519786546426	-1.18039785693889	-0.00431072266329979	-0.00444931485022571
0.04	-4.19616099856642	3.79183192225165	803.784449099436	25.3338548136112	-0.634525991945772	1.08351986294288	-1.21263992711127	-0.00414112931623067	-0.00465050566562375
0.05	-3.99929222273871	3.65327143552034	802.53243146577	25.4845245853735	-0.854609648329812	1.12114194649391	-1.24410111481829	-0.00390354632951773	-0.00492491101739806
0.06	-3.7942757734804	3.48474771202064	800.318721219094	25.6583732219834	-1.13331179288191	1.15748093228151	-1.27408427486101	-0.00359738699361445	-0.00527602450492826
0.07	-3.57627516641476	3.27851137114568	797.239999552003	25.8495255284512	-1.46385145526723	1.19205917281769	-1.30197080750425	-0.00323302731065567	-0.00569615870130818
0.08	-3.34146186497087	3.03091131215825	793.510477548238	26.0496374618706	-1.83238164280445	1.22466375694456	-1.32743394972159	-0.00282868773128475	-0.00616849122242857
0.09	-3.08889902724916	2.74471351816851	789.418652438767	26.2498682388792	-2.22057171887866	1.25540153854831	-1.35055064071752	-0.0024064974144492	-0.00667008363409355
0.1	-2.82181837407296	2.4299120991214	785.278928647101	26.4424258113003	-2.60836473676231	1.28461360989084	-1.37175417409452	-0.00198883620779455	-0.00717518120558286
0.11	-2.54781549132281	2.10267427709516	781.388409571501	26.6213775363276	-2.97643593460812	1.31267158904773	-1.39163558867839	-0.00159568704644242	-0.00765825596892927
0.12	-2.27785596370333	1.78273566322145	777.99588799934	26.7827490124848	-3.3080829134091	1.3397279760222	-1.41066304857112	-0.00124322009104483	-0.00809648147089198
0.13	-2.02434053754066	1.49004275223616	775.285546321921	26.9241747968128	-3.5904720732293	1.36551562025005	-1.42892224090851	-0.000943388949542601	-0.00847153357463187
0.14	-1.7987098910178	1.24157599372534	773.373704179189	27.0444376272945	-3.81529659556808	1.38927889245106	-1.44597540884588	-0.000704097089241795	-0.0087707412647976
0.15	-1.60914375084665	1.04909361761844	772.314300137914	27.1431459548016	-3.97895250572555	1.40987549030134	-1.46089501191162	-0.000529516619209414	-0.00898765345687408
0.16	-1.45885496947245	0.918151799197119	772.10809925775	27.2206283031412	-4.0823280530952	1.4260282710499	-1.47246653789454	-0.000420330387337686	-0.00912206919660496
0.17	-1.34535050885711	0.848355131593351	772.711593332412	27.2779638349091	-4.13026305348705	1.43665293997249	-1.4794973177556	-0.000373890395428567	-0.00917954414486916
0.18	-1.26086700463687	0.834501665158103	774.043487482626	27.3169924966621	-4.13070493666017	1.44115990705958	-1.48113568008027	-0.000384429496891436	-0.00917037625632511
0.19	-1.19399873041093	0.868157404574251	775.988744483224	27.3401746615858	-4.09359139527395	1.4396369426611	-1.47710748334427	-0.00044348196813937	-0.00910811015241031
0.2	-1.13231519705648	0.939210351025823	778.401749429337	27.3502688245452	-4.02953344190667	1.43285877467599	-1.46780999378805	-0.000540583353997981	-0.00900768333527402
0.21	-1.06552254243527	1.03707314908205	781.110892372409	27.3499084635837	-3.94844726772302	1.42212427227468	-1.45425001610286	-0.000664194873344792	-0.00888344861836154
0.22	-0.988501446456271	1.15138614312097	783.926647546527	27.3412292097023	-3.85836080043782	1.40897165958176	-1.43785563477998	-0.000802700846526672	-0.00874740849102973
0.23	-0.903433469479431	1.27227806306114	786.654191905057	27.3256945270751	-3.764660121957	1.39485252644481	-1.42021668577352	-0.000945300044129072	-0.00860803850575126
0.24	-0.820292034794476	1.39041474885385	789.110074474223	27.3041982127023	-3.67000118555687	1.38085076500146	-1.40281575801884	-0.00108265383643735	-0.00847001146004084
0.25	-0.755269247320261	1.49714192512801	791.14086116588	27.2774207662621	-3.57497552694321	1.36751591026597	-1.38680410270139	-0.00120723317698068	-0.00833494486059466
0.26	-0.727204395325951	1.58495866874037	792.640502826896	27.246329005864	-3.47940874478487	1.35484925572814	-1.37286229269436	-0.00131338113803436	-0.00820301545851881
0.27	-0.752657922430155	1.64835156713241	793.562783440187	27.2126657414544	-3.38395439907862	1.34244397115281	-1.36116847186966	-0.00139715177034472	-0.00807500338928013
0.28	-0.840761650326893	1.68475501078417	793.925774517788	27.1792843360683	-3.29151050581244	1.32974456495312	-1.3514786744675	-0.00145600000469182	-0.00795415435045022
0.29	-0.989197209485046	1.695208042298	793.806657494155	27.1502251033375	-3.20799835827596	1.31636228393219	-1.34330332212758	-0.00148839977842308	-0.00784726473984787
0.3	-1.18250134049647	1.68426951814321	793.327235178829	27.1304844205574	-3.14221632249502	1.30236639812978	-1.3361423065747	-0.00149347477762207	-0.00776461506400988
0.31	-1.3933763064514	1.65897151316879	792.632445833886	27.125480792119	-3.10476030287452	1.28847111785726	-1.32972238482187	-0.00147073566984057	-0.00771873076640145
0.32	-1.58692873784445	1.62696471301454	791.865729380253	27.1402761678999	-3.10628710209147	1.27605696960372	-1.3241725656691	-0.0014200091625941	-0.0077223088322293
0.33	-1.7269888098753	1.59437708092105	791.145818336482	27.1786702252736	-3.15558307852619	1.26700294538319	-1.3200829537415	-0.00134159779919474	-0.00778588222519783
0.34	-1.7831018021805	1.56408972910965	790.549288720515	27.2423429064419	-3.25792668202309	1.26335478748028	-1.31842174894147	-0.00123662773820776	-0.0079158258241348
0.35	-1.73659441094274	1.53502886954558	790.102076055197	27.3302516901071	-3.41410540858383	1.26690243156932	-1.32032657291085	-0.00110745754129749	-0.00811314615338715
0.36	-1.58433799455872	1.50271308603865	789.781380133691	27.4384647517977	-3.62023187887548	1.27877029588927	-1.32682554078721	-0.000957980652086632	-0.00837322828554005
0.37	-1.33937938575285	1.4608395768362	789.527302280423	27.5605172011085	-3.86829222838093	1.29912565791368	-1.3385650379529	-0.000793686348107947	-0.00868645374484062
0.38	-1.02832721372415	1.40334600982567	789.261583783592	27.6882381482027	-4.14722602176699	1.32708010039991	-1.35561621137088	-0.000621435402921477	-0.00903944462636447
0.39	-0.686087583635528	1.32629057754651	788.909341743831	27.8128649552254	-4.4443035980652	1.36080593543801	-1.37740332570917	-0.000449007049446726	-0.0094166582955465
0.4	-0.349085987365488	1.22906419572571	788.419061438117	27.9261942230198	-4.74660445084361	1.39783129881989	-1.40275712267969	-0.000284527108671995	-0.00980211318448637
0.41	-0.0483960795039001	1.11476952740553	787.776496195409	28.021543607347	-5.04245186809642	1.4354334324967	-1.43006164047026	-0.000135869637774122	-0.0101810940822374
0.42	0.195816243403419	0.989899198490311	787.009521846474	28.0943950462514	-5.32267785035438	1.47103269239375	-1.4574460027981	-1.00612578075587e-05	-0.010541704005585
0.43	0.3774176790753	0.86358664983418	786.183102726576	28.1427042406245	-5.58157038635648	1.50250295473376	-1.48297696222774	8.73347210291753e-05	-0.0108760896155085
0.44	0.504400513875023	0.746657494197014	785.385830944722	28.1669358420486	-5.81732690070047	1.52835032087692	-1.50482789222997	0.000152868164685849	-0.0111811145051275
0.45	0.595986473620472	0.650553663411639	784.711392290639	28.1698900632338	-6.0318564278476	1.54775769378464	-1.52142413265387	0.000185820718029861	-0.011458261453248
0.46	0.677432410078323	0.586068207192937	784.23929350762	28.1563386102749	-6.22987455450546	1.56053209029785	-1.53158071353981	0.00018862025973021	-0.011712660840807
0.47	0.773741806309963	0.56182531677252	784.019042455101	28.1324331669394	-6.4174094649344	1.56701111729847	-1.53464775410962	0.000166812861650434	-0.0119513586134908
0.48	0.903733902996411	0.58259595880558	784.060838306026	28.1048410078857	-6.60002631790381	1.56797854236029	-1.53065999364725	0.000128392780357145	-0.0121811806419143
0.49	1.07582363101655	0.647782498472455	784.334113865508	28.0796280328049	-6.7811999624042	1.56461017588787	-1.52045792606664	8.24522475169065e-05	-0.0124067171763703
0.5	1.28642507676814	0.750596516965895	784.773499320763	28.061034800725	-6.96125957565667	1.55843412148935	-1.50572408043799	3.73538390011641e-05	-0.0126289579008984
0.51	1.521215598122	0.878453747194015	785.29039947557	28.0504201450951	-7.13718040741101	1.55126258970123	-1.48887538348958	-1.14324380739994e-06	-0.0128449346007637
0.52	1.75877517879026	1.01485215753717	785.787646739187	28.0457063639992	-7.303253405964	1.54505115409356	-1.47278024051792	-3.12610949423364e-05	-0.0130484295748777
0.53	1.97555724737263	1.14253303870198	786.174616237232	28.0415953635938	-7.45240869809865	1.54166903251918	-1.4603221689047	-5.56210575352045e-05	-0.0132314905293348
0.54	2.15091058220906	1.24721042207404	786.380576382477	28.0306328849614	-7.57779305340722	1.54260910768989	-1.45389146583094	-8.04997608194746e-05	-0.0133862704223413
0.55	2.27100193197883	1.32080626629197	786.364628142812	28.0049351956854	-7.67416192364177	1.54870688337404	-1.45492649131434	-0.000114082977470953	-0.0135066580463422
0.56	2.33090576871364	1.36312927486812	786.121147723354	27.9581570191831	-7.73874785570125	1.55995175605442	-1.46362599392226	-0.000164203956858788	-0.0135892895066221
0.57	2.33466804813826	1.38134497942122	785.680127628334	27.8871666547858	-7.77146191761714	1.57545230209142	-1.47890913917903	-0.000236219918736458	-0.0136337731272509
0.58	2.29363995511763	1.3872988043791	785.102289468789	27.7929543786357	-7.77449604178536	1.59356806626695	-1.49862619590866	-0.000331626721303713	-0.0136422219985126
0.59	2.22369337990968	1.39352566165658	784.469440727277	27.6805158643663	-7.75154650311917	1.61216615639628	-1.5199496312636	-0.000447764687793062	-0.0136183725069086
0.6	2.14203428696422	1.40931092549728	783.871301399681	27.5577475744408	-7.70692753720436	1.62892715722837	-1.53983234692201	-0.000578626309204244	-0.0135666170912071
0.61	2.06425902158169	1.43822719781188	783.390804161555	27.4336651333444	-7.6447901246137	1.64162626532534	-1.55542267996348	-0.000716461547331626	-0.0134911982718787
0.62	2.00212409686019	1.47809319854188	783.090410451888	27.316423572661	-7.56854569274199	1.64834827637155	-1.56436869114796	-0.000853685547795191	-0.0133956554472208
0.63	1.96228956497644	1.52342277187937	783.00202222146	27.2116396659283	-7.48047948463126	1.64763871893946	-1.56500291039946	-0.00098456675967129	-0.0132824683744189
0.64	1.94608951031623	1.5694563203593	783.122492648827	27.121403035576	-7.38147782702687	1.63862257342045	-1.55644335637519	-0.00110629115190297	-0.0131527724174259
0.65	1.95019619354921	1.61615956985344	783.415653898162	27.0441642647726	-7.27081099880185	1.62112078286463	-1.53865768264374	-0.00121920174829493	-0.0130060588115036
0.66	1.96788908395895	1.6704297312258	783.820457104757	26.9754678975248	-7.14599147321531	1.59576574976536	-1.5125146566977	-0.00132623410346178	-0.0128398918058312
0.67	1.99054232419053	1.74527316839951	784.263575323814	26.9093091746898	-7.00281535805095	1.56407887919632	-1.47980823165522	-0.00143175400276785	-0.0126498038820201
0.68	2.00894045531073	1.85577596306236	784.673912155927	26.8397686202592	-6.83573253541027	1.52844918710365	-1.44320782496228	-0.00154012297292316	-0.0124295893263003
0.69	2.01414474182165	2.01293387399431	784.996051212929	26.7625334131097	-6.63863861279272	1.49195699722129	-1.40608128996256	-0.00165435775803691	-0.0121721526568001
0.7	1.99784106629503	2.21739520433369	785.199855507194	26.6759531157714	-6.40604366243604	1.45802103107557	-1.37215862307587	-0.00177520958016686	-0.0118708872267669
0.71	1.95233447744435	2.45550495709246	785.284187717469	26.5813947575271	-6.13440082133694	1.42989850993161	-1.34504710778562	-0.00190087410749107	-0.011521328347408
0.72	1.8705173157842	2.69952724864345	785.273984952337	26.4828392795179	-5.82325122998415	1.41011885623067	-1.32765869765939	-0.00202737390085905	-0.011122647683414
0.73	1.74614820089086	2.91266371414693	785.211472482888	26.3858597596741	-5.47582946120379	1.39996662384046	-1.32165344043211	-0.00214947073348182	-0.0106785226170031
0.74	1.57462038343569	3.05786483503037	785.14379579879	26.2962881909836	-5.09889836920763	1.39913814789446	-1.3270258599839	-0.00226181844550732	-0.010197058749424
0.75	1.3541295100154	3.1080061651533	785.11036869211	26.2189583758834	-4.70180564954635	1.4056747989665	-1.34195470699743	-0.00236000776571166	-0.00968972047278699
0.76	1.08688747384774	3.05430383505751	785.133404155934	26.1568755923198	-4.29499158588585	1.41622527788091	-1.36299571342684	-0.00244120782934731	-0.00916952824767486
0.77	0.779890622290749	2.91017370130982	785.214248551815	26.111015526629	-3.88833636530781	1.42661809033071	-1.38562550790343	-0.00250426004304394	-0.00864899469102565
0.78	0.444807714439865	2.70903685812548	785.336437596644	26.08074338183	-3.48975889438123	1.43264773747721	-1.40505663783588	-0.00254927503013347	-0.00813831915963259
0.79	0.0967943460659711	2.49642996912441	785.474324049931	26.0646425753774	-3.10436917391987	1.43091371055407	-1.4171617950939	-0.00257695043369499	-0.00764423918676099
0.8	-0.2476226908917	2.31857294348346	785.604367180705	26.0614217709324	-2.73428844057381	1.419520308212	-1.41929645441131	-0.00258790536796594	-0.00716971133647976
0.81	-0.573142802930456	2.21067486205839	785.715341556359	26.0705688832328	-2.37906406197479	1.3984624009077	-1.41081448715015	-0.00258229194043036	-0.00671435939929693
0.82	-0.86816032126893	2.18834748105116	785.814132266981	26.0925351671001	-2.03648346915367	1.36959028750918	-1.39313762035228	-0.00255981621950507	-0.00627546477502516
0.83	-1.12652313786608	2.2445257836325	785.925305506847	26.1284145618708	-1.70355680166466	1.33615209878586	-1.36935321669549	-0.00252013431599463	-0.00584921539193595
0.84	-1.34819076503266	2.35260174973588	786.084733931373	26.1792653500315	-1.37747260209187	1.30202602140852	-1.34344321225013	-0.00246344699911394	-0.00543195733473001
0.85	-1.538670769844	2.47462362736049	786.329461631771	26.2453403895174	-1.05639289638906	1.27084133713491	-1.31934895619017	-0.0023910461999761	-0.00502126019438076
0.86	-1.70737049638037	2.57199066174899	786.687048279591	26.3255131137715	-0.740005792951944	1.24521756695542	-1.30011798074571	-0.00230558599647135	-0.00461666923812409
0.87	-1.8651936697491	2.61550339336461	787.167522300709	26.4171106625848	-0.42978196420156	1.2263138717894	-1.2873462678971	-0.00221094377226361	-0.00422005829848504
0.88	-2.02183231453379	2.59203141570214	787.759943918706	26.5162271960918	-0.128898785708948	1.21378837520904	-1.28103636915981	-0.0021116661444468	-0.00383553006387755
0.89	-2.18326966558411	2.50623541002299	788.433938137596	26.6184401951363	0.158174016802296	1.20614938510191	-1.27987046540374	-0.00201211559486836	-0.00346886030534505
0.9	-2.35002225877651	2.37730777490699	789.14503858942	26.7197361822476	0.426377810829219	1.20137394507535	-1.28178661537679	-0.00191551598507034	-0.0031265613794339
0.91	-2.51658249999458	2.23209354393222	789.841790977479	26.8173958373796	0.67093762840701	1.19760360711987	-1.28467637630742	-0.00182312722999822	-0.00281473251057585
0.92	-2.67233885075051	2.09683275433548	790.472512627492	26.9105958618985	0.888227474794702	1.1937178765489	-1.28700681931865	-0.0017337664942817	-0.00253793319631007
0.93	-2.80394012101107	1.9899347999917	790.990280666528	27.000546648179	1.07643937576206	1.18963081966943	-1.28820708776124	-0.0016438436524292	-0.00229832614959219
0.94	-2.89868440392861	1.91768340948295	791.355769006826	27.0900878973674	1.23591010523385	1.18624052414297	-1.28873418307911	-0.00154799386388005	-0.00209527539983684
0.95	-2.94816258430031	1.87378840885007	791.538521069648	27.1827948342779	1.36904518468069	1.18506070466784	-1.28982327662968	-0.00144026759352045	-0.00192547188482389
0.96	-2.95120387914984	1.84256069042609	791.517753883753	27.2817850428146	1.47987839831205	1.18765223600004	-1.29301163628153	-0.00131568687882766	-0.00178353150177513
0.97	-2.91525391039642	1.80451227456686	791.28367956296	27.3885275618744	1.5733851647862	1.19502623597172	-1.29958177653785	-0.00117182952879669	-0.00166290871976055
0.98	-2.85567595825638	1.74262102318282	790.839714129983	27.5020010458156	1.65470888198154	1.20719475625872	-1.31008472757401	-0.00101001650190979	-0.00155691781535072
0.99	-2.79301164442755	1.64746436464317	790.205143159519	27.6184936488055	1.72845560299619	1.22299899175948	-1.32407483846259	-0.000835708441932037	-0.00145965935293552
1	-2.74880066580951	1.51988367549572	789.417205837627	27.7321791449886	1.79817201987388	1.24026224292276	-1.34012241938013	-0.000657889088909624	-0.00136670141119055
1.01	-2.74095897054264	1.37062855479909	788.531402588002	27.8363773746571	1.86606017564392	1.25622153138304	-1.35609002970835	-0.000487493329577315	-0.00127544398000606
1.02	-2.77982498737151	1.21730976672288	787.619160834844	27.9251830778781	1.93291758273892	1.2681170321278	-1.36958745774898	-0.000335238351461653	-0.00118517861125417
1.03	-2.8657788628224	1.07971272141493	786.762629342244	27.9950067804142	1.99824086322552	1.2737842389133	-1.37848022718533	-0.000209426174793359	-0.00109692203398459
1.04	-2.98890043685947	0.974897509904351	786.047033762152	28.0455727542252	2.06040863562744	1.27210639490276	-1.38132545017217	-0.000114317278852916	-0.00101313405030534
1.05	-3.13061015178061	0.913451186791781	785.551485116853	28.080070295432	2.11687165004687	1.26323382198192	-1.37764132277133	-4.95061397259855e-05	-0.000937417678101349
1.06	-3.26679936319962	0.897806809548804	785.339318348019	28.1044076649137	2.16431958343136	1.24854159364347	-1.36796701692156	-1.04169937540366e-05	-0.000874249355464429
1.07	-3.37172072302567	0.922858526326559	785.449044369589	28.1257872780894	2.198845883037	1.23035649751916	-1.35372100451759	1.03050116782022e-05	-0.000828721925711762
1.08	-3.42190330540669	0.97840223158796	785.886988736154	28.1510159815137	2.21616898390706	1.21152529455282	-1.33690584880448	2.09834117669283e-05	-0.000806235259881771
1.09	-3.39951586958688	1.05243024134387	786.622752689737	28.1850240207749	2.21196929914559	1.194915901408	-1.3197312567123	2.92328859797797e-05	-0.000812065293752273
1.1	-3.2948089808702	1.13414914406542	787.588693024757	28.2299776515713	2.18236184042097	1.18294514313356	-1.30423495252156	4.08530790458883e-05	-0.000850788440259875
1.11	-3.10742353394884	1.21580534376761	788.684460362051	28.2851700230269	2.12445937213351	1.1772163730808	-1.29197495329974	5.94847327701764e-05	-0.000925616149065056
1.12	-2.84643320508794	1.29290805659271	789.787040396636	28.347633618222	2.03691960627626	1.17833022813232	-1.28384923260865	8.69374917649157e-05	-0.00103776781006482
1.13	-2.52904604577357	1.36305721366038	790.765658003097	28.4132142063568	1.92034133290231	1.18590191461853	-1.28007142270336	0.000123886716911437	-0.00118604292284041
1.14	-2.17801446513378	1.42409626786436	791.49955636058	28.477742429211	1.77739376558025	1.19877868097722	-1.28029703839668	0.000170563272272162	-0.00136672689019712
1.15	-1.81804165636932	1.47253043618604	791.895520992845	28.5379600574339	1.61262425837684	1.21540568530365	-1.28385912860674	0.00022713754525816	-0.00157388772117401
1.16	-1.47178009865165	1.50299468982304	791.901604767352	28.591985674857	1.43196698376007	1.23424764919199	-1.29004344585726	0.000293681043639138	-0.0018000251692174
1.17	-1.15625830267277	1.50908396386151	791.514142347653	28.6392850971825	1.24203880558255	1.25415189167378	-1.2983203328164	0.000369792599276719	-0.00203695758779204
1.18	-0.880587413927144	1.48526511294084	790.776736159202	28.6802757485828	1.04933845593461	1.27454804404918	-1.30846032879339	0.000454116132147853	-0.0022767996126461
