Time [s]	GRFml [N]	GRFap [N]	GRFv [N]	Mml [N.m]	Map [N.m]	Mv [N.m]	Mfree [N.m]	COPml [m]	COPap [m]
0.01	15.9495657605577	-1.85292850852327	678.402904859462	-66.2154049652689	-6.63079787060909	-2.6525362277399	-1.11382379431533	0.000898437673506744	-0.00130583730683902
0.02	16.3652191357592	-2.0380110331678	677.736435315808	-66.2331982313183	-6.69426431995561	-2.55504142168495	-0.975716931050357	0.000796365829029979	-0.00118110405818561
0.03	16.7719259680542	-2.21957314678891	677.081245577534	-66.2496258004655	-6.75839578290702	-2.45919180684384	-0.840097603315764	0.000693447871976885	-0.00106033427596088
0.04	17.1620031709221	-2.39414772424567	676.449117035664	-66.2640128159087	-6.82309742217602	-2.36663152495735	-0.709381442303108	0.000589988048667578	-0.000946264765944241
0.05	17.5284060502918	-2.55850529795856	675.851043198943	-66.2758421059996	-6.88826117400962	-2.2788762269489	-0.585794686446911	0.00048630094942596	-0.000841273278229596
0.06	17.8650187901988	-2.70977872988266	675.29681958177	-66.2847957285305	-6.95374254152901	-2.19725621020142	-0.471285881250092	0.000382740059227843	-0.000747256883787115
0.07	18.1668953407591	-2.84556776709426	674.79469790815	-66.2907812807688	-7.01934022053424	-2.12287009947856	-0.36745300906188	0.000279722847063785	-0.000665542481134665
0.08	18.4304380029119	-2.9640183287198	674.351120826618	-66.2939406789631	-7.08478041928929	-2.05655133407519	-0.275490010938149	0.000177749871734727	-0.000596835384315
0.09	18.653505165878	-3.06387315258783	673.970547709347	-66.2946407081208	-7.14970725180167	-1.99884880756394	-0.196155263451331	7.74160392668279e-05	-0.000541208772686666
0.1	18.8354442122851	-3.1444923349519	673.655376097836	-66.2934462524572	-7.21368004586451	-1.95002204300232	-0.129763021067959	-2.05871144589691e-05	-0.000498133469379422
0.11	18.9770502230146	-3.20584418024873	673.405957452581	-66.2910785894455	-7.27617786111543	-1.91005035330619	-0.0761972696230769	-0.000115478494054059	-0.000466544362162299
0.12	19.0804554733163	-3.2484685112369	673.220700510306	-66.2883623432028	-7.33661099688987	-1.87865460204083	-0.0349459933160463	-0.000206403545731907	-0.000444937059279574
0.13	19.1489585405393	-3.27341606720387	673.096251108606	-66.2861655560161	-7.39433881312522	-1.85532949880461	-0.00515265167554409	-0.000292458457173959	-0.000431486302396464
0.14	19.1868049260957	-3.28216876088566	673.027734048208	-66.285337795968	-7.44869280932252	-1.83938387365335	0.0143192219947145	-0.000372721032479475	-0.000424176388716571
0.15	19.1989332809917	-3.27654632475276	673.009040544287	-66.2866512560772	-7.4990036179484	-1.82998609646304	0.0248129072490115	-0.000446286457968655	-0.000420933454152089
0.16	19.1907025373088	-3.25860523587651	673.03314406085	-66.290749432972	-7.544630374392	-1.826211741582	0.0278016195265896	-0.000512305945682428	-0.000419749925894553
0.17	19.167615478872	-3.23053577564812	673.092427706171	-66.2981072483667	-7.58499082519472	-1.82709073099292	0.0248124212341469	-0.000570026135412342	-0.000418792675392035
0.18	19.1350535880543	-3.19456269129111	673.17900768928	-66.3090054671059	-7.61959052534528	-1.83165149224948	0.0173549846691514	-0.000618827138832939	-0.000416488237258067
0.19	19.098036490982	-3.1528542360718	673.285039343793	-66.3235210621138	-7.64804954678127	-1.83896010237343	0.00685856765630859	-0.000658257204888012	-0.000411580707016912
0.2	19.0610171404643	-3.10744344508531	673.402994648075	-66.341533880771	-7.67012526472002	-1.84815291137409	-0.0053802754987713	-0.000688062159276406	-0.000403160369624844
0.21	19.0277212025911	-3.06016443318243	673.525902759632	-66.3627486833994	-7.68572999555574	-1.85846170283043	-0.0182376216474839	-0.000708208010835163	-0.000390663520948326
0.22	19.0010361408963	-3.01260536358366	673.647547630206	-66.3867304520843	-7.69494251830851	-1.86923100967048	-0.0307890057282538	-0.000718895415088976	-0.000373846126903971
0.23	18.9829524139655	-2.96607860967929	673.762619128898	-66.4129498943165	-7.69801280869715	-1.87992772158957	-0.0423232296868224	-0.00072056503355338	-0.000352735758914452
0.24	18.9745562006076	-2.92160759013735	673.866816190307	-66.440835359885	-7.69535963785188	-1.89014356470223	-0.0523439523170166	-0.000713893220033675	-0.00032756753788421
0.25	18.9760703035117	-2.87992885834003	673.956902298869	-66.4698269970297	-7.68756102294987	-1.89959138136459	-0.060560441920231	-0.000699777893593555	-0.000298710554130013
0.26	18.9869374929632	-2.84150731591297	674.030715139833	-66.4994289150518	-7.67533785072731	-1.90809637579384	-0.0668693077370415	-0.000679314909603327	-0.000266591402609526
0.27	19.005938640267	-2.80656192454442	674.087133539544	-66.5292553885385	-7.65953131288072	-1.91558361599348	-0.0713293055733837	-0.00065376569790028	-0.00023162112335727
0.28	19.0313366254829	-2.77509902111403	674.126005936887	-66.5590677007941	-7.64107508108957	-1.92206310027254	-0.0741314405856849	-0.000624517378363269	-0.000194131045667664
0.29	19.0610362210111	-2.74695029268909	674.148045617349	-66.5887990266063	-7.62096339582802	-1.92761362047203	-0.0755665755581996	-0.000593036963383455	-0.000154321906443808
0.3	19.0927499537221	-2.72181261992435	674.154698820342	-66.6185657258487	-7.60021643569182	-1.93236650265961	-0.0759926121356704	-0.000560821586909	-0.000112229267045377
0.31	19.1241603059537	-2.69928731750735	674.147992589312	-66.6486644778466	-7.57984446302518	-1.93649010186669	-0.0758030666544719	-0.000529346935863177	-6.77068098506595e-05
0.32	19.1530694758776	-2.6789167472903	674.130369834743	-66.6795557468391	-7.56081230015257	-1.9401756942156	-0.075398537095868	-0.000500016181592764	-2.04276689680094e-05
0.33	19.1775292047238	-2.66021680692832	674.104519464836	-66.7118350499121	-7.54400567461814	-1.94362517073161	-0.0751621819182395	-0.000474111704012944	3.00973625166207e-05
0.34	19.1959447992425	-2.64270435560631	674.073209542412	-66.7461943294428	-7.53020088124368	-1.94704071308757	-0.0754399349801241	-0.000452751766187191	8.44870251867635e-05
0.35	19.2071493273698	-2.62591918185708	674.039131190638	-66.7833763569217	-7.52003904718682	-1.95061643945032	-0.0765257924074457	-0.000436854039391109	0.000143445331748551
0.36	19.2104459309285	-2.60944060462236	674.004760355808	-66.8241254777783	-7.51400606117769	-1.95453186051893	-0.0786521529195113	-0.000427107515252479	0.000207709584106763
0.37	19.205618167048	-2.59289919353574	673.972243533053	-66.8691381323317	-7.51241895121447	-1.95894688828397	-0.0819848934884724	-0.000423953897548752	0.00027799469474557
0.38	19.1929101493442	-2.57598437396546	673.943312196293	-66.9190164618911	-7.51541918102345	-1.96399809395054	-0.0866226312954614	-0.000427579072601358	0.000354937845010464
0.39	19.1729799098228	-2.55844883419344	673.919229008237	-66.9742279560777	-7.52297300187127	-1.96979591272704	-0.092599467415748	-0.000437914747526944	0.000439047258665962
0.4	19.1468307572374	-2.54011067574787	673.900767012652	-67.0350735579767	-7.53487866163712	-1.97642253351202	-0.0998904269446163	-0.000454649852959827	0.000530658391987709
0.41	19.1157264016501	-2.52085415441495	673.888221046233	-67.1016659693882	-7.55077995634118	-1.98393027976695	-0.108418797554218	-0.000477250860930688	0.000629900189831653
0.42	19.081096206696	-2.50062967017599	673.881448682132	-67.173919147021	-7.57018532830935	-1.99234037147694	-0.118064612306603	-0.000504989793377963	0.000736673285070003
0.43	19.0444371052707	-2.4794534088578	673.879936265299	-67.2515492108426	-7.5924914850304	-2.00164204450841	-0.128673608797531	-0.00053697840916868	0.000850641183532633
0.44	19.0072184824641	-2.45740675184831	673.882884147004	-67.3340862531151	-7.61701034508933	-2.01179208156132	-0.140066110455332	-0.000572206866729406	0.000971234634120424
0.45	18.970795727983	-2.43463529036775	673.889304179028	-67.4208958883655	-7.64299801944617	-2.02271486917059	-0.152045403020186	-0.000609585067229891	0.00109766858561682
0.46	18.9363372470793	-2.41134704378118	673.898121966092	-67.5112088574883	-7.669684510019	-2.03430313152888	-0.164405307863595	-0.000647984885001214	0.00122897042217544
0.47	18.9047685688515	-2.38780931857212	673.908276341828	-67.6041566177796	-7.69630285041658	-2.04641950103441	-0.176936774517197	-0.000686281577580983	0.00136401758320756
0.48	18.8767358892194	-2.36434357869723	673.918809032833	-67.6988106264791	-7.72211651871897	-2.05889906718924	-0.189433421003993	-0.000723392823835677	0.0015015822341744
0.49	18.8525900228884	-2.34131774075272	673.928938469137	-67.7942229575095	-7.7464441087531	-2.07155300230334	-0.201696038309326	-0.000758314049215322	0.00164038037485485
0.5	18.8323904024687	-2.31913545758562	673.938113110521	-67.8894659679723	-7.76868044111431	-2.08417329919874	-0.21353614271731	-0.000790148945773976	0.00177912265222989
0.51	18.8159275344939	-2.29822219767705	673.946041374885	-67.983668932533	-7.78831351366018	-2.09653857925245	-0.224778706495351	-0.000818134365018116	0.00191656417771949
0.52	18.8027612702333	-2.2790082393838	673.952697140953	-68.0760498643767	-7.80493691868445	-2.10842084619048	-0.235264224386092	-0.000841659039203975	0.00205155081694557
0.53	18.7922714272121	-2.26190904499342	673.958301703571	-68.1659411124094	-7.81825757687977	-2.1195929798906	-0.244850282173752	-0.000860275858756065	0.00218305970296578
0.54	18.7837167408691	-2.24730382099748	673.963284836242	-68.2528077371399	-7.82809884495309	-2.12983669253435	-0.25341278635992	-0.000873707689853008	0.00231023209660999
0.55	18.776297851934	-2.23551336940023	673.968229126733	-68.33625809565	-7.83439923548986	-2.13895061322519	-0.260846993228475	-0.000881846949305517	0.0024323971549992
0.56	18.7692200429759	-2.22677855596335	673.973802887461	-68.4160464863264	-7.8372071385072	-2.14675813159445	-0.267068444143897	-0.000884749358433447	0.00254908564743028
0.57	18.761751709611	-2.2212408388534	673.980687627241	-68.4920680982869	-7.83667205124669	-2.15311461901967	-0.272013874950573	-0.000882622470599408	0.00266003315474254
0.58	18.7532750561042	-2.21892629983145	673.989506269748	-68.5643468651413	-7.83303290600584	-2.15791365892468	-0.275642124209119	-0.000875809706844971	0.00276517278520393
0.59	18.7433261978997	-2.21973449669774	674.000758022313	-68.6330171287825	-7.82660413724149	-2.16109195426772	-0.277935021258674	-0.000864770740276851	0.00286461792110067
0.6	18.7316226825874	-2.22343321905411	674.014765081138	-68.6983002707783	-7.81776015231657	-2.1626326380101	-0.278898194273754	-0.000850059142669345	0.00295863596249835
0.61	18.7180773480833	-2.22965989910604	674.031635282149	-68.760477663642	-7.80691886933538	-2.16256678689756	-0.278561703935562	-0.000832298246693206	0.00304761444683188
0.62	18.7027983622974	-2.23793003288349	674.05124347043	-68.8198614302626	-7.79452496474957	-2.1609730250733	-0.2769803829816	-0.000812156184890705	0.00313202128467456
0.63	18.6860761735245	-2.24765253755722	674.073232878248	-68.8767645760663	-7.78103343649075	-2.15797519615206	-0.274233748002019	-0.000790321042809366	0.00321236115265808
0.64	18.6683588912905	-2.25815154155203	674.097036286885	-68.9314720741142	-7.76689403807598	-2.15373817466701	-0.270425348836081	-0.000767477009792699	0.00328913031259956
0.65	18.6502182676152	-2.2686937080321	674.121915308431	-68.9842144372434	-7.75253707726551	-2.14846197492146	-0.26568143322959	-0.000744282328706649	0.00336277226888422
0.66	18.6323089237504	-2.27851985624201	674.147014852655	-69.0351452027671	-7.73836100047192	-2.14237439267455	-0.260148829483634	-0.000721349738256227	0.00343363672087853
0.67	18.615323745526	-2.28687938915673	674.171428813323	-69.0843235843399	-7.72472210186783	-2.13572247923834	-0.253991986181434	-0.000699229972572659	0.00350194420105297
0.68	18.5999484436241	-2.2930658715535	674.194272267641	-69.1317033144271	-7.71192660470456	-2.12876319611598	-0.247389153521114	-0.000678398737611375	0.00356775860254141
0.69	18.5868181496816	-2.29645203305465	674.214755059459	-69.1771284142416	-7.70022526294829	-2.12175363012908	-0.240527742616325	-0.000659247428625585	0.00363096948687976
0.7	18.5764786146784	-2.29652249138808	674.232251538688	-69.2203362943867	-7.68981052604796	-2.11494116404402	-0.233598954402007	-0.000642077693997352	0.00369128562573548
0.71	18.5693541237155	-2.29290259178356	674.246361446609	-69.2609682209931	-7.68081620163618	-2.10855399691203	-0.226791825457226	-0.000627099794308998	0.00374824068087662
0.72	18.5657236811821	-2.28538192539723	674.256957446156	-69.2985867948432	-7.67331944447973	-2.10279239321531	-0.220286891084454	-0.000614434557387631	0.00380121128606714
0.73	18.5657063983385	-2.27393130840005	674.264215564658	-69.332699703938	-7.66734480017426	-2.09782101229782	-0.214249713321697	-0.000604118594893411	0.00384944709480874
0.74	18.5692563794065	-2.25871226066669	674.268625802864	-69.3627886443339	-7.66286994456514	-2.09376263125927	-0.208824560140477	-0.000596112327584311	0.00389211163920682
0.75	18.5761667983017	-2.24007830842406	674.270981321109	-69.3883419816552	-7.65983269032485	-2.09069352701631	-0.204128548788635	-0.000590310267598588	0.00392833215369125
0.76	18.5860823263826	-2.21856774158895	674.272345888407	-69.408889467289	-7.65813878560445	-2.08864072765552	-0.20024657799021	-0.000586552929425967	0.00395725590050802
0.77	18.5985186433427	-2.19488777940775	674.274000614424	-69.4240371471573	-7.65767001013496	-2.08758128015119	-0.1972273676494	-0.000584639689143532	0.00397811003678093
0.78	18.6128874588276	-2.16989043437609	674.27737231332	-69.433500521318	-7.65829208387825	-2.08744361136211	-0.19508089849206	-0.000584341886754193	0.00399026172355096
0.79	18.6285252995808	-2.1445407108122	674.283947102066	-69.4371340384098	-7.65986194262122	-2.08811098235219	-0.193777496343775	-0.00058541547227757	0.00399327502315056
0.8	18.6447242721301	-2.11987812511488	674.295173939785	-69.4349551428503	-7.6622340019258	-2.08942695331429	-0.193248736526148	-0.000587612535938505	0.00398696117741817
0.81	18.6607630802324	-2.09697288002141	674.312363692928	-69.427161330862	-7.66526512163504	-2.0912026893285	-0.193390254994164	-0.000590691139167208	0.00397141910678306
0.82	18.6759367379326	-2.07687835075157	674.336589891705	-69.4141390033017	-7.66881809188299	-2.09322584857449	-0.194066448214241	-0.000594422977403251	0.00394706340708938
0.83	18.6895836474079	-2.06058182785071	674.36859756365	-69.396463312261	-7.67276358102492	-2.09527070840298	-0.195116929297095	-0.000598598556399488	0.00391463772346715
0.84	18.7011089792958	-2.04895568748161	674.408726346382	-69.374888662615	-7.67698060798047	-2.09710910597921	-0.19636449118927	-0.000603029745580604	0.00387521211549713
0.85	18.7100035779094	-2.04271130123049	674.456853474217	-69.3503300233377	-7.68135571777242	-2.09852170500381	-0.197624217603349	-0.000607549775297877	0.00383016385541381
0.86	18.7158578953035	-2.04235803212422	674.512361215308	-69.3238356983862	-7.68578114147085	-2.09930905455973	-0.198713288036207	-0.000612010955336957	0.00378114197676548
0.87	18.7183707231654	-2.04816957417244	674.574131955327	-69.2965526745683	-7.69015230307735	-2.09930188628881	-0.199460953381773	-0.0006162805919449	0.00373001676813384
0.88	18.7173527325107	-2.06015966974114	674.640572463616	-69.2696860766297	-7.69436509016196	-2.09837010656432	-0.199718120541651	-0.000620235750151982	0.00367881623810601
0.89	18.7127250457955	-2.07806888284136	674.709667051165	-69.2444545933866	-7.69831332800486	-2.0964299838964	-0.199365983042657	-0.000623757627938525	0.00362965231800144
0.9	18.7045132553123	-2.10136362857164	674.779057471087	-69.2220439733484	-7.70188688624019	-2.09344910881266	-0.1983231720297	-0.000626726362682791	0.00358464017551831
0.91	18.69283746811	-2.12924808203434	674.846145664	-69.2035608101671	-7.70497080230791	-2.08944881141209	-0.196550976880096	-0.000629017067952018	0.00354581444864184
0.92	18.6778991031568	-2.16068894593719	674.908213950035	-69.189988840576	-7.70744572934836	-2.08450385536087	-0.194056292555329	-0.000630497797428436	0.00351504644594394
0.93	18.6599652910143	-2.19445238323306	674.962556132999	-69.1821498606838	-7.70918991163323	-2.07873937837903	-0.190892084201046	-0.000631029958583858	0.00349396637824094
0.94	18.6393518268635	-2.22915176108783	675.006612295047	-69.1806711380945	-7.71008276432934	-2.07232520836002	-0.187155308696433	-0.000630471465898124	0.00348389448138772
0.95	18.6164056980476	-2.26330424623148	675.038099865271	-69.1859608712056	-7.71000999416989	-2.06546784009526	-0.182982386782656	-0.000628682652934818	0.00348578446861961
0.96	18.5914882383956	-2.29539377658801	675.055133840581	-69.1981928423293	-7.70887005261685	-2.05840049885434	-0.178542466761175	-0.000625534679628312	0.00350018213549697
0.97	18.564959943049	-2.32393754088724	675.056329776059	-69.2173009509498	-7.70658157332126	-2.05137183331872	-0.174028851087999	-0.000620919902079036	0.00352720116684015
0.98	18.5371678993199	-2.34755284956868	675.040884261557	-69.2429838228489	-7.70309132134993	-2.04463386287915	-0.169649061857498	-0.000614763441564879	0.00356651730999401
0.99	18.5084366438141	-2.36502119066918	675.008628953042	-69.2747191962429	-7.69838208257939	-2.03842984695437	-0.165614094055225	-0.000607035017548866	0.00361738113707451
1	18.4790630410061	-2.37534633857028	674.960055711168	-69.3117873132608	-7.69247985664418	-2.03298274375349	-0.162127443336825	-0.000597760010275271	0.00367864867869025
1.01	18.4493154976547	-2.3778036179882	674.896311899207	-69.3533021180599	-7.68545969296072	-2.02848488308716	-0.159374497591936	-0.000587028699273585	0.00374882832983225
1.02	18.419437492767	-2.37197780914196	674.81916630828	-69.3982487028156	-7.67744953147058	-2.02508939592821	-0.157512850796762	-0.000575002685168404	0.00382614165607671
1.03	18.3896550342793	-2.35778769439507	674.730947436777	-69.445525167144	-7.66863147997866	-2.02290382870133	-0.156664037640085	-0.000561917638229397	0.00390859510605875
1.04	18.3601872786292	-2.33549586753828	674.634456911632	-69.4939868781393	-7.6592400773815	-2.02198623116714	-0.156907103292499	-0.000548081718228137	0.00399405919299772
1.05	18.3312592009442	-2.30570312488611	674.53286169134	-69.5424910449476	-7.64955725256461	-2.0223438531053	-0.158274320183484	-0.000533869263538945	0.00408035145883118
1.06	18.3031149173934	-2.26932749916039	674.429569349341	-69.5899395559951	-7.63990388497445	-2.02393442731538	-0.160749248544111	-0.000519709638432148	0.00416531948061362
1.07	18.2760300722603	-2.2275687467602	674.32809123244	-69.6353181652663	-7.63062809451523	-2.02666986521804	-0.164267215407616	-0.000506071440686486	0.00424692030946233
1.08	18.2503216404456	-2.18185981942531	674.231898658187	-69.677730347377	-7.62209062253568	-2.03042205632303	-0.168718163209258	-0.000493442591025035	0.0043232930267789
1.09	18.2263535823303	-2.1338075061087	674.144277586777	-69.7164244553309	-7.6146478972862	-2.03503035249792	-0.173951699487984	-0.000482307135026474	0.00439282153298388
1.1	18.2045370305162	-2.08512498617202	674.06818739178	-69.7508131909947	-7.60863359016253	-2.04031023896421	-0.179784068892061	-0.000473119870063323	0.00445418521876495
1.11	18.185324080119	-2.03755946110552	674.006129454012	-69.7804848143135	-7.60433964693862	-2.04606265066	-0.186006673193089	-0.000466280146874725	0.00450639577490257
1.12	18.1691947731545	-1.99281830490153	673.960031287619	-69.8052059490356	-7.60199790563589	-2.05208338689745	-0.192395689656706	-0.000462106369792763	0.00454881904244182
1.13	18.1566374750189	-1.95249727604525	673.93115173278	-69.8249162659079	-7.60176347649844	-2.05817210827236	-0.198722287749384	-0.000460812814317606	0.00458118146181621
1.14	18.1481234864225	-1.91801425785238	673.920012361461	-69.8397157159851	-7.60370104997751	-2.06414046403902	-0.204762922586409	-0.000462490380763425	0.0046035613231455
1.15	18.144077358378	-1.89055173816699	673.926359587236	-69.8498453268673	-7.6077752103591	-2.0698189896514	-0.210309192877675	-0.000467092797239251	0.00461636563036513
1.16	18.1448449192778	-1.87101081267791	673.949161005198	-69.8556628473818	-7.61384566560455	-2.07506252480456	-0.215176791273588	-0.000474429569564809	0.00462029395303465
