Time [s]	GRFml [N]	GRFap [N]	GRFv [N]	Mml [N.m]	Map [N.m]	Mv [N.m]	Mfree [N.m]	COPml [m]	COPap [m]
0.01	24.7142748016431	1.08894076773518	669.995846401703	-57.083601602765	0.546626819595502	-4.01284629733449	-1.90863493820864	-0.0021678943133036	-0.00283573552789172
0.02	23.7164262871037	1.20986520663284	670.004278951704	-57.1590645390512	0.860994709755527	-3.73130384068194	-1.71022288159331	-0.00169561363781762	-0.00272998125978127
0.03	22.7339987563139	1.32995779460683	670.021909162162	-57.2341391417496	1.16653943286164	-3.45427875078315	-1.51530427535778	-0.00123808856759325	-0.00262364409450529
0.04	21.7837673551118	1.44704890759559	670.052887162153	-57.3079583910678	1.45671135857106	-3.186530264662	-1.32721993400704	-0.000804987830445172	-0.00251876056656465
0.05	20.8813525729856	1.55895104927355	670.100532604683	-57.3796457084945	1.72546876363592	-2.93247784368028	-1.14904985821458	-0.000405119875434527	-0.00241743769248481
0.06	20.0406567773192	1.66352189885474	670.16705268284	-57.4483334608644	1.9675387926407	-2.69603938827764	-0.983501178313699	-4.60659463304945e-05	-0.002321737747421
0.07	19.2733963350801	1.75872863802396	670.253345339661	-57.5131862255015	2.17864354417128	-2.48049744119758	-0.832817750723762	0.000266127538944858	-0.00223355607531098
0.08	18.5887506985661	1.84271224787684	670.358904994763	-57.5734288269969	2.35567848379248	-2.28839963587526	-0.698715365710754	0.000527181952074954	-0.00215450355527799
0.09	17.9931414358645	1.91385050948653	670.481839216038	-57.6283785282679	2.49683270308057	-2.12149720152274	-0.58234458495235	0.000734733211183264	-0.00208580500165705
0.1	17.4901453981636	1.97081835996083	670.61899524502	-57.6774800964618	2.60164365184233	-1.98072276776553	-0.484281318770536	0.000888385161966268	-0.00202822277963893
0.11	17.0805377620285	2.0126440463663	670.766185972915	-57.7203418332747	2.67098272428847	-1.8662062291173	-0.404543540179821	0.000989667209182005	-0.00198201164659481
0.12	16.7624531993418	2.03875921386716	670.918496637827	-57.7567701258162	2.70697225675832	-1.7773252167786	-0.342631131495293	0.00104189884323634	-0.00194690689939049
0.13	16.5316474053282	2.04904072079803	671.070646843617	-57.7867997004498	2.71283881185278	-1.71278492692383	-0.297584831990108	0.00104996873841883	-0.0019221440511606
0.14	16.3818369803328	2.04384166923879	671.217378009198	-57.81071660026	2.69271176275919	-1.67072076805649	-0.268059618052316	0.00102004090849591	-0.00190650515841938
0.15	16.3050933556442	2.02400895886339	671.353834384598	-57.8290709940584	2.65137982579842	-1.64881656138911	-0.252407580849154	0.00095920472756586	-0.00189838505348201
0.16	16.2922660423998	1.99088469315495	671.47590645667	-57.8426772791603	2.59402101512202	-1.64443085400442	-0.248765427445234	0.000875089169911155	-0.00189587029159941
0.17	16.3334117744037	1.94628905284063	671.580508844903	-57.8525995577512	2.5259232594485	-1.65472423704879	-0.255142062896704	0.000775464092768128	-0.00189682445605321
0.18	16.4182087973849	1.89248283778416	671.665770387269	-57.8601214208258	2.45221345301945	-1.67678131740746	-0.269502249872133	0.000667852499891682	-0.0018989751656415
0.19	16.5363392353333	1.83210876853876	671.731121584903	-57.8667000152733	2.37761193525955	-1.70772206407896	-0.2898430239874	0.000559177259101424	-0.0019000001310182
0.2	16.6778267103419	1.76811179841666	671.777273307577	-57.8739055293616	2.30622733823567	-1.74479852057214	-0.314260304581545	0.00045546358344563	-0.00189761133671768
0.21	16.8333207855309	1.70364004595445	671.806089943596	-57.8833484241124	2.24140355027276	-1.78547422253097	-0.341003925258488	0.000361614745197581	-0.00188963744711595
0.22	16.9943239675197	1.64192941399665	671.820369233651	-57.8965978669526	2.18562646147716	-1.82748497596937	-0.368520068744138	0.000281273165384017	-0.00187410464367822
0.23	17.1533606482291	1.58617639020746	671.823549086762	-57.9150957906354	2.14049350832381	-1.86888084483173	-0.395480790956758	0.000216772573915057	-0.00184931536130768
0.24	17.3040902836475	1.53940478849711	671.819368033489	-57.9400717112647	2.10674420103716	-1.908050199854	-0.42080093658443	0.000169179885400779	-0.00181392309696235
0.25	17.4413692006861	1.50433315835885	671.811510053223	-57.9724638151648	2.08434520255457	-1.94372745323831	-0.443643270396588	0.000138418409613874	-0.00176700004342964
0.26	17.5612666930813	1.4832501435454	671.80326593042	-58.0128518088784	2.0726195208031	-1.97498663126017	-0.463413069478185	0.000123457679434374	-0.00170809319845991
0.27	17.6610416005629	1.47790512758029	671.797241886761	-58.0614065929196	2.07040631670272	-2.00122322918326	-0.479743739230823	0.00012255015956366	-0.00163726415517726
0.28	17.7390855148202	1.48942101713336	671.795142086244	-58.1178609752861	2.07623597730556	-2.02212687851689	-0.492475228666868	0.000133491903975368	-0.00155510815314176
0.29	17.794838313525	1.51823498874937	671.797645046181	-58.1815044278526	2.08850460937536	-2.03764727769923	-0.501627127013481	0.000153883181438785	-0.00146274911526331
0.3	17.828681094066	1.56407151259424	671.804385554771	-58.2512033837447	2.10563300486893	-2.04795564240754	-0.507368325158341	0.000181366281606807	-0.00136180909796765
0.31	17.8418109511577	1.62595006762176	671.814044113987	-58.3254468809691	2.12619732225019	-2.05340366987969	-0.509985028688134	0.000213821005584128	-0.001254352530026
0.32	17.8361015687953	1.70222781288601	671.82453602378	-58.402415601473	2.14902200461168	-2.05448172663903	-0.509848728746077	0.000249503373120534	-0.00114280749534003
0.33	17.8139533744483	1.79067524318624	671.833282869869	-58.4800706702726	2.17322950632625	-2.05177769517877	-0.507385495378911	0.000287119312022247	-0.00102986788677574
0.34	17.7781370659144	1.88858070967551	671.83754120879	-58.5562571005225	2.19824584250366	-2.04593767489907	-0.503047683866563	0.000325831897939995	-0.000918381397692625
0.35	17.7316346391261	1.99287780007448	671.834757393737	-58.6288156199325	2.22376539203667	-2.03762953571483	-0.497288867097416	0.000365207415879317	-0.000811229015069484
0.36	17.6774825326528	2.10028810250642	671.822914320094	-58.6956958922543	2.24968236051267	-2.02751016747485	-0.490542551105056	0.000405111485668291	-0.00071120199960463
0.37	17.6186220345609	2.20747094256666	671.800835740225	-58.7550639242286	2.27599947061307	-2.01619714363613	-0.483205011884082	0.000445571191156353	-0.000620882372524695
0.38	17.5577625209803	2.31117136149205	671.768416800047	-58.8053967551989	2.3027264989714	-2.00424540660764	-0.475622413564102	0.000486622168837623	-0.000542532738228699
0.39	17.4972632649512	2.40835791857193	671.726755410316	-58.8455583535493	2.32978202970997	-1.99212946578838	-0.468082224439392	0.000528160696113176	-0.00047800086715459
0.4	17.4390393429565	2.496342822719	671.678167540937	-58.8748519384421	2.35691118034437	-1.98023146017508	-0.46080882491266	0.000569819893985332	-0.000428643810004223
0.41	17.3844964901493	2.57287834345249	671.626079831879	-58.8930456142246	2.38363014112223	-1.96883526298213	-0.453963085254925	0.000610886318867927	-0.00039527536475796
0.42	17.3344985834733	2.63622529282485	671.574804171531	-58.9003701217976	2.40920534557725	-1.95812659075108	-0.447645570038146	0.000650268726283626	-0.000378139452412843
0.43	17.2893697959848	2.68519144707772	671.529210102432	-58.8974895256085	2.43267125750707	-1.94819882727611	-0.441902896434771	0.000686525060699893	-0.000376910419630352
0.44	17.2489314579586	2.71913991331888	671.494321039938	-58.8854476044763	2.4528864966882	-1.93906399538871	-0.436736640389552	0.000717947301607875	-0.000390719594586211
0.45	17.2125714260651	2.73796946590372	671.47486835797	-58.8655944393045	2.46862375473665	-1.93066802692026	-0.432114060702529	0.000742697302920251	-0.000418205752308318
0.46	17.1793414852589	2.74207062015627	671.474842591106	-58.8394990477725	2.47868509864909	-1.92290921818726	-0.42797981356204	0.000758980859162742	-0.000457585691989337
0.47	17.1480761935168	2.73226254964764	671.497082750333	-58.8088547922719	2.48203120943088	-1.91565854285021	-0.424267776599594	0.000765242541784683	-0.000506740055101373
0.48	17.1175248308958	2.70971680144125	671.542942782908	-58.7753846103391	2.47791116772493	-1.90878035278125	-0.420912105947803	0.000760360891139851	-0.000563308912884114
0.49	17.0864869131894	2.67587408312618	671.61206859833	-58.7407528620357	2.46597878227365	-1.90215195293363	-0.417856719237559	0.000743822672405425	-0.000624791529874755
0.5	17.0539412169411	2.63236019599875	671.702310247546	-58.7064897817351	2.44638223883052	-1.89568060269178	-0.4150625311597	0.000715856235354406	-0.000688644993812298
0.51	17.0191585200412	2.58090652459296	671.809782506177	-58.6739332362606	2.41981597074117	-1.8893166781278	-0.412511957717198	0.000677507445429424	-0.0007523769747841
0.52	16.9817893067171	2.52327945451274	671.929074246989	-58.6441908425012	2.3875269318741	-1.88306201975144	-0.410210436174498	0.000630646833507983	-0.000813628620543544
0.53	16.9419194625539	2.46122179477147	672.053593725967	-58.6181236321916	2.35127158893281	-1.87697286986763	-0.4081849616638	0.000577903013385916	-0.000870244428357869
0.54	16.9000893711176	2.39640785837073	672.176024445383	-58.5963505348484	2.31322455911022	-1.87115724346925	-0.406479898251119	0.00052252438916389	-0.000920326824405682
0.55	16.8572746368798	2.3304124386555	672.288855746298	-58.579271151595	2.27584446669995	-1.86576704002603	-0.405150561448075	0.000468178029623459	-0.00096227413675809
0.56	16.8148296738298	2.26469263313929	672.384944723116	-58.5671027720481	2.24170683591359	-1.8609856499114	-0.404255270822313	0.000418700671663597	-0.000994801683168595
0.57	16.7743983656602	2.20058041641929	672.458062204021	-58.5599264782324	2.21331726685087	-1.85701219799626	-0.403846717324129	0.000377821579860819	-0.0010169467984763
0.58	16.7377986700224	2.13928312845339	672.503375846719	-58.5577365814216	2.19292041915425	-1.85404386188212	-0.403963564981152	0.000348880027809695	-0.00102805973324373
0.59	16.7068901753115	2.08188867071149	672.51782793662	-58.5604876013103	2.1823212193947	-1.85225787511003	-0.404623200207177	0.000334561236091432	-0.00102778334400808
0.6	16.6834350351713	2.0293722022263	672.500373935977	-58.5681335215033	2.18273410693581	-1.85179485910988	-0.405816450323427	0.000336673623508414	-0.00101602521227008
0.61	16.6689632748893	1.9826014765639	672.452059538131	-58.5806550875438	2.19467407062231	-1.85274501688375	-0.40750492054804	0.000355987280208471	-0.000992926130433516
0.62	16.6646531289481	1.94233860276001	672.375927929352	-58.59807235127	2.21789987366227	-1.85513847472953	-0.4096213591935	0.000392148873036794	-0.000958828692763578
0.63	16.6712358524902	1.90923686508733	672.276763911776	-58.6204413659475	2.25141550730201	-1.85894069623815	-0.412073175763596	0.000443682092524327	-0.000914249036017153
0.64	16.6889324506994	1.88383219675482	672.160696126637	-58.6478357315559	2.29353094215504	-1.86405344623236	-0.414748933453064	0.000508075708916369	-0.000859853698964366
0.65	16.7174271573314	1.86652986238455	672.034691469861	-58.6803153998952	2.34197810673531	-1.87032128976906	-0.417527345902675	0.000581953878842403	-0.000796442306175871
0.66	16.7558794893745	1.85758775841096	671.90598567969	-58.7178866037244	2.39407318242221	-1.87754311559369	-0.420288056094204	0.000661316159593207	-0.000724935558993889
0.67	16.8029735664747	1.85709839940536	671.781500025916	-58.7604578271593	2.44691220509442	-1.88548771796021	-0.422923286222738	0.000741828394577628	-0.00064636704417223
0.68	16.857000380873	1.86497205592756	671.667295432765	-58.8077972804545	2.49758398294298	-1.89391209593779	-0.425349337297045	0.000819140848304201	-0.000561876785366136
0.69	16.9159660939965	1.88092361051105	671.568112042547	-58.8594973264572	2.5433827538937	-1.90258086916465	-0.427516894000286	0.000889207206472345	-0.000472704302494395
0.7	16.9777174425201	1.90446550062558	671.4870344485	-58.9149507300488	2.58200296473577	-1.91128508795443	-0.42941915411919	0.000948577657603544	-0.000380179151377336
0.71	17.0400741277017	1.93490865076368	671.425311296496	-58.9733425229063	2.61170006728515	-1.91985874638161	-0.431096946203566	0.000994641347383012	-0.000285707369573049
0.72	17.100957734714	1.97137261730715	671.382343742947	-59.033659800146	2.6314041632349	-1.92819148891713	-0.432640212671595	0.00102579789414148	-0.000190752816561307
0.73	17.1585073016388	2.01280535654324	671.355841685375	-59.0947200369314	2.64077742798737	-1.93623632022991	-0.434185503377987	0.00104154396643157	-9.68129597438555e-05
0.74	17.2111730674837	2.05801216581763	671.342131208322	-59.1552166992643	2.64021113844119	-1.94401155710295	-0.435909429042842	0.00104246853279291	-5.38917181686083e-06
0.75	17.2577820362537	2.10569252910222	671.33658275761	-59.2137791982482	2.63076338199066	-1.95159676364617	-0.438018344813698	0.00103015854573937	8.20479229787785e-05
0.76	17.2975715986948	2.15448290204284	671.334118473807	-59.2690427660404	2.61404366313905	-1.95912294141962	-0.440734849164907	0.00100702472153514	0.000164097047042969
0.77	17.3301903107825	2.20300296318897	671.329749921032	-59.3197227551388	2.59205518978542	-1.96675775682068	-0.444281967900621	0.000976063981569898	0.000239467305835517
0.78	17.3556677750413	2.2499025820058	671.319094821837	-59.3646872845045	2.56700920520755	-1.97468703265412	-0.448866121996471	0.000940580417208875	0.000307019634444142
0.79	17.374358150137	2.29390673073698	671.298823614834	-59.403022134397	2.54112801501737	-1.98309406867853	-0.454660127650017	0.000903889896356592	0.000365806146821232
0.8	17.3868638993776	2.33385579158756	671.266993505086	-59.4340823338313	2.51645414010257	-1.99213855653594	-0.461787528128788	0.000869034419020398	0.000415104554217102
0.81	17.393947804924	2.36873915476662	671.223238561417	-59.4575259454069	2.49468224254511	-2.00193690015218	-0.470309498806159	0.000838531025299315	0.000454444769364848
0.82	17.3964419138262	2.39772061798082	671.168798330677	-59.473327038587	2.47702819997913	-2.01254564024037	-0.480215399004319	0.000814176621063583	0.000483625127825127
0.83	17.3951619118103	2.42015481968595	671.106383091373	-59.4817666202316	2.46414615848542	-2.02394942228063	-0.491417778865756	0.000796924831968645	0.000502716353148858
0.84	17.3908344842199	2.43559469286868	671.039889780252	-59.4834021970991	2.45609990441742	-2.03605456574994	-0.503752309748311	0.000786844376083542	0.000512052392553433
0.85	17.3840436329244	2.44379063674879	670.973997270939	-59.4790185015159	2.45238987648922	-2.048688823411	-0.516982724515298	0.000783161016307822	0.000512208399505831
0.86	17.3751998417701	2.44468269863382	670.913681635343	-59.4695635431276	2.45203205309895	-2.06160740511398	-0.530810465984393	0.000784377549207568	0.000503967243158016
0.87	17.36453362844	2.43838747722545	670.863700084183	-59.4560754005833	2.4536802625163	-2.07450482582662	-0.544888383880546	0.000788459178038813	0.000488276799311238
0.88	17.3521126130039	2.42518166044409	670.828095628623	-59.4396059163186	2.45577960248839	-2.08703166648545	-0.558837524482552	0.000793065662589804	0.000466200804718389
0.89	17.3378789961277	2.40548407735512	670.809772745126	-59.4211476324061	2.45673596961078	-2.09881494800206	-0.572265846475557	0.000795807419097876	0.000438866211515301
0.9	17.3217024735136	2.37983788359679	670.8101875721	-59.4015698890682	2.45508542527488	-2.10948054468893	-0.584787585424654	0.000794500697214447	0.000407409830252781
0.91	17.3034422785717	2.34889404803942	670.829185028463	-59.3815690420491	2.44964736951917	-2.11867592447977	-0.596041981998122	0.000787397317598177	0.000372926729023101
0.92	17.2830113503441	2.31339672418298	670.865000774584	-59.3616363379619	2.43964722057115	-2.12609150873916	-0.605710180855732	0.000773367192712748	0.00033642250391204
0.93	17.2604356145512	2.27417044970427	670.914429535183	-59.3420452609204	2.42479733294119	-2.1314790908654	-0.613529285823959	0.000752016693722353	0.000298771252784061
0.94	17.2359020240616	2.23210850752301	670.973144581243	-59.3228583031238	2.4053289372017	-2.13466602491995	-0.619302804731167	0.000723732354817784	0.000260680896021451
0.95	17.2097902513359	2.18816128685518	671.036137783005	-59.3039513033755	2.38197256479252	-2.13556426712304	-0.622907012019048	0.000689646742008167	0.000222667342607216
0.96	17.1826846266662	2.14332317674828	671.098237141171	-59.2850519209176	2.35588929082691	-2.13417378983731	-0.624293074118222	0.00065153079682554	0.000185038797046289
0.97	17.1553648999717	2.09861646055873	671.154650348323	-59.2657876222003	2.32855973259148	-2.13058034997947	-0.623485095319978	0.000611623854402978	0.000147891140431872
0.98	17.1287764757399	2.05507088268446	671.201479595999	-59.2457378686441	2.3016416553996	-2.12494804045556	-0.620574524604383	0.000572418190553213	0.00011111474471133
0.99	17.103982732352	2.01369802135406	671.236154902887	-59.2244850646135	2.27680990265013	-2.11750744534928	-0.615711593326072	0.000536418897468551	7.44123206958269e-05
1	17.0821037061914	1.97546028345696	671.257740543882	-59.2016592585068	2.25559392585626	-2.10854052438013	-0.60909461172992	0.000505901838912158	3.73265673406092e-05
1.01	17.0642466481466	1.94123516988915	671.267081037022	-59.1769725295085	2.23922830918822	-2.09836354586042	-0.600958028469175	0.000482692303483226	-7.24356124193193e-07
1.02	17.0514346419771	1.91177635048804	671.266768469626	-59.1502403295539	2.22853036303131	-2.08730945747299	-0.591560150260451	0.000467984843641394	-4.04060104620269e-05
1.03	17.0445395614296	1.8876739306666	671.260930244398	-59.1213886355425	2.22381623758021	-2.07571103016496	-0.581171336426377	0.000462220890072682	-8.24241240946488e-05
1.04	17.0442251438118	1.86931697932159	671.254853926573	-59.0904474274059	2.22486333649198	-2.06388594344048	-0.570063341000056	0.000465035415320201	-0.000127480690600812
1.05	17.0509049339306	1.85686182094463	671.254482061917	-59.0575325636491	2.23092244385298	-2.05212472151631	-0.558500293850969	0.000475277631583791	-0.000176231580130928
1.06	17.0647184122746	1.85020969638693	671.265823029281	-59.0228194103376	2.24077832922728	-2.04068210787528	-0.546731613893522	0.000491103963608386	-0.000229246888599738
1.07	17.0855269085676	1.84899711923521	671.294332891127	-58.9865124550807	2.25285310245221	-2.02977211381087	-0.534986951955513	0.000510134908746401	-0.000286974677750365
1.08	17.1129290809409	1.85260158867314	671.344326921843	-58.9488155115073	2.26534267105806	-2.01956662874331	-0.523473084332875	0.000529661472824982	-0.000349708417184763
1.09	17.1462939826062	1.8601642966404	671.418477633738	-58.9099069531656	2.27637367012463	-2.01019716836695	-0.512372531578941	0.000546882217361534	-0.000417558404415194
1.1	17.1848082035516	1.87063015936019	671.517448825498	-58.8699237279556	2.28416645722489	-2.00175908803779	-0.501843567447795	0.000559149052201058	-0.000490427685350722
1.11	17.2275324027789	1.88280401907029	671.639703109806	-58.8289567706975	2.28718934790517	-1.99431742305028	-0.492021213825589	0.000564199091006836	-0.000567993407214973
1.12	17.2734618402703	1.89542033618852	671.781504656487	-58.7870589765167	2.28429023412998	-1.98791344581988	-0.483018790827975	0.000560351283051456	-0.00064969493839323
1.13	17.3215853365864	1.90722227479138	671.937120987801	-58.7442652815414	2.27479397237528	-1.98257105452018	-0.474929607693126	0.000546650030324129	-0.000734730318196875
1.14	17.3709374420267	1.91704492442637	672.09920926868	-58.7006227993692	2.25855722279808	-1.97830222142519	-0.467828438719798	0.000522943238333415	-0.00082206254164631
1.15	17.4206394468263	1.9238966319619	672.259355383505	-58.6562275615258	2.23597644210736	-1.97511091697195	-0.461772525499991	0.000489888670824802	-0.000910436812278301
1.16	17.4699261225896	1.92703214020799	672.408719804639	-58.6112633684453	2.2079490909658	-1.97299516574429	-0.45680197398699	0.000448889387590902	-0.000998409266406014
1.17	17.5181566281092	1.92601150346225	672.538734188273	-58.5660376985911	2.17579239505903	-1.97194715712365	-0.452939559287643	0.000401965704126176	-0.00108438689917252
