Time [s]	GRFml [N]	GRFap [N]	GRFv [N]	Mml [N.m]	Map [N.m]	Mv [N.m]	Mfree [N.m]	COPml [m]	COPap [m]
0.01	11.013757589946	-7.13213290571094	712.692743155824	-54.1602581296047	7.62176858692014	0.980448165082537	1.89373867148614	0.000496344570573628	0.0132955065335187
0.02	10.6048069689568	-6.82251353073906	712.801549431879	-54.0127374532768	7.6376494044587	1.14315015482744	2.01989116869284	0.000517847151762705	0.0130757047445519
0.03	10.2026155628188	-6.51897864786875	712.911591061594	-53.8678055376004	7.65325272489602	1.30325833921903	2.1442235527486	0.00053894351337274	0.0128594017104506
0.04	9.81407461479099	-6.22698754213539	713.022971845023	-53.7281657091659	7.66831829737107	1.45804121162311	2.26460918432617	0.000559266405490422	0.0126503613555798
0.05	9.44562497940477	-5.9515857010726	713.135876568375	-53.5963849211288	7.68260780542734	1.60493583421502	2.37903969279161	0.000578478266276996	0.0124521472982268
0.06	9.10302500080035	-5.69720854223782	713.250523402226	-53.4748009451501	7.6959132859533	1.74163884244243	2.48569723460244	0.000596283493946347	0.0122679978690325
0.07	8.79115249029881	-5.46751583793487	713.367108971552	-53.3654396715168	7.70806364932535	1.8661847913586	2.58301780282103	0.000612438131921664	0.0121007161551214
0.08	8.51384989713397	-5.26526525152149	713.485749545771	-53.2699461977553	7.71892892810992	1.97700835903038	2.6697425942155	0.000626756429302495	0.0119525799123125
0.09	8.27381907698498	-5.09223103086183	713.606422321977	-53.1895326158084	7.72842203003052	2.07298791774935	2.74495517272953	0.00063911394427168	0.0118252750339717
0.1	8.07256910772874	-4.94917119822713	713.728911063645	-53.1249445202907	7.7364979395869	2.15346907396711	2.80810301925666	0.000649447090050435	0.0117198549612022
0.11	7.91041758761915	-4.83584371737178	713.852760360064	-53.0764473104085	7.74315049035814	2.21826788651636	2.85900296311336	0.000657749265362672	0.0116367270529
0.12	7.78654297095455	-4.75106929978515	713.977242463949	-53.0438323982051	7.74840700371987	2.26765452984216	2.89783088491572	0.000664063946552584	0.0115756655887956
0.13	7.6990829172048	-4.6928359172996	714.101340049762	-53.0264425127467	7.75232124612294	2.30231911529071	2.92509690312738	0.000668475329187259	0.0115358498263377
0.14	7.64527148414707	-4.65843787957296	714.223747346683	-53.0232144433846	7.75496528360376	2.32332217298011	2.94160795659359	0.000671097277517074	0.0115159244307459
0.15	7.6216063776831	-4.64464064170888	714.342890996937	-53.0327368273778	7.75642089800119	2.33203289804771	2.9484202356121	0.000672061457726202	0.0115140786880792
0.16	7.62403643500173	-4.64786141770988	714.456970751288	-53.0533199826422	7.75677126634342	2.33005866139159	2.94678427264745	0.000671505586251857	0.0115281402191323
0.17	7.64815908023395	-4.66435523257623	714.56401882924	-53.0830743333408	7.75609358839415	2.3191694732164	2.93808567446266	0.000669562712454656	0.0115556784490321
0.18	7.68941763530552	-4.69039624682974	714.661975534513	-53.119993686677	7.75445327672523	2.30122107637025	2.92378446833593	0.000666352374805801	0.0115941128542646
0.19	7.74328904642993	-4.72244498632493	714.748777613557	-53.1620395004055	7.7519002024057	2.27808015389066	2.90535586605008	0.000661974325225821	0.0116408209982633
0.2	7.805453727211	-4.75729342472213	714.822454949519	-53.2072223336411	7.74846732508694	2.25155478702524	2.88423494887531	0.000656505315418754	0.0116932415658683
0.21	7.87194073185961	-4.79218158447216	714.881230551526	-53.2536768942827	7.74417184029765	2.22333282708816	2.86176737809321	0.000649999194450562	0.0117489679992447
0.22	7.93924325167837	-4.82488131396899	714.923618463086	-53.2997274745629	7.73901876360055	2.19493028077827	2.83916777345293	0.000642490294770521	0.0118058289033929
0.23	8.00440136124643	-4.85374502406828	714.948514185892	-53.3439410854283	7.73300665746922	2.1676511891155	2.81748690948854	0.000633999803897802	0.0118619521051719
0.24	8.06505091140233	-4.87771928789983	714.955272487727	-53.3851662380606	7.72613500973807	2.14255983949506	2.79758838622667	0.00062454455266199	0.0119158100890442
0.25	8.11943936123357	-4.89632519546386	714.943768009873	-53.4225560486378	7.71841260910467	2.12046552096632	2.78013496058932	0.000614147420246571	0.0119662454644589
0.26	8.16641105721869	-4.90960909839953	714.914434871757	-53.4555751274211	7.70986614817571	2.10191944375287	2.76558429601617	0.000602848381990101	0.0120124761079223
0.27	8.20536591578402	-4.91806879369519	714.868282442154	-53.4839905190283	7.70054822920385	2.08722291981042	2.75419351307691	0.000590715125184188	0.0120540806265263
0.28	8.23619657701495	-4.92256121837342	714.806885556703	-53.5078477490015	7.69054395856934	2.07644546120634	2.74603161076425	0.000577852142909074	0.0120909657640171
0.29	8.25920982682338	-4.92419832938757	714.732348660165	-53.5274337641003	7.67997539444223	2.06945111098653	2.74099858055252	0.000564407291451486	0.0121233182678892
0.3	8.27503841298826	-4.92423802112113	714.647244589126	-53.5432291935126	7.66900325354045	2.06593108491177	2.73884985431961	0.000550574960640204	0.0121515445089679
0.31	8.28454931385709	-4.9239767094435	714.554529938467	-53.555852872372	7.65782547779129	2.0654406744081	2.73922461237318	0.000536595248415584	0.0121762017491051
0.32	8.28875408871629	-4.92464963020841	714.457440125183	-53.5660019300284	7.64667249580626	2.06743833860878	2.74167642767768	0.000522748833991058	0.0121979253501502
0.33	8.2887261993282	-4.92734402194822	714.359368328132	-53.5743909328162	7.63579926981602	2.07132498932037	2.74570473484382	0.000509347585218896	0.012217356380351
0.34	8.28552921361005	-4.93292925911328	714.263733393608	-53.5816935723619	7.62547447653719	2.07648163616981	2.75078568457446	0.000496721288512055	0.0122350739876063
0.35	8.28015866731473	-4.9420067511715	714.17384250628	-53.5884902028615	7.61596741035444	2.08230379603463	2.75640107180411	0.000485201225435047	0.0122515365720354
0.36	8.27349915573484	-4.95488110274363	714.092754888076	-53.5952241614483	7.6075334002536	2.08823136468244	2.76206420260409	0.000475101610995907	0.0122670352182635
0.37	8.2662970417728	-4.97155271586343	714.023152965314	-53.6021692722527	7.6003986816781	2.09377298124818	2.76734178263347	0.000466700129769203	0.0122816620710987
0.38	8.25914807890771	-4.9917307758889	713.967227308852	-53.6094102644476	7.59474574818255	2.0985242687811	2.77187115766721	0.000460218937294914	0.0122952954011619
0.39	8.25249832470523	-5.01486445696053	713.926581189965	-53.6168370638177	7.59070021747453	2.10217968760222	2.77537250160698	0.00045580752259012	0.0123076020649709
0.4	8.24665601265098	-5.04018926004921	713.902159810726	-53.6241530896487	7.58832017971145	2.10453807453017	2.77765581511161	0.000453528748077827	0.0123180569800667
0.41	8.2418115875409	-5.06678469397496	713.894208186634	-53.6308968522162	7.58758885613523	2.1055022439251	2.77862285406268	0.000453349199614849	0.0123259781765345
0.42	8.23806290184429	-5.09363905283247	713.902260326287	-53.6364753508599	7.58841119241755	2.10507328250661	2.77826433801885	0.000455134704201212	0.0123305750172786
0.43	8.23544260658581	-5.11971684537825	713.925160831976	-53.6402070670709	7.5906147577611	2.10334036914011	2.77665298336719	0.000458651526891122	0.0123310063607926
0.44	8.23394502176397	-5.14402449409427	713.96111841639	-53.6413717748924	7.59395503631138	2.10046708750762	2.77393305603676	0.000463573368170366	0.0123264448226409
0.45	8.23355019548102	-5.16567023236519	714.007789185312	-53.6392639879258	7.59812490293672	2.09667527240058	2.77030724017075	0.000469493879341847	0.0123161429132751
0.46	8.23424340584934	-5.18391466374088	714.062385970918	-53.6332466533606	7.60276779309171	2.09222744211986	2.7660216716826	0.000475944028254677	0.0122994967125884
0.47	8.23602896931515	-5.19820917224521	714.121808610141	-53.6228017011154	7.60749382762685	2.08740882661419	2.76134999219364	0.00048241331141992	0.0122761028912996
0.48	8.23893783828057	-5.20822024151543	714.182788933609	-53.6075742591965	7.61189795678873	2.08250991276092	2.75657724512682	0.000488373547331392	0.0122458052942717
0.49	8.24302905035509	-5.21383869947856	714.242043433343	-53.5874077401059	7.61557905785445	2.07781030547255	2.75198436896147	0.000493303819291893	0.0122087279334182
0.5	8.24838559095905	-5.21517389535317	714.296426160494	-53.5623675606684	7.618158867075	2.07356455746928	2.74783395065537	0.000496715075746426	0.0121652920562181
0.51	8.25510562168842	-5.21253377639609	714.3430743915	-53.5327519420897	7.61929965194313	2.06999046240741	2.74435779252562	0.000498172944552079	0.012116215907495
0.52	8.263290292958	-5.20639270454388	714.379539989005	-53.4990890044294	7.61871963096385	2.06726014504228	2.74174672509103	0.000497317468237514	0.0120624968276118
0.53	8.27302949771775	-5.19734958547592	714.403900144139	-53.4621201723715	7.61620531576117	2.06549412581378	2.74014297202134	0.000493878705328868	0.0120053763675536
0.54	8.28438694153462	-5.18607943166732	714.414842268299	-53.4227706994155	7.61162017000533	2.06475839123481	2.73963524582624	0.000487687446696014	0.0119462900900847
0.55	8.29738582014281	-5.17328181605057	714.411719136989	-53.3821088506431	7.60490923296212	2.06506436943118	2.74025662781626	0.000478680639412938	0.0118868046112776
0.56	8.31199623196899	-5.15962977762488	714.394571895794	-53.3412959209289	7.59609962197937	2.06637159433965	2.7419851662632	0.000466901465457898	0.0118285451715958
0.57	8.32812523650165	-5.14572261369373	714.36412013411	-53.301529774189	7.58529708717449	2.06859274366647	2.74474701553699	0.000452494360747466	0.0117731175742302
0.58	8.34561022617833	-5.13204564947625	714.321719831845	-53.2639849468204	7.57267902375551	2.07160065554943	2.74842183938594	0.000435695556403101	0.0117220286657572
0.59	8.36421603371647	-5.11893954261268	714.269291509863	-53.2297525504016	7.5584845367557	2.07523686771987	2.75285011674725	0.000416819958620144	0.0116766096471833
0.6	8.38363596803506	-5.10658099714031	714.209222298234	-53.1997832290348	7.54300228789547	2.07932118176979	2.75784192187586	0.000396245342331968	0.011637946389833
0.61	8.40349677378334	-5.09497597689936	714.144246820859	-53.174836277345	7.52655692846411	2.08366173497298	2.76318670524451	0.000374394910638327	0.0116068205982764
0.62	8.42336734917368	-5.08396567491991	714.077312737068	-53.1554377153002	7.50949493473107	2.08806506397324	2.76866357995363	0.000351719267754959	0.0115836651288634
0.63	8.44277093495867	-5.07324466705189	714.011437448576	-53.1418496614916	7.49217061790832	2.09234566904232	2.77405162145675	0.000328678775992484	0.0115685360631486
0.64	8.46120039879904	-5.06238990623172	713.94956285328	-53.1340527691339	7.47493298807191	2.09633463415214	2.77913971584889	0.000305727130621406	0.0115611032839857
0.65	8.47813617418515	-5.05089854383514	713.894415095322	-53.1317428161277	7.45811402303859	2.09988692520889	2.78373554163131	0.000283296808048188	0.011560660348668
0.66	8.49306635904729	-5.03823203374812	713.848376022346	-53.1343418042155	7.44201874323598	2.10288707347624	2.78767333793135	0.000261786842082196	0.0115661534443869
0.67	8.50550842335405	-5.02386361026712	713.813372523353	-53.1410231586913	7.42691733671423	2.10525304910964	2.79082019344099	0.000241553179619056	0.0115762281972354
0.68	8.51503190656617	-5.00732604895547	713.790789100551	-53.1507498682361	7.41303942812108	2.10693823530355	2.79308067882011	0.000222901678067199	0.0115892921403924
0.69	8.52128139843617	-4.9882566252977	713.781407952175	-53.1623237044178	7.40057045281652	2.10793152050633	2.79439973475309	0.000206083645864517	0.0116035897835931
0.7	8.52399899025864	-4.96643637399607	713.785379547087	-53.1744430515411	7.38964999020425	2.10825562787354	2.79476381244203	0.000191293703323532	0.0116172865153279
0.71	8.5230452654864	-4.94182110704904	713.802225204137	-53.1857663960381	7.38037183298507	2.10796389126661	2.79420033824896	0.000178669657603736	0.0116285570560405
0.72	8.51841778296481	-4.91456214809398	713.830871609449	-53.1949782008241	7.37278552194311	2.1071357601202	2.79277563604381	0.000168294041891351	0.0116356738999105
0.73	8.5102659130396	-4.88501535393343	713.869715583753	-53.2008537461668	7.36689905645675	2.10587136715676	2.79059148776223	0.000160196960031661	0.011637091156706
0.74	8.49890084001321	-4.85373768667352	713.91671582935	-53.2023195663265	7.36268249425378	2.10428552064255	2.78778054450407	0.000154359896433417	0.0116315194404353
0.75	8.48479956764885	-4.82147133304408	713.969506927816	-53.198506350373	7.36007217377645	2.10250148595626	2.78450081836201	0.000150720188361134	0.0116179879380523
0.76	8.46860187807749	-4.78911610099088	714.025529611079	-53.1887915935436	7.3589753224163	2.10064490088901	2.78092949120858	0.000149175905211563	0.0115958905023482
0.77	8.45109941207617	-4.75769151705191	714.082170370715	-53.1728298577261	7.35927484804711	2.09883812828194	2.77725627357156	0.000149590929739674	0.0115650135060846
0.78	8.43321636384359	-4.72829066227243	714.136902871387	-53.1505691911724	7.36083414531473	2.09719529276485	2.77367653725781	0.0001518000840923	0.0115255442144564
0.79	8.41598170769775	-4.70202828357565	714.18742344399	-53.1222530254778	7.36350177931742	2.09581818096312	2.77038443202652	0.000155614185711849	0.0114780595165527
0.8	8.40049337650607	-4.67998607083963	714.231773177533	-53.0884076644795	7.36711593659411	2.09479311263271	2.7675661813448	0.000160824953438461	0.011423495935968
0.81	8.38787535939576	-4.66315817396861	714.268439804149	-53.0498162559228	7.3715085570709	2.09418881983321	2.76539373647431	0.00016720971269407	0.0113631028492897
0.82	8.37922923760067	-4.65240003489741	714.296433648176	-53.0074808455207	7.37650908199998	2.09405530800384	2.76401895266646	0.000174535871525506	0.0112983817174915
0.83	8.37558218539207	-4.64838342378051	714.315333330295	-52.9625747127464	7.38194777343036	2.09442362115725	2.76356843641365	0.000182565157744017	0.0112310148276096
0.84	8.37783388103935	-4.65156020588361	714.325298600783	-52.9163876448492	7.3876585815414	2.0953063963338	2.76413919840802	0.000191057622289208	0.0111627875118005
0.85	8.38670505886019	-4.66213684756011	714.327049524389	-52.8702670969563	7.39348155768143	2.09669907114399	2.76579523259505	0.000199775425457743	0.0110955080348046
0.86	8.40269055563884	-4.68006102912074	714.32181314584	-52.8255583001357	7.39926483266412	2.09858160195405	2.76856512660402	0.000208486430224189	0.0110309293125724
0.87	8.42601964442118	-4.70502101145028	714.311240620014	-52.7835463164538	7.40486620035001	2.10092055659038	2.77244079167774	0.000216967629469343	0.010970676354868
0.88	8.45662620280942	-4.73645764986649	714.297299489409	-52.7454028124844	7.41015436370186	2.1036714605635	2.77737737954019	0.000225008430322918	0.0109161828393396
0.89	8.49413084395655	-4.77358821304113	714.282147239625	-52.712139952709	7.4150099121003	2.10678129520168	2.78329442786886	0.00023241380822835	0.0108686395635587
0.9	8.53783657319659	-4.81544049505023	714.267993381949	-52.6845733321152	7.41932610284601	2.11019106515005	2.79007824377472	0.000239007325841374	0.0108289567346839
0.91	8.58673885935552	-4.86089514747122	714.256958039747	-52.6632953086158	7.42300951541889	2.11383836749598	2.79758549503021	0.00024463398878926	0.010797741199496
0.92	8.63955027192416	-4.90873373994533	714.250935310874	-52.6486594984413	7.42598063435112	2.11765990264442	2.80564793167557	0.000249162884206689	0.0107752888478986
0.93	8.69473908061078	-4.95768980498253	714.25146952082	-52.6407765983934	7.4281743969022	2.12159386697547	2.81407810721745	0.000252489522378664	0.0107615915950441
0.94	8.75058048790103	-5.00650004715516	714.259651871124	-52.6395211312698	7.42954071759015	2.12558216009129	2.8226759114682	0.000254537780758105	0.0107563576087095
0.95	8.8052185087778	-5.05395299706784	714.276043945763	-52.6445482028428	7.4300449762254	2.12957232765637	2.831235670169	0.000255261336845789	0.0107590428372218
0.96	8.85673595813783	-5.09893265384286	714.300633107347	-52.6553189315334	7.42966843278226	2.13351914837469	2.83955351515897	0.000254644474764401	0.010768891435107
0.97	8.90322958078397	-5.14045506334937	714.332823057997	-52.671132879126	7.42840851423521	2.13738576521546	2.84743468903206	0.000252702161230712	0.0107849823922115
0.98	8.94288707775159	-5.17769629186837	714.371460839834	-52.6911655792626	7.42627890755618	2.14114426128302	2.85470042605145	0.00024947930972777	0.0108062795488648
0.99	8.97406265475594	-5.21001083942338	714.414899407588	-52.7145091308302	7.42330939043797	2.14477559358416	2.86119405181812	0.00024504918502853	0.0108316822159244
1	8.99534774534275	-5.23694015368181	714.461092736402	-52.7402137919398	7.41954533672545	2.14826882563859	2.86678597131603	0.00023951094045864	0.0108600737973892
1.01	9.00563373859483	-5.2582115139263	714.507718356562	-52.7673285701149	7.41504684556816	2.15161964250477	2.87137726946856	0.000232986323156485	0.0108903661123125
1.02	9.00416385973803	-5.27372811720433	714.552320362789	-52.7949389469699	7.40988745964869	2.1548281870338	2.87490172824611	0.000225615623561343	0.0109215375065228
1.03	8.99057179812214	-5.28355168204791	714.59246445425	-52.8222000916037	7.40415245578551	2.1578963194079	2.87732616463595	0.000217552980291972	0.0109526633067265
1.04	8.96490523322601	-5.28787926212058	714.625895535954	-52.848364196286	7.39793670822769	2.1608244668558	2.87864910673763	0.000208961177324895	0.0109829376738555
1.05	8.92763305400206	-5.28701621339417	714.650687944641	-52.8728009003075	7.39134213924753	2.16360828943798	2.87889794130654	0.000200006085273553	0.0110116864341831
1.06	8.87963577454535	-5.28134737288242	714.665378514811	-52.8950101414977	7.3844747825315	2.16623543346476	2.87812477480246	0.000190850902655339	0.0110383709822932
1.07	8.82217939050911	-5.27130848198203	714.669073497373	-52.9146271764034	7.37744149302193	2.16868266985489	2.87640134128643	0.000181650348056875	0.0110625838372546
1.08	8.75687366343002	-5.25735972881934	714.661521765113	-52.9314199234585	7.37034634411881	2.17091371571788	2.87381335565504	0.000172544943207885	0.0110840368712545
1.09	8.68561652947818	-5.23996300514717	714.6431487199	-52.9452791899486	7.36328676216046	2.17287801117895	2.87045474339642	0.000163655514161093	0.0111025435986317
1.1	8.61052696965789	-5.21956409469093	714.615047744568	-52.9562027221598	7.35634946169054	2.17451067020104	2.86642217503351	0.000155078027254082	0.0111179971947097
1.11	8.53386921586997	-5.19658055772197	714.578928765123	-52.9642743466493	7.34960626546632	2.17573374686471	2.86181029478878	0.000146878871954583	0.011130346092918
1.12	8.45797157060679	-5.17139558205048	714.537026322879	-52.9696397275705	7.34310992148233	2.17645886268628	2.85670796218198	0.000139090706460655	0.0111395690746023
1.13	8.38514336220334	-5.14435756785298	714.491972299678	-52.9724804317248	7.33689006466813	2.17659113351283	2.85119572862542	0.000131708994597631	0.0111456517136844
1.14	8.31759362523412	-5.11578473860879	714.446640890251	-52.972988055801	7.33094951046318	2.17603422508727	2.84534465728139	0.000124689382484923	0.0111485658700218
1.15	8.25735497928019	-5.08597365829199	714.403975388041	-52.971340122256	7.32526110626583	2.17469626388294	2.83921647364473	0.000117946086762589	0.0111482536507463
1.16	8.20621588234398	-5.0552102184556	714.366807692487	-52.9676792927079	7.31976539838015	2.172496243433	2.83286491721499	0.000111351487104746	0.0111446168954555
1.17	8.16566397265127	-5.02378146524078	714.337682052438	-52.9620971901414	7.31436938945835	2.16937050431449	2.82633806151658	0.000104737127339364	0.0111375128129643
1.18	8.1368426106569	-4.99198658499561	714.318694384831	-52.9546237810585	7.30894665787413	2.16527883462896	2.81968128955495	9.7896324571866e-05	0.0111267559334841
1.19	8.12052202788809	-4.96014546707822	714.311357563375	-52.945222869717	7.30333908078416	2.16020974125467	2.81294056133518	9.05885580266535e-05	0.0111121260724183
1.2	8.11708572457678	-4.92860351026813	714.316501430181	-52.9337938268909	7.29736034413599	2.15418448137919	2.80616559327683	8.25457546503837e-05	0.0110933815625945
