Time [s]	GRFml [N]	GRFap [N]	GRFv [N]	Mml [N.m]	Map [N.m]	Mv [N.m]	Mfree [N.m]	COPml [m]	COPap [m]
0.01	11.034217031568	4.06083836796014	564.619464957696	-45.9137778623723	-4.32135474882587	-1.52183830534453	-0.59330512599504	0.00183954675395859	-0.0126442316938283
0.02	10.6098789075113	4.58208472076143	564.574752123392	-46.2108192171179	-4.39998713603947	-1.58264967602849	-0.678322649238059	0.00170093301923182	-0.0121085512960239
0.03	10.1941477109121	5.09834770767616	564.529102033474	-46.5091799310218	-4.47705040567724	-1.64294898449616	-0.762460981500787	0.00156540505261798	-0.0115707295838808
0.04	9.7945860827078	5.60342097026755	564.482642954479	-46.8082634109861	-4.55108113475791	-1.70204004878513	-0.844467284017645	0.00143551581720169	-0.0110318531319382
0.05	9.41816186044056	6.09155470986452	564.435659695627	-47.1075832325744	-4.62071471261541	-1.75928104245247	-0.923176027324054	0.00131362779395517	-0.0104928172717803
0.06	9.0709712881051	6.55760857993564	564.388618832563	-47.406688403541	-4.68473884557417	-1.81410119001732	-0.997548961799594	0.00120182302101034	-0.00995446542653644
0.07	8.75800652569988	6.99717649193967	564.342177018202	-47.7050925307328	-4.74213962493778	-1.86601396472682	-1.06670830125849	0.00110182709668268	-0.00941772017368558
0.08	8.48297937587365	7.40667925830316	564.297170343947	-48.0022132534871	-4.79213791543389	-1.91462642326075	-1.12996182066283	0.00101495056201684	-0.0088836938321244
0.09	8.24820964228778	7.78342249915871	564.254584647769	-48.2973267660328	-4.83421442762111	-1.95964453675342	-1.18681909463357	0.000942049997911894	-0.00835376937687392
0.1	8.05458258857129	8.12561889674356	564.21550856095	-48.5895405371954	-4.86812251817923	-2.00087459750808	-1.23699860829248	0.000883510020870617	-0.00782964588893315
0.11	7.90157585121614	8.43237560125224	564.181072753515	-48.8777856127582	-4.89388846857144	-2.03822097902093	-1.28042592898998	0.000839246217984337	-0.0073133462073889
0.12	7.78735214693923	8.70364926443609	564.152380131659	-49.1608282793753	-4.91179967939346	-2.07168068921014	-1.31722352349369	0.000808727993845753	-0.00680718768977406
0.13	7.70891045877519	8.94017268930577	564.130432558238	-49.4372994677824	-4.92238184384221	-2.10133527317872	-1.34769313707394	0.000791019363732569	-0.00631371979549744
0.14	7.66228530510121	9.14335833331597	564.116059959551	-49.7057391341842	-4.92636669538965	-2.12734068774584	-1.37229192036277	0.000784834957010911	-0.00583563444311692
0.15	7.64278136495065	9.31518480683476	564.109857448146	-49.9646520124592	-4.92465233692745	-2.14991578601411	-1.39160369882143	0.000788607915212959	-0.00537565667598736
0.16	7.64522926890515	9.45807301521357	564.112135379578	-50.2125705851815	-4.91825843584421	-2.16933002188514	-1.40630692725177	0.000800565989998789	-0.00493642408074495
0.17	7.66424782463253	9.5747586799392	564.122886157753	-50.4481208710671	-4.90827870569433	-2.18589092096328	-1.41714095357142	0.000818811965724786	-0.0045203636664998
0.18	7.69449832512218	9.66816765283718	564.141770226043	-50.6700866508448	-4.8958330931419	-2.19993177735904	-1.42487222538629	0.000841404540251965	-0.00412957459486012
0.19	7.73091782206947	9.74129974719636	564.168122164257	-50.8774680246961	-4.88202195920804	-2.21179993801065	-1.4302620037175	0.000866435981237545	-0.00376572434334529
0.2	7.7689202198402	9.79712581557889	564.200976293304	-51.0695306782099	-4.86788430315809	-2.22184593906931	-1.43403699847498	0.00089210321515735	-0.00342996469273842
0.21	7.80455659649166	9.83850158861105	564.239109798419	-51.2458428918869	-4.85436174673078	-2.2304136723921	-1.43686411444037	0.00091676948158376	-0.0031228724614617
0.22	7.83462909532694	9.86810044574352	564.28110022477	-51.4062981201087	-4.84226959966955	-2.23783169099298	-1.43933020710896	0.000939014271901082	-0.00284441827174352
0.23	7.85675584377005	9.88836591491562	564.325393351889	-51.5511218452781	-4.83227588966628	-2.24440571361264	-1.44192741478255	0.00095766994263596	-0.0025939649185672
0.24	7.86938743388375	9.9014833869847	564.370376956183	-51.6808623359881	-4.82488878566775	-2.25041236001511	-1.44504428233689	0.00097184411839071	-0.00237029520741956
0.25	7.8717783410623	9.90936936686159	564.414455828971	-51.7963658581299	-4.82045239653698	-2.25609413672745	-1.4489625508978	0.000980927744081891	-0.00217166750437435
0.26	7.86391909101606	9.91367563599569	564.456123605166	-51.8987377586117	-4.81915050869587	-2.26165569198661	-1.45385918256262	0.000984589374334302	-0.00199589576699896
0.27	7.84643687435045	9.9158050210458	564.494027425066	-51.9892916184328	-4.82101745525911	-2.26726136178305	-1.4598129416992	0.000982756962055032	-0.00184044955514913
0.28	7.82047356253473	9.91693508105035	564.527022134113	-52.0694893145698	-4.82595500077966	-2.27303402928827	-1.46681467821557	0.000975588992399136	-0.00170256850938456
0.29	7.78755065809387	9.91804594793569	564.554211552088	-52.1408753037991	-4.83375389199569	-2.27905531195282	-1.474780358894	0.000963437270637175	-0.00157938507759987
0.3	7.74943062422511	9.91994876903214	564.574975244876	-52.2050087198039	-4.84411857400761	-2.2853670704746	-1.48356586747918	0.000946803987804657	-0.0014680489047984
0.31	7.70798333931014	9.92331167201929	564.588980146618	-52.2633969417548	-4.85669350715608	-2.29197420044444	-1.49298263297782	0.000926295840615852	-0.00136584630126969
0.32	7.66506520337512	9.92868085234525	564.596177256322	-52.3174341442335	-4.87108954232934	-2.29884862213122	-1.50281323444856	0.000902577966886533	-0.00127030857798081
0.33	7.62241680938952	9.93649520776561	564.596784430742	-52.368347984293	-4.88690891705465	-2.30593433021727	-1.51282625358783	0.000876330280880725	-0.00117930377052505
0.34	7.58158322413817	9.94709384294082	564.591256985187	-52.4171570443033	-4.90376761296919	-2.31315330866694	-1.52278978846622	0.000848208471592053	-0.00109110732621039
0.35	7.54385895057847	9.96071666423345	564.580248374952	-52.4646409639703	-4.92131405480768	-2.32041206249032	-1.53248319002626	0.000818811487253825	-0.00100444864032849
0.36	7.51025771214103	9.97749910786233	564.564563647947	-52.5113244066883	-4.93924341637065	-2.32760847407411	-1.54170672777993	0.000788656804564462	-0.000918531813493093
0.37	7.48150544224819	9.99746272726027	564.545108623415	-52.5574751663658	-4.95730711210593	-2.33463866221619	-1.55028902604842	0.000758164208676084	-0.000833030562812184
0.38	7.45805339091809	10.0205038537195	564.522837855863	-52.6031158863599	-4.97531737452702	-2.34140351071281	-1.55809223308056	0.000727648228754202	-0.000748058748903241
0.39	7.44010715850127	10.0463828005209	564.498704384123	-52.6480480863417	-4.99314712796098	-2.34781454213775	-1.56501499010374	0.000697318821286859	-0.000664119373903566
0.4	7.42766678636236	10.0747160868669	564.473614044394	-52.6918865246784	-5.0107256492529	-2.35379884127013	-1.57099335425677	0.000667289402796973	-0.000582036069820185
0.41	7.42057279401283	10.1049739178339	564.448386751282	-52.7341014032476	-5.02803073948392	-2.35930277977636	-1.57599989724526	0.000637590932693643	-0.000502871958615952
0.42	7.41855323688554	10.1364846955793	564.423726638252	-52.7740655769404	-5.04507830437162	-2.36429435629819	-1.58004124957239	0.000608190455663654	-0.000427841277485463
0.43	7.42126742289298	10.1684477000346	564.400202324512	-52.8111037767719	-5.06191034613786	-2.36876404030384	-1.5831543880677	0.000579012342820737	-0.000358219305107058
0.44	7.42834279704729	10.1999543246149	564.378237874538	-52.844540895259	-5.07858240260824	-2.37272408976287	-1.58540197294522	0.000549960424753842	-0.000295255905538153
0.45	7.43940258947479	10.230017454297	564.358114283758	-52.873746604423	-5.09515143168667	-2.37620639757544	-1.5868670319564	0.00052093928245372	-0.000240097459473163
0.46	7.45408301826807	10.2576078031715	564.339980609762	-52.8981739579217	-5.11166503749188	-2.37925900536533	-1.58764726702433	0.000491873141551309	-0.000193721132231109
0.47	7.47204003589209	10.2816953559812	564.323873226064	-52.9173901376975	-5.12815277877078	-2.38194150141343	-1.58784922790178	0.000462721083423193	-0.00015688440365183
0.48	7.49294670229593	10.3012935427252	564.309741155086	-52.9310981038457	-5.14462010410902	-2.38431958795904	-1.58758256329379	0.000433487621595034	-0.000130091635627327
0.49	7.51648316891986	10.3155034611607	564.297475081623	-52.9391485519998	-5.16104523708023	-2.38645915785587	-1.58695452766202	0.000404228069337513	-0.000113578259910513
0.5	7.54232189572402	10.3235553738249	564.286937487246	-52.9415422322018	-5.17737910348098	-2.38842025809274	-1.58606489559663	0.000375048519554458	-0.000107312011392857
0.51	7.57011105492336	10.3248448481194	564.277991393348	-52.9384232953301	-5.1935481673272	-2.39025133509546	-1.5850014174062	0.000346100646808118	-0.000111009582515836
0.52	7.59945908662091	10.3189612636686	564.270525450066	-52.9300648699599	-5.20945983610483	-2.39198415205681	-1.58383593946113	0.000317571901110827	-0.000124166194477623
0.53	7.62992307934469	10.3057069460796	564.264473535886	-52.9168485022421	-5.22500992066597	-2.39362974097264	-1.58262130869863	0.000289671973955609	-0.00014609491847932
0.54	7.66100309660523	10.2851058514444	564.259827596861	-52.8992393898301	-5.24009150056331	-2.39517570204947	-1.58138917868692	0.000262616662161758	-0.000175972167904159
0.55	7.69214382560558	10.2574014629812	564.256643101051	-52.8777594927866	-5.25460445832467	-2.39658509248222	-1.58014882987344	0.000236610421414327	-0.000212885635681809
0.56	7.7227440682418	10.2230443074895	564.255037151341	-52.8529606042431	-5.2684649102367	-2.39779705834996	-1.57888710410987	0.000211828980044479	-0.000255881068477556
0.57	7.75217371660834	10.1826701935759	564.255179925719	-52.8253993159307	-5.28161377785893	-2.39872926176582	-1.57756952904726	0.000188403370433056	-0.000304004632190838
0.58	7.77979704251005	10.1370708612058	564.257280641144	-52.7956155329282	-5.29402381211571	-2.39928204563593	-1.57614266887984	0.000166406631166153	-0.000356338197475339
0.59	7.805000459779	10.0871591693298	564.261569619847	-52.7641158013752	-5.30570449600052	-2.39934416638469	-1.57453768364374	0.000145844243610816	-0.000412025612462244
0.6	7.82722244894618	10.0339312057496	564.268278245915	-52.7313622431038	-5.31670440555524	-2.39879981727958	-1.57267501166156	0.000126649102937982	-0.00047028887564865
0.61	7.84598310314594	9.97842776799698	564.277618625432	-52.697767378095	-5.32711079222486	-2.39753656829678	-1.57047001288216	0.000108681501768553	-0.000530434012240302
0.62	7.86091077427381	9.92169753960997	564.28976461528	-52.6636945980938	-5.33704635112993	-2.39545376949635	-1.56783933086393	9.17342449574567e-05	-0.000591847327713627
0.63	7.87176355671246	9.86476399232728	564.304835592168	-52.6294635715657	-5.34666334579432	-2.39247090981483	-1.56470765541689	7.55426404835686e-05	-0.000653983501118935
0.64	7.8784438072309	9.8085976140547	564.322883937387	-52.595359447871	-5.3561354560778	-2.38853539724002	-1.56101450449312	5.97987501003202e-05	-0.000716347632148923
0.65	7.88100451085869	9.75409453714564	564.343886765595	-52.5616444185153	-5.36564788821501	-2.38362923322931	-1.55672060062536	4.41689609012984e-05	-0.000778473824381426
0.66	7.87964699882225	9.70206206894158	564.367741981776	-52.5285700097496	-5.37538642084075	-2.37777409577386	-1.55181340086256	2.83136802758932e-05	-0.000839903138969977
0.67	7.87471023662629	9.65321105480982	564.39426835932	-52.4963884386461	-5.38552614784517	-2.37103442125512	-1.54631135476853	1.19077831767442e-05	-0.000900163769673543
0.68	7.8666525614634	9.60815447804548	564.4232090344	-52.465361468546	-5.39622071031273	-2.36351818234365	-1.5402665152426	-5.33963223089094e-06	-0.000958756068996272
0.69	7.8560273011304	9.56741125935659	564.454237633648	-52.4357654427165	-5.4075927822151	-2.35537519240309	-1.53376521138761	-2.36675884506907e-05	-0.0010151446108565
0.7	7.84345410893158	9.53141389059367	564.486966203233	-52.4078915392438	-5.41972648908784	-2.34679291871175	-1.52692660787348	-4.32489354747316e-05	-0.00106875883887178
0.71	7.82958807592993	9.50051834176862	564.520954180276	-52.3820407475348	-5.43266230141958	-2.337989947955	-1.51989911446454	-6.41804402832825e-05	-0.0011190030676273
0.72	7.81508872753332	9.47501462498991	564.555717818961	-52.3585135808132	-5.44639476502624	-2.32920740717942	-1.51285476286701	-8.64779538243196e-05	-0.00116527573640553
0.73	7.80059088764244	9.45513648063428	564.590739718447	-52.3375950675204	-5.46087322291612	-2.32069879035626	-1.50598182375359	-0.000110076969181925	-0.00120699692872003
0.74	7.78667912692472	9.44106885690353	564.625478355436	-52.3195360630358	-5.47600546313904	-2.312718763618	-1.49947608132881	-0.000134838477751817	-0.00124364233824127
0.75	7.7738671388621	9.43295216254141	564.65937775728	-52.3045323483816	-5.49166401196311	-2.30551161083045	-1.49353130261327	-0.000160559630441082	-0.00127478115198468
0.76	7.76258294978212	9.43088265617039	564.691877622739	-52.2927032963907	-5.5076945981369	-2.29930002704434	-1.48832952155779	-0.000186988350684375	-0.0013001147967653
0.77	7.7531604089536	9.43490876254872	564.722424277349	-52.2840720584508	-5.52392615686171	-2.29427496484711	-1.48403179465965	-0.000213840754572238	-0.00131951320337856
0.78	7.74583695968084	9.44502354235766	564.750482822657	-52.2785492378044	-5.54018163330828	-2.29058718542759	-1.48077006932979	-0.000240820033850526	-0.00133304521536957
0.79	7.74075729254882	9.46115395478221	564.775550702167	-52.2759218628248	-5.55628879305619	-2.28834106386315	-1.47864073793082	-0.000267635365320401	-0.00134100001532947
0.8	7.73798214885651	9.48314791076449	564.797172675364	-52.2758491636224	-5.57209025426799	-2.28759105234912	-1.47770033324641	-0.000294019431499835	-0.00134389694905726
0.81	7.73750128762403	9.51076039362247	564.814956891492	-52.2778662086989	-5.5874520226669	-2.28834102522394	-1.477963663981	-0.000319743269105057	-0.00134248186296718
0.82	7.73924945649375	9.54364010306264	564.828591423169	-52.2813959074905	-5.60226992995226	-2.29054652833593	-1.4794045045268	-0.000344627391810886	-0.00133770898047454
0.83	7.74312411168065	9.58131814591837	564.837860298605	-52.2857692706899	-5.61647353969602	-2.2941197475041	-1.48195875723408	-0.000368548441951291	-0.00133070836202973
0.84	7.74900360689356	9.6232002473623	564.842657803737	-52.2902531899217	-5.63002727936758	-2.29893681266871	-1.48552981460674	-0.000391440986550837	-0.0013227400452776
0.85	7.75676460631916	9.66856379290939	564.842999652621	-52.2940844003778	-5.64292876810568	-2.30484688178636	-1.4899956796855	-0.00041329445696736	-0.00131513696782364
0.86	7.7662975636313	9.71656074501292	564.839029580259	-52.2965077712911	-5.65520452130818	-2.31168231606655	-1.49521726993023	-0.000434145608011029	-0.0013092396597178
0.87	7.77751924122923	9.76622712642521	564.831020020503	-52.2968166712162	-5.66690340929278	-2.31926917742463	-1.50104724446715	-0.000454067212598924	-0.00130632638920598
0.88	7.79038141792113	9.81649934998844	564.819365803718	-52.294392911038	-5.67808841372391	-2.32743725775435	-1.5073386636752	-0.000473153986335991	-0.00130754290027306
0.89	7.80487514731579	9.86623723020834	564.804570239819	-52.2887436993818	-5.68882735005169	-2.33602889075207	-1.51395281600008	-0.000491506932893068	-0.0013138360579831
0.9	7.82103018154899	9.91425306775357	564.787223520384	-52.2795331616653	-5.69918329789713	-2.34490589832263	-1.5207656269807	-0.000509217402513926	-0.00132589560121263
0.91	7.83890946169878	9.95934578616065	564.767974039952	-52.2666062705355	-5.70920549898731	-2.35395417769722	-1.52767219262564	-0.000526352156882346	-0.00134410779637333
0.92	7.85859888912875	10.0003387502767	564.747493946512	-52.2500034931755	-5.71892144292694	-2.36308563033682	-1.53458914261058	-0.00054294063619769	-0.0013685241148024
0.93	7.88019291737423	10.0361196328142	564.726440917542	-52.2299650485154	-5.72833076809303	-2.37223735391201	-1.5414547246725	-0.000558965438379324	-0.00139884716407587
0.94	7.90377682290873	10.065680535605	564.70541874645	-52.2069243426985	-5.73740146561522	-2.38136824629649	-1.54822669487808	-0.000574356762130563	-0.00143443504879123
0.95	7.92940680181133	10.0881565232352	564.684939740864	-52.1814908647499	-5.74606869963556	-2.39045338701069	-1.5548782836101	-0.000588991256578688	-0.00147432419034756
0.96	7.95708927268169	10.1028607865293	564.665392113265	-52.1544235231783	-5.75423636039624	-2.39947674919025	-1.561392669422	-0.000602695385166035	-0.00151726947567497
0.97	7.986760919833	10.1093148107919	564.647015437377	-52.1265960358671	-5.76178126335467	-2.40842293858156	-1.56775651950079	-0.000615253076461155	-0.00156179951071986
0.98	8.01827106470468	10.1072721609087	564.629886827135	-52.0989565029107	-5.76855971297521	-2.4172687435624	-1.5739532362857	-0.000626417124736066	-0.00160628380029507
0.99	8.05136789438995	10.0967347903185	564.613919776338	-52.0724836569869	-5.77441597862904	-2.42597530458576	-1.57995657827616	-0.000635923540659646	-0.00164900792633893
1	8.08568989997602	10.0779611102636	564.598876617911	-52.0481424728082	-5.77919209450211	-2.43448167066742	-1.58572529673935	-0.000643507854728531	-0.00168825230191479
1.01	8.12076358994353	10.0514653978556	564.584394396832	-52.0268418149737	-5.78273830480203	-2.44270040768929	-1.59119935070947	-0.000648922254696756	-0.00172236987074254
1.02	8.15600816118812	10.0180084580576	564.570022703575	-52.0093966161361	-5.78492343538273	-2.45051576634866	-1.59629813642239	-0.000651952398570509	-0.00174985821400309
1.03	8.19074735746018	9.9785797720168	564.555270807806	-51.9964967232304	-5.78564448473805	-2.45778471872476	-1.60092100406792	-0.000652432785865307	-0.00176942190940879
1.04	8.22422825455215	9.93437165352224	564.539660394397	-51.9886840593476	-5.78483478886536	-2.46434094704336	-1.60495014749847	-0.000650259685441917	-0.00178002163438655
1.05	8.25564622036845	9.88674619232212	564.522779456654	-51.9863391626314	-5.78247021999066	-2.47000163367518	-1.60825575639764	-0.000645400797442111	-0.00178090737086045
1.06	8.28417484451689	9.83719598650655	564.504332543319	-51.9896775265952	-5.77857301986596	-2.47457667570793	-1.61070313123947	-0.000637901055227623	-0.0017716340951624
1.07	8.3089992527668	9.78729985681377	564.484182648061	-51.9987555249669	-5.77321303336061	-2.47787974780346	-1.61216129436857	-0.000627884233963495	-0.0017520594553551
1.08	8.32935094791446	9.73867489456996	564.462380588844	-52.0134851024126	-5.76650628503618	-2.47974047857868	-1.61251249889432	-0.000615550307426899	-0.00172232407743651
1.09	8.34454217344053	9.69292632220081	564.439178715343	-52.0336558882423	-5.75861101748291	-2.48001690023478	-1.61166195083519	-0.000601168765342055	-0.00168281622930283
1.1	8.35399779264042	9.65159673951067	564.415027122214	-52.0589629732688	-5.74972147299539	-2.47860728624678	-1.60954702509895	-0.000585068352399123	-0.00163412353925091
1.11	8.35728281478187	9.61611638718114	564.390552110093	-52.0890383007119	-5.74005983857645	-2.47546051058805	-1.60614527411356	-0.000567623901252834	-0.00157697525486429
1.12	8.35412397048022	9.58775607674145	564.366518271618	-52.1234834709785	-5.72986687925448	-2.47058414237219	-1.60148059663864	-0.000549241092084325	-0.00151217909059312
1.13	8.34442411897773	9.5675844083252	564.343777121304	-52.1619017486303	-5.71939184992583	-2.46404962559146	-1.59562704714661	-0.000530340071150239	-0.00144055701452706
1.14	8.32826872930564	9.55643081849786	564.32320647653	-52.2039271810869	-5.70888229806307	-2.4559940745561	-1.58870991391003	-0.000511338894703742	-0.00136288434883082
1.15	8.30592417801307	9.55485586580328	564.305645697074	-52.2492489791805	-5.69857434850487	-2.44661842846613	-1.58090386543366	-0.000492637731877103	-0.00127983630279534
1.16	8.27782810806938	9.56312996873789	564.291832306841	-52.2976296510434	-5.68868400007528	-2.43618193822316	-1.5724281481845	-0.000474604664355623	-0.00119194553799294
1.17	8.24457255747992	9.58122155977308	564.282345408914	-52.3489158007451	-5.67939986767517	-2.42499318946238	-1.5635390019302	-0.000457563770217471	-0.00109957361337631
