Time [s]	GRFml [N]	GRFap [N]	GRFv [N]	Mml [N.m]	Map [N.m]	Mv [N.m]	Mfree [N.m]	COPml [m]	COPap [m]
0.01	-2.46742584246221	-1.52837069454703	576.042874992463	-3.29104683801269	0.692238463795187	0.678063776202505	-0.662247460602571	0.0121170423507788	0.00263521997267602
0.02	-2.56977233500052	-1.19780640140894	577.849193527507	-3.33657961461506	0.714770863387411	0.649677418913497	-0.633471901889857	0.0120591209799916	0.0026745931735972
0.03	-2.64111184741515	-0.864087280342565	579.316810465936	-3.37859480048759	0.718115644318318	0.623773157856563	-0.607353622395794	0.0120038277836965	0.00268105814509451
0.04	-2.65361331057759	-0.52784546362232	580.162341529601	-3.41379446900116	0.686641037910901	0.602892356460059	-0.586588134581102	0.0119540114831376	0.00262767812343734
0.05	-2.58559957265709	-0.199842122196567	580.181208485628	-3.43967998522015	0.611508058829438	0.58937236831747	-0.57363047872172	0.011911947195178	0.00249900354422516
0.06	-2.4244532498431	0.0986218123052304	579.2704365862	-3.45471739184054	0.492081880933678	0.585028470423863	-0.570363282293664	0.0118792722033599	0.00229351284254437
0.07	-2.16915578238875	0.33957189018369	577.439310555655	-3.45840772856279	0.33566323541719	0.590729760379695	-0.577661484659828	0.0118569570426067	0.00202326124866281
0.08	-1.83171822283445	0.495255074842086	574.80634836179	-3.45136361469845	0.155775508135953	0.606013965154226	-0.595000751137091	0.0118451250761297	0.00171111260501833
0.09	-1.43676517507041	0.54587748544988	571.583052216791	-3.43542669753145	-0.0304733563170249	0.628911069523131	-0.620282064386313	0.0118426724992855	0.00138638835238503
0.1	-1.01888696452533	0.485810350066771	568.047060679819	-3.41374624846154	-0.205325442194726	0.65609633883717	-0.649995173937834	0.0118468612721602	0.001079947442857
0.11	-0.61794969209275	0.326426207518552	564.508912216867	-3.39066035719637	-0.353024473372116	0.683389948381557	-0.679738685621496	0.0118532072272117	0.000819640900294294
0.12	-0.27313621010638	0.0947643192701003	561.27717753964	-3.37124007399618	-0.461759965622984	0.706504378320376	-0.704996230376033	0.0118559521833099	0.000626852313699744
0.13	-0.0168774550406605	-0.171581816287797	558.626217003645	-3.36047665819178	-0.524680326459256	0.721857349012786	-0.721982380829446	0.0118491886782421	0.00051453248479294
0.14	0.130101521785648	-0.431963687834465	556.769658919918	-3.36225723172005	-0.539952029792575	0.727247684057208	-0.72834989820162	0.0118284023517627	0.000486827382871424
0.15	0.161656734180067	-0.650629136290251	555.841423073462	-3.37840394395725	-0.510014320257025	0.722236929413118	-0.723594930277418	0.0117919584656849	0.000540119343701351
0.16	0.0865361423321317	-0.803203968328085	555.885155756682	-3.40808422889638	-0.440304894349825	0.708167073810302	-0.709085377504786	0.0117419985494716	0.000665077020568616
0.17	-0.0738224433695538	-0.880286676350803	556.852416231252	-3.44781969246599	-0.337796379460827	0.687838007760913	-0.687733242099751	0.011684356766435	0.000849169277914785
0.18	-0.289498885889985	-0.887549551862513	558.609670569125	-3.4921606063568	-0.209674748901901	0.664937221390528	-0.663403652333704	0.0116273921605532	0.00107907221561282
0.19	-0.527488919062506	-0.842616882772378	560.953775749531	-3.53490935054356	-0.0624105805720294	0.643346731366175	-0.640188904983558	0.0115799550896573	0.00134249788532953
0.2	-0.757320803837651	-0.769713570484586	563.634925380863	-3.57062513993775	0.0986560494629966	0.626454345511235	-0.621680774330265	0.0115489616912871	0.00162917241476146
0.21	-0.955888221044591	-0.693491298332807	566.384970476639	-3.59606029241565	0.269238520145699	0.616581830062368	-0.610361674562636	0.0115371757518967	0.00193093133117933
0.22	-1.1105949933683	-0.633483749245439	568.947878982327	-3.61117866136779	0.445671621348318	0.614621193813279	-0.607214306343522	0.0115417743963885	0.00224111357555007
0.23	-1.2201631213711	-0.600351500456003	571.108263897271	-3.61948625205927	0.624327060963107	0.619943000058156	-0.611620522367153	0.0115541166719554	0.00255357625836655
0.24	-1.29289165670353	-0.594559513358002	572.713778144523	-3.62754848958088	0.801091345773691	0.630602284739372	-0.621578124956019	0.0115608744891152	0.00286170584747752
0.25	-1.34272976311143	-0.607531660470518	573.687949404145	-3.64375495235612	0.971090401413487	0.643814930915961	-0.634206375125351	0.0115463681072824	0.00315777698251801
0.26	-1.38411375179601	-0.624789659066759	574.031641874495	-3.67658551889699	1.12878308930119	0.656615356703457	-0.646443599480717	0.0114956336209154	0.00343291938685392
0.27	-1.42692643600741	-0.630212552335108	573.813445319456	-3.7327835453525	1.26845775386322	0.666550669037958	-0.655780712022424	0.0113975158086833	0.00367780330163747
0.28	-1.47299704853763	-0.610397594215024	573.151384755969	-3.81589825671346	1.38505900225236	0.672238731292557	-0.660845947289574	0.0112470107623696	0.00388395743122449
0.29	-1.51520264194374	-0.55816229030886	572.189869659954	-3.92558113108327	1.4751648497689	0.673636567207118	-0.661677952884031	0.0110462378703601	0.00404542775328626
0.3	-1.53953472406042	-0.474462150886017	571.076361273353	-4.057811579595	1.53786061385118	0.671936281471567	-0.659601145762403	0.0108037912464813	0.00416033535811972
0.31	-1.52965728093839	-0.36835287300875	569.941721869665	-4.20594355617195	1.57525108761024	0.669112998633245	-0.656732028874768	0.0105327054607061	0.00423186480508675
0.32	-1.47274820854552	-0.255036689131395	568.886849068103	-4.36220875039148	1.59243249709507	0.66725940388796	-0.655262026092494	0.0102476967326539	0.00426834304035623
0.33	-1.36498733424094	-0.152435481219792	567.976475442067	-4.51918835065942	1.59689143334877	0.667913576452825	-0.656738608356061	0.00996253405347847	0.00428232043851906
0.34	-1.21503957335719	-0.0770593235167326	567.239478727821	-4.67082952399425	1.59745911536022	0.671590749080589	-0.661570585653356	0.00968826583151505	0.0042888509500576
0.35	-1.04429480289983	-0.0401193272050179	566.674097327716	-4.81280778297985	1.60306761738754	0.677660705885763	-0.668910365037889	0.00943262798547362	0.00430338315556594
0.36	-0.88340273775254	-0.0448125818718852	566.256177981129	-4.94232002539083	1.6215914338683	0.684595592125455	-0.676941155037476	0.00920046695261079	0.00433974824741151
0.37	-0.765643643729892	-0.085465377494553	565.948803130362	-5.05760599533646	1.65900966928087	0.690492304035007	-0.68346643844666	0.00899464692728724	0.00440865714314248
0.38	-0.718680562188119	-0.148795065205912	565.71201688861	-5.15754694617188	1.71901927995849	0.69369366726643	-0.686609368517796	0.00881682825449004	0.00451694507687916
0.39	-0.756947086862098	-0.217035221513541	565.511617195943	-5.24157138186755	1.80310922881549	0.693318346130553	-0.68540926423526	0.0086677131328835	0.00466759892624263
0.4	-0.877036651764239	-0.272195039017136	565.326044566195	-5.3098843485498	1.91100349104516	0.689557368299211	-0.680150499058538	0.00854672364139597	0.00486042891334404
0.41	-1.05780626255846	-0.300422672015309	565.150425537251	-5.36384368787475	2.04131496802445	0.683678222484738	-0.672350052779169	0.00845140846723758	0.00509313111033249
0.42	-1.26557776259897	-0.295400197095037	564.997056041483	-5.40622708769402	2.19222501216975	0.677760505614772	-0.664427324225337	0.00837701087599629	0.00536243396231256
0.43	-1.46318974914198	-0.259927930422292	564.892175251096	-5.44119495262588	2.36201109534632	0.674243876325863	-0.659153173443079	0.00831652727542309	0.00566502580161354
0.44	-1.62028415919519	-0.20529427814582	564.869707615969	-5.47391065900356	2.54928618221968	0.675392121085352	-0.659011293236506	0.00826132239933808	0.00599802026002499
0.45	-1.72163802085707	-0.148557908753849	564.963460076981	-5.50994290271027	2.75288613009826	0.682775723995009	-0.665607834308513	0.00820209490069179	0.00635883375701823
0.46	-1.77085430171585	-0.108362088320742	565.199705698723	-5.55465977501605	2.97143778596041	0.69686455524249	-0.679247208238679	0.00812984854142984	0.00674451292420708
0.47	-1.78819423964374	-0.100247327849075	565.591931195847	-5.61279178599632	3.20273987840328	0.716810606339138	-0.698763111413411	0.00803658292351728	0.0071507254663159
0.48	-1.80327618822594	-0.1325574911123	566.138780786448	-5.68821584514037	3.44316130054225	0.740483912523007	-0.721655331132796	0.00791562952941638	0.00757076193522743
0.49	-1.84508653299841	-0.203918576776362	566.825146523415	-5.78386918791815	3.68727898691783	0.764790722774366	-0.744530281629803	0.00776179520693798	0.0079949360732941
0.5	-1.93261196184318	-0.302924705629063	567.625335242927	-5.90162818435452	3.92792759518249	0.786243849931548	-0.763775720695777	0.0075715899458173	0.00841069154157437
0.51	-2.06908919675543	-0.410155598969329	568.506674141805	-6.04203351386236	4.15672514281277	0.801679382690109	-0.776329677586242	0.00734372499606761	0.0088035364254197
0.52	-2.2415052790825	-0.502084310204031	569.432031506269	-6.20389440870542	4.36500214997064	0.80894818503901	-0.780355362877626	0.00707980376447048	0.00915868431941169
0.53	-2.42509619289058	-0.555955710338531	570.360499502131	-6.38397815438331	4.54493695505833	0.807388591216363	-0.775635240876546	0.00678483656770745	0.00946305385302026
0.54	-2.59090314659091	-0.554463958000477	571.246611990178	-6.57707703073535	4.69062573010761	0.797930604007191	-0.763562060450865	0.00646707906025568	0.00970713938384776
0.55	-2.71357784684671	-0.489116823810411	572.039468734615	-6.77666742715157	4.79881891393128	0.782786931622138	-0.746719981693827	0.00613684745334986	0.00988626591884362
0.56	-2.77686186346159	-0.361539696623884	572.683530065207	-6.97614304856686	4.86914168187847	0.76481816563748	-0.728177154903135	0.00580437792598598	0.0100008948162827
0.57	-2.77533594064122	-0.182535898174509	573.122381895786	-7.1703153966535	4.90376425921301	0.746767916012915	-0.710703671008234	0.00547729306194567	0.0100559187900809
0.58	-2.71261372770444	0.0306908526559233	573.305572358559	-7.35667596159383	4.9066543540629	0.730604649920975	-0.696148210445593	0.00515856088951328	0.0100591947087924
0.59	-2.59747891444655	0.258310569714371	573.197166325156	-7.53592215378933	4.88267245987161	0.717162831463654	-0.685144145990816	0.00484578773700983	0.0100198049374762
0.6	-2.4400203234148	0.481636618432311	572.783595783766	-7.7114845858071	4.83681199668238	0.706164122487688	-0.67719583583741	0.00453225025721382	0.00994661808282687
0.61	-2.24944594467472	0.686030069344191	572.078224462727	-7.88816692085699	4.77381895086054	0.696564598734947	-0.671065775756234	0.00420941375989203	0.00984759525354639
0.62	-2.03419732389197	0.862443294960497	571.120944533022	-8.07036070809276	4.69826924732482	0.687068822267627	-0.665293018146537	0.00387008825268731	0.00972999254746509
0.63	-1.80375970470114	1.00755507078277	569.972766423221	-8.26047241804432	4.61499292056847	0.676614511617513	-0.658654161530495	0.00351110359224915	0.0096012497479307
0.64	-1.57072597202039	1.12282498265946	568.707086452949	-8.45812237577572	4.52958489637486	0.66467102827333	-0.650430814995467	0.0031345591950861	0.00947006724430793
0.65	-1.35156945928215	1.21298804115794	567.40039685019	-8.66037896932118	4.44869237706899	0.651287815654433	-0.640443098765881	0.00274724667338366	0.00934707300756499
0.66	-1.16521025864572	1.28449252373137	566.125180109055	-8.86289935902076	4.37983998136671	0.636932379545912	-0.628903877522811	0.0023585293547822	0.00924461280843747
0.67	-1.02950004950344	1.34421082046948	564.946621195184	-9.06151568109342	4.33072061066423	0.622228606885987	-0.616204469263152	0.00197751815817016	0.00917551381493314
0.68	-0.956728263791014	1.3985308222322	563.923058453475	-9.25365745126654	4.30808096082002	0.607720873772187	-0.602742138053237	0.00161060252953638	0.00915105756886542
0.69	-0.949760955427779	1.45276795695114	563.108498292332	-9.43908369882056	4.31649276691801	0.593750228503613	-0.588851893801707	0.0012602125150194	0.00917871279896398
0.7	-1.00028563644178	1.51078029874347	562.55467634206	-9.61967093469677	4.35736771591885	0.580461537638633	-0.574838780210272	0.000925191550465998	0.00926031134508742
0.71	-1.08994490852523	1.57471065945206	562.310351125273	-9.79835697080596	4.42852440345095	0.5678992505269	-0.561055397533798	0.000602546862950915	0.00939125927063339
0.72	-1.19419106577889	1.64486162544985	562.416634249769	-9.97764399759139	4.52446833947724	0.5561208476318	-0.54795516738104	0.000289844280853546	0.00956109455181992
0.73	-1.28783528407752	1.71976405316759	562.898749173113	-10.1582110224762	4.63734931026805	0.545268153779064	-0.536076452499018	-1.26975576369981e-05	0.0097553253976656
0.74	-1.35077608582652	1.79648702804326	563.756116643074	-10.3381323412162	4.75837508455677	0.535574078561411	-0.525958175207139	-0.000301220211377129	0.00995812615299091
0.75	-1.37239229162315	1.87116543570265	564.953618373709	-10.5129761377534	4.8793406466181	0.527321382446406	-0.518027317154493	-0.000568731812018775	0.0101552353866158
0.76	-1.35352444670665	1.93963644879211	566.417016237318	-10.6767541504168	4.99391019654729	0.520789304235376	-0.5125117711497	-0.000806955784069752	0.010336356128489
0.77	-1.3056681607707	1.99803307534566	568.034764320378	-10.8234188567681	5.09836704150627	0.516216387497194	-0.509414146439662	-0.00100891231082911	0.0104965063768148
0.78	-1.24773265898579	2.04321054984775	569.667035781574	-10.9484481027317	5.19169634784457	0.513783513921107	-0.508546677889165	-0.00117139547446821	0.0106360570305087
0.79	-1.20127027375722	2.07296635866562	571.161062847497	-11.050059114524	5.27504042327013	0.513599162999665	-0.509596640463938	-0.0012965722534366	0.0107595348365535
0.8	-1.18533157988578	2.08611050444917	572.370310868452	-11.1297377273905	5.35071655500129	0.515665217827343	-0.512183418568738	-0.00139223811957789	0.0108735645641043
0.81	-1.21203394752141	2.08249751771515	573.174001214188	-11.1919923041196	5.42107834380212	0.519819135281298	-0.515885691556989	-0.0014706927046747	0.0109845071406606
0.82	-1.28364113757138	2.06311681758075	573.493340835556	-11.2434636453549	5.4875195783584	0.525675407352946	-0.520247153674962	-0.00154659399352097	0.0110963893274003
0.83	-1.3915829829678	2.03025982130326	573.301549935642	-11.2916720772257	5.5498705998274	0.532607279486466	-0.524791171057222	-0.00163438609551592	0.0112096238597059
0.84	-1.51751726376269	1.98767761581202	572.626179911069	-11.3437263296182	5.60633756166318	0.539804297930754	-0.529073102849616	-0.00174592199360457	0.0113208197814014
0.85	-1.63628847456329	1.9405637425551	571.543854312751	-11.4052650601607	5.65400671902716	0.546411019704033	-0.532772397726621	-0.00188875124740462	0.0114237268232458
0.86	-1.72042675088835	1.89519043054733	570.168964423815	-11.4797933281616	5.68980321616655	0.551710039105771	-0.535789279171857	-0.00206530543006278	0.0115110969918314
0.87	-1.74559041184385	1.85811858999156	568.638657577344	-11.568464643794	5.71168246034505	0.555279448583181	-0.538285183744223	-0.00227299366331135	0.011577033232775
0.88	-1.69607918873005	1.83507821399196	567.096580071505	-11.6702801991428	5.71976585404715	0.557050118251355	-0.540610818896484	-0.0025050814706189	0.0116192733905262
0.89	-1.56931702029184	1.82981563073628	565.677446791727	-11.7826364634817	5.71712798891958	0.557219671592428	-0.543105825925745	-0.00275217079904044	0.0116408545773276
0.9	-1.37816926184084	1.84333081738263	564.49391058583	-11.9021306089451	5.71000408642007	0.556039636161818	-0.545817051925875	-0.00300408032360822	0.0116507216998959
0.91	-1.15024210166993	1.87388790601218	563.626665954122	-12.0255038158231	5.70730533960918	0.553557300253933	-0.548241931623152	-0.00325188681772637	0.0116630631841661
0.92	-0.923924261074139	1.91793907742019	563.118366295745	-12.1505552028818	5.71948346455983	0.549434852701013	-0.549229260232495	-0.00348980937942733	0.0116954346056471
0.93	-0.741736947824161	1.97172044115681	562.971729991804	-12.2768120596262	5.75694121349285	0.542961169176638	-0.547140957190949	-0.00371653399183747	0.0117660086080768
0.94	-0.642311896631906	2.03291770308949	563.152042625053	-12.4057349803958	5.82830462408803	0.533309200296556	-0.54029526055128	-0.00393556309579934	0.0118905014617396
0.95	-0.652762932288173	2.1016494188429	563.594014270366	-12.5403076165358	5.93892096172006	0.519991383179027	-0.527598800091282	-0.00415430722789933	0.0120794146568043
0.96	-0.783196618476975	2.1801985606984	564.212553843483	-12.6840188007563	6.08990423277531	0.503364621170141	-0.509174858149332	-0.00438193209848303	0.0123361621877235
0.97	-1.02462576842815	2.27141326492828	564.916472110983	-12.8394522060511	6.27792252361466	0.484979846361039	-0.486752575020404	-0.00462636805388339	0.0126564404106773
0.98	-1.35075527596096	2.37630793383809	565.623484574863	-13.0068783113156	6.49573941888513	0.467591280492048	-0.463624446620893	-0.00489123922195278	0.0130288919879711
0.99	-1.72322386481288	2.49184851881565	566.274290782083	-13.1833099651204	6.73333609894545	0.454740819328259	-0.444103462422265	-0.00517361859833432	0.013436804673681
1	-2.0991180450994	2.60996095606962	566.843151652302	-13.3623856573284	6.97930698030207	0.449982986725006	-0.432579229686433	-0.00546336389711277	0.0138603617998443
1.01	-2.43907832972453	2.71838504441942	567.342475471861	-13.5351994712349	7.22218211142935	0.455960209707498	-0.432424738969911	-0.00574435573387988	0.014278892065095
1.02	-2.71418245672782	2.80325698154695	567.819600048026	-13.6918874936107	7.45139685110281	0.473617398917683	-0.445081829248036	-0.00599738686788442	0.0146726694653577
1.03	-2.91005290587627	2.85256339343181	568.34524010351	-13.8235269417436	7.65778002939029	0.501820741814766	-0.469617591653893	-0.00620395004453977	0.015024047617717
1.04	-3.02727538418976	2.8592141942196	568.994804046378	-13.9238092946905	7.83361176797437	0.53751977433653	-0.50290094677026	-0.0063499309445072	0.0153179858680477
1.05	-3.07812827425555	2.82263055239718	569.82564794865	-13.9900499843717	7.97244613044026	0.576408619734344	-0.540346879786685	-0.00642831228883811	0.0155422325281749
1.06	-3.0806082937842	2.74838273411356	570.854869922563	-14.023347792345	8.06895078938581	0.6138731394014	-0.576990594286483	-0.00644037156112065	0.0156874968762681
1.07	-3.05151820352017	2.64624798028612	572.042962419663	-14.0279969061263	8.11896980723397	0.645923942238695	-0.608556883898422	-0.00639533414656535	0.0157478506113291
1.08	-3.00068768675299	2.52769731952438	573.288148232364	-14.0104634635609	8.11989091094622	0.669845070316071	-0.632218080937182	-0.00630882976245817	0.0157214022045092
1.09	-2.92807721543033	2.4039592312956	574.43440655047	-13.9782937535692	8.0712484547256	0.684418515436539	-0.646871533838603	-0.00620066977774547	0.0156110766388235
1.1	-2.8246245672407	2.2853848250632	575.293301594935	-13.9392284167672	7.97537605353576	0.689755818533472	-0.65295338507124	-0.00609241571116714	0.0154252000670786
1.11	-2.67650967941683	2.18206471640782	575.676391090702	-13.9006264503974	7.83787869459766	0.686904712744665	-0.651960515042526	-0.00600504386356249	0.0151775851933291
1.12	-2.4714355799264	2.10490605893776	575.432091760687	-13.8691453068308	7.66773097629275	0.677445634177408	-0.645916475608134	-0.00595685294394543	0.0148869309371658
1.13	-2.20491839337479	2.06604078672703	574.479278332165	-13.8505426492165	7.47690311770321	0.663238811254922	-0.636974464361744	-0.00596168889006787	0.0145755318883885
1.14	-1.88463507821488	2.07768290914418	572.830150047975	-13.8494747196901	7.2795297752483	0.646363154159995	-0.627233937755768	-0.00602757475568805	0.0142674633102142
1.15	-1.53153523249844	2.14928601462042	570.597051846099	-13.8692360951432	7.09073078169203	0.629165589792515	-0.618719531726085	-0.00615587826769404	0.0139865074694323
1.16	-1.17742069823985	2.28374355599145	567.98145676507	-13.9114688701113	6.9252463533908	0.614271699680744	-0.613391393494008	-0.00634116118975225	0.0137540985911737
1.17	-0.859687557636707	2.47401902224793	565.247258179161	-13.975927217103	6.79606088836345	0.604422914158319	-0.613055289495635	-0.00657179940790154	0.0135875087525248
