Time [s]	GRFml [N]	GRFap [N]	GRFv [N]	Mml [N.m]	Map [N.m]	Mv [N.m]	Mfree [N.m]	COPml [m]	COPap [m]
0.01	1.27966763802195	-0.360419719893781	580.342650807193	-7.2539371451348	-20.9268360533015	0.695769642917695	-0.724687302018623	0.0138970572998488	-0.0214263451597322
0.02	1.14114065892742	-0.540149170126303	579.607586811872	-7.1031028048132	-21.0617203103461	0.70263168454022	-0.736486840259624	0.0141445578521086	-0.0217006268932503
0.03	1.04754191695581	-0.730260887031673	578.854982677075	-6.9421376854163	-21.1919063314213	0.708771360504276	-0.7484319625116	0.0144095043808743	-0.0219679226985731
0.04	1.03811481119108	-0.937867781386152	578.07300906741	-6.76431373667795	-21.3135330568387	0.713631399230264	-0.760647821652421	0.014703548360019	-0.0222223552123666
0.05	1.13544629771756	-1.16255334570757	577.272641414426	-6.56929257378899	-21.4249487450666	0.716258894082053	-0.772407482195906	0.0150276497372601	-0.0224604113680589
0.06	1.33997266204489	-1.395355215239	576.489173547663	-6.36373569946877	-21.5267120980996	0.715220603358642	-0.781952729265182	0.0153710220290638	-0.0226808306824849
0.07	1.62874400208442	-1.62031501686555	575.775580415495	-6.15981465858943	-21.6207774723935	0.708748935735343	-0.78668624151111	0.0157135693358816	-0.0228835981906338
0.08	1.95920214554556	-1.81810246266625	575.190879087539	-5.97222820152957	-21.7093028507809	0.695108338895861	-0.783713777989309	0.0160308294388692	-0.0230686094005414
0.09	2.27771078235069	-1.97065802445399	574.787563691186	-5.81467907977739	-21.7936458699031	0.673102759293572	-0.770614067169796	0.0162998536706394	-0.0232347348373829
0.1	2.53132950629583	-2.06555804134545	574.601439456576	-5.69676208103847	-21.8739621857826	0.642591500297542	-0.746238853865434	0.0165044373642614	-0.0233797936789128
0.11	2.68021068405719	-2.09894492297845	574.645555771465	-5.62195640566231	-21.949485086147	0.604860072411127	-0.711318968648689	0.0166385272196105	-0.0235014618264292
0.12	2.70745889293153	-2.07633393219612	574.908339541373	-5.58704123387104	-22.019221151889	0.562714066719501	-0.668686500073795	0.0167072470430156	-0.023598639220687
0.13	2.62364613116117	-2.01125077836332	575.355053382932	-5.58289488396407	-22.0826088776663	0.52022536685381	-0.623012994683435	0.016725585017287	-0.0236725348040334
0.14	2.46444911289329	-1.9222537668424	575.931489472654	-5.59637743233583	-22.1397337043829	0.482146575719631	-0.580086254750672	0.0167152339836112	-0.0237268230141147
0.15	2.28174724638021	-1.8292557157538	576.569129763099	-5.61285659728392	-22.1909378668482	0.45309856863497	-0.545770010280781	0.0167003269482839	-0.0237666346559169
0.16	2.13041900411604	-1.75009252053025	577.191463191236	-5.61889547162374	-22.2359832426701	0.436703121714948	-0.524877606216973	0.0167028925510784	-0.0237966763874101
0.17	2.05438236809803	-1.69803103177243	577.721402731955	-5.60464188085866	-22.2731712011912	0.434858293044352	-0.520219071584513	0.0167388260571252	-0.0238191888343339
0.18	2.07570320195257	-1.68051416264388	578.089622528784	-5.56551857614766	-22.298887471135	0.447329972414473	-0.53204329027486	0.0168150695738591	-0.023832575679522
0.19	2.18973643461834	-1.69907274549541	578.243187500009	-5.50291057722651	-22.3078970637319	0.471763551762579	-0.558004028938658	0.0169285226555238	-0.023831317632947
0.2	2.3675242533786	-1.75010292597621	578.153295560744	-5.42369487004008	-22.2944255723962	0.504122373144867	-0.593654926047074	0.017066940298991	-0.0238073185846452
0.21	2.56458384036623	-1.82613790925853	577.820590201021	-5.33866479628353	-22.2537461107032	0.539459593151067	-0.633355722630448	0.0172117124259262	-0.0237523020082573
0.22	2.73341141164429	-1.91728805895095	577.276577322251	-5.26014434345758	-22.1837704053488	0.572852962083996	-0.671380078462838	0.0173419991880192	-0.0236604846808191
0.23	2.83605335021954	-2.01261684319027	576.58029148397	-5.19930839641771	-22.0861025578864	0.600296791766078	-0.702975654902704	0.0174393206210663	-0.0235306425822475
0.24	2.85322897036799	-2.10131465531847	575.810389770971	-5.16384573778048	-21.9661695166198	0.619359886660262	-0.725147844883731	0.0174915009973614	-0.0233668836736132
0.25	2.78766101987893	-2.17361345167633	575.054001782082	-5.15655554393356	-21.8323359981071	0.62947768080703	-0.737012961929392	0.0174949597443418	-0.0231778747919437
0.26	2.6610848613659	-2.22145709887853	574.394534192893	-5.17523562702219	-21.6942372936505	0.631835693918046	-0.73967534589296	0.0174547521181757	-0.0229747773785842
0.27	2.50628644099032	-2.23900603837516	573.900880019458	-5.21385105264386	-21.5608061219082	0.628897408473413	-0.735698015677558	0.0173824052957382	-0.022768552187061
0.28	2.35689270792904	-2.22309253325655	573.619989734173	-5.26457815936678	-21.4385478193663	0.623709213529742	-0.728329071172117	0.017292272153353	-0.0225674630620464
0.29	2.23812117479687	-2.1737229628635	573.573688758095	-5.32004221411887	-21.3305120889233	0.619159095438349	-0.720692867668269	0.0171975937008862	-0.0223754988063429
0.3	2.16119083718551	-2.0946245940885	573.759381870206	-5.37501969966859	-21.2361659085106	0.617364536951961	-0.715145198787236	0.0171075308800481	-0.0221920931401065
0.31	2.12280391549125	-1.99367166041273	574.153346909863	-5.42709130678364	-21.1520825803	0.619320629556216	-0.712929988946451	0.0170260452345551	-0.0220130824113574
0.32	2.10944677662504	-1.88286476491034	574.715014352213	-5.4761388834952	-21.0731260563232	0.624864653592279	-0.714180255362878	0.0169528003652976	-0.0218324505840399
0.33	2.10473916802921	-1.77747538367683	575.390987566653	-5.52302611160086	-20.9936998212938	0.63292845346991	-0.718206035944112	0.0168854863915026	-0.0216441952535641
0.34	2.09713629977536	-1.6940862556928	576.118328732605	-5.56811193357678	-20.9086690397777	0.641976937431402	-0.723935115996124	0.0168224406704089	-0.0214436657380573
0.35	2.08522732374433	-1.64757596205775	576.827432681123	-5.61029106292357	-20.8137262978867	0.650488918958248	-0.730340311872364	0.0167643654143984	-0.0212279547038856
0.36	2.07868874675564	-1.64753534147108	577.445309117511	-5.6470166922868	-20.7051927217901	0.657336638604012	-0.736708583470673	0.0167143598868361	-0.0209952821951094
0.37	2.09439624654496	-1.69500724246939	577.900148848375	-5.67533394126311	-20.5794534236567	0.661962946023444	-0.742675435290798	0.01667622315702	-0.0207436749249797
0.38	2.14883735122477	-1.78062559962079	578.127707079429	-5.69351399554648	-20.4323564343458	0.664327990138005	-0.748041126066343	0.0166517405707792	-0.0204694991393232
0.39	2.24929715632704	-1.88505999924084	578.079444297864	-5.70260774633099	-20.2589223424942	0.664677520256046	-0.752471844813973	0.0166381332026521	-0.0201664768830629
0.4	2.38688416617786	-1.98212912962161	577.731667720864	-5.7072423630813	-20.0536157622154	0.663245632139312	-0.755238139839503	0.0166268362072342	-0.0198256860044507
0.41	2.53410413803122	-2.04415819745832	577.09421251523	-5.71525851495342	-19.8112469916407	0.66002454695714	-0.755135054333986	0.0166042878796759	-0.0194367536811926
0.42	2.6484369070835	-2.04836872058343	576.216591537918	-5.7362158507816	-19.5283511797935	0.65470535753578	-0.750664145291888	0.0165546533589402	-0.01899008245872
0.43	2.68155964743691	-1.98259090351367	575.189210461674	-5.77920966567872	-19.2046927461637	0.646826484648961	-0.740458172772836	0.0164636735448305	-0.0184795966882668
0.44	2.5920153973731	-1.84859857111674	574.137478163936	-5.85068818225886	-18.844425681144	0.636084390308323	-0.723829449438144	0.0163223961387332	-0.017905264271624
0.45	2.35782023382113	-1.66194402871843	573.207704220924	-5.95295867863185	-18.4564543149845	0.62269247550082	-0.701258265438397	0.0161295577478232	-0.017274610928943
0.46	1.98518612803727	-1.44817399487109	572.545591364609	-6.08384019245273	-18.0537026012233	0.60764303123236	-0.674632760723716	0.0158918168435498	-0.0166026359136481
0.47	1.51038552212686	-1.23642587198224	572.270518330698	-6.23755581066122	-17.6512850628884	0.592745719992866	-0.647111262932386	0.0156217179187738	-0.0159099298820419
0.48	0.993616007431313	-1.05225057093318	572.450900611143	-6.40658409889037	-17.26390245751	0.580381110663707	-0.622586791735936	0.0153339653972265	-0.0152192887270634
0.49	0.506023694260526	-0.91176320176461	573.086820955896	-6.58391658990373	-16.9030536272907	0.57300122733814	-0.604859097382293	0.0150410915874166	-0.0145515649793883
0.5	0.113109920554789	-0.818763263862646	574.105214660098	-6.76506233509125	-16.5747644771523	0.572502287309508	-0.596723006448622	0.0147497845232141	-0.0139217548212194
0.51	-0.14107918190293	-0.765437888757443	575.370156891385	-6.94921741598307	-16.2784376441258	0.5796562468376	-0.599228406227833	0.0144589646207254	-0.0133362947087805
0.52	-0.24467915941024	-0.736046381706436	576.706912414669	-7.13924970458656	-16.0071458003934	0.593792888694712	-0.611338344037297	0.0141602200637292	-0.0127922408119037
0.53	-0.220694796719877	-0.712052100212717	577.934554707658	-7.34047624220812	-15.7493142152946	0.612864976775973	-0.630111989112697	0.0138405576125492	-0.0122785204152082
0.54	-0.120872725872658	-0.676875688796387	578.899410921056	-7.55854983134483	-15.4913797224986	0.633919164543542	-0.651395903759822	0.0134867697108167	-0.0117789217439118
0.55	-0.0123457878106408	-0.618872565675691	579.501240053815	-7.79703484668752	-15.2207762643681	0.6538675233953	-0.670861767640905	0.0130902371604298	-0.0112760708703664
0.56	0.0394805044538529	-0.532055352004633	579.706099792424	-8.0553670495426	-14.928539949472	0.670349848517704	-0.685123737265305	0.0126508164283605	-0.0107554315541593
0.57	-0.0125944567412971	-0.415059020433724	579.543702174564	-8.32782032963482	-14.6109512628361	0.682430722035344	-0.692634185400463	0.0121786603544454	-0.0102083935576568
0.58	-0.185893117101871	-0.269461136593885	579.091483358204	-8.60385411018754	-14.2698923047016	0.690905572191752	-0.694103031223397	0.0116933503311563	-0.00963376398421517
0.59	-0.463896722732267	-0.0985965625807374	578.451189755205	-8.86984655475658	-13.9119171548758	0.698091594144873	-0.69230275722853	0.0112204434728628	-0.00903737536968735
0.6	-0.800945207252273	0.0925011026343248	577.725360637003	-9.11182633483742	-13.546331941445	0.707125890130783	-0.691280765312538	0.0107862639156788	-0.00842997771134135
0.61	-1.13438858480439	0.296160635879809	577.000194029829	-9.31851071484351	-13.1827895248525	0.720943715672573	-0.695163930048575	0.0104122843656598	-0.00782398563412767
0.62	-1.40111374583513	0.500920786219206	576.338295446937	-9.48383650919193	-12.8289795411363	0.741219827047028	-0.706864394609133	0.01011058964444	-0.00722991308187776
0.63	-1.55425109321283	0.69121127184911	575.780834982703	-9.60828295777618	-12.4889281356403	0.767589659254911	-0.727043893193376	0.00988162616262178	-0.00665338227815981
0.64	-1.5757831698894	0.848681643232221	575.355147370829	-9.69861212695903	-12.1622376573672	0.797407910701295	-0.753645316603717	0.00971479050843194	-0.00609342576026622
0.65	-1.48179200631811	0.955361541018419	575.08212639217	-9.76610141926611	-11.8443493578702	0.826159869567205	-0.782158881883464	0.00959159125396103	-0.00554245465480363
0.66	-1.31897504499571	0.99805069804277	574.978569133786	-9.82377513695711	-11.5276723687564	0.848451989938845	-0.806588687675102	0.00949039222340475	-0.00498784072425928
0.67	-1.15335411064155	0.972695235188953	575.052632618042	-9.88341849793134	-11.2032543152414	0.859328392683777	-0.820879870475842	0.00939134912360284	-0.00441467530474354
0.68	-1.05416822419165	0.887258648625209	575.294547462375	-9.95319010992634	-10.8626082457459	0.855548257376768	-0.820422109886258	0.00928020463539847	-0.00380902784148535
0.69	-1.07717946556395	0.761862785345336	575.667944901545	-10.0364342930317	-10.4993518381207	0.836457806421237	-0.803213638774127	0.00915006663908746	-0.00316097914638136
0.7	-1.25166593791285	0.625705446521078	576.108045472692	-10.131913213239	-10.1104186121549	0.804207073787468	-0.770367963849246	0.009000975425971	-0.00246683242302559
0.71	-1.57423575645985	0.511242673287461	576.530891069873	-10.235260352325	-9.69671557053904	0.763261113298413	-0.725844262614893	0.00883772350123324	-0.00173014117555403
0.72	-2.01065838145765	0.447038715178963	576.853417281997	-10.3411299708449	-9.26318980363089	0.719370645841993	-0.675514991158401	0.00866682086549919	-0.000961455030994873
0.73	-2.50479501110863	0.451217469199682	577.019188585678	-10.4453665060118	-8.81832092763372	0.678323664071455	-0.625870716582894	0.00849360445880687	-0.000176910500846228
0.74	-2.99203649872401	0.527387310034264	577.021176319542	-10.5465654427339	-8.37309749315632	0.644844014491146	-0.582741073837882	0.00832029962714909	0.000604039707527759
0.75	-3.41382382856666	0.664239342512236	576.912657318096	-10.6466097326094	-7.93959269380431	0.621924201019422	-0.550362298091584	0.0081454630531963	0.0013613510481103
0.76	-3.72990750961689	0.838931865803543	576.800529510099	-10.7500748928048	-7.52933968326985	0.610711381758242	-0.5309733856449	0.00796480307934899	0.00207708348636171
0.77	-3.92579700433786	1.02322261930738	576.821022165008	-10.8627191196771	-7.15179836825549	0.610871975916601	-0.524935318603053	0.007772996103934	0.00273756186817109
0.78	-4.01403526246266	1.19048480070303	577.103827415648	-10.9895317352532	-6.81325366025799	0.621210989285751	-0.53120957113577	0.00756587041134071	0.00333454643172337
0.79	-4.02922122795677	1.32152947235218	577.734812230685	-11.1329382112923	-6.51643588009741	0.640266657402102	-0.547953943292309	0.0073422518075037	0.00386513275907319
0.8	-4.01792450383613	1.40763012238463	578.728148424485	-11.2917147214191	-6.2609838940097	0.666652432380683	-0.573011901074696	0.0071048731992609	0.00433040056437406
0.81	-4.02569499864047	1.45013569084638	580.015743885092	-11.4609533893626	-6.04461350636334	0.699050800106296	-0.604165957819821	0.006860027423915	0.00473320266754718
0.82	-4.08414180005376	1.45721446525712	581.456479633147	-11.6330956753074	-5.86459634901086	0.735923030919629	-0.63915120891523	0.00661603114727316	0.00507580926855489
0.83	-4.20132579315118	1.43918759663725	582.86199154501	-11.7997142764985	-5.71900945626774	0.775124254804704	-0.675531131367	0.00638096166658897	0.00535825420705965
0.84	-4.35823375495128	1.40427561198492	584.031570551969	-11.9534877985425	-5.60726412509842	0.813657617967718	-0.710586717435482	0.00616039545584246	0.00557807139079036
0.85	-4.51276617222407	1.35628473054151	584.787342238783	-12.0897635522154	-5.52966965772742	0.847749876661732	-0.741350129323241	0.00595590751450314	0.00573167164540545
0.86	-4.61067086280179	1.29492915590323	585.002196260459	-12.2072610437931	-5.48614997871658	0.873305650955439	-0.764840987777272	0.00576485278461014	0.00581702812484686
0.87	-4.60073270675345	1.21843410599082	584.615978214752	-12.3077709979724	-5.47456855987987	0.886648622553898	-0.778471518389065	0.00558152033790171	0.00583682627481502
0.88	-4.45002409971581	1.12717708079238	583.63888818436	-12.3950354608772	-5.48929243699928	0.885342874200429	-0.78051380628676	0.00539928669289047	0.00580099678061186
0.89	-4.15475850376708	1.02672053000913	582.143785127485	-12.4732328425333	-5.52056596559462	0.868848311989654	-0.77049381991258	0.00521307127429571	0.00572769234819698
0.9	-3.74348308254372	0.928807572800295	580.250720715587	-12.5455643984431	-5.55499193005467	0.838810670236876	-0.749396852315716	0.00502132698501689	0.00564224878532743
0.91	-3.27165435123545	0.849647109301566	578.107614872101	-12.6133452996269	-5.57703996038143	0.798895386474416	-0.71962213173917	0.00482698593193154	0.00557431131562575
0.92	-2.80927515674218	0.805826918428881	575.870871163529	-12.6758052101451	-5.57116721704389	0.75420181335207	-0.684686117918482	0.00463712911549274	0.00555386971448091
0.93	-2.42530831074269	0.809097012923003	573.689182301546	-12.7305846957471	-5.52396878297252	0.710396404374955	-0.64872418053854	0.00446152008351097	0.00560722679135178
0.94	-2.17333183150535	0.861741629311457	571.692881167021	-12.7747423104863	-5.42582748659153	0.672754854788657	-0.615870997306713	0.00431041916476538	0.00575383660880646
0.95	-2.08217174767712	0.954148484576437	569.989932997495	-12.8059919666263	-5.27176653094879	0.645301353379186	-0.589614555728737	0.00419222254916396	0.00600455344471656
0.96	-2.15340124006536	1.06554067429032	568.668076460355	-12.8238658890273	-5.06151370757972	0.630193404433993	-0.57222432350753	0.00411145718277317	0.00636131124563599
0.97	-2.36536949837094	1.16789170755642	567.800915044756	-12.8305252874191	-4.79903107308416	0.627443966560703	-0.564353708836609	0.00406754932497966	0.00681782744246012
0.98	-2.68162414029835	1.23211349423803	567.454340751459	-12.8310042892598	-4.49185169343792	0.635014432960152	-0.564905379357087	0.00405461305200006	0.0073607594420072
0.99	-3.06076464355978	1.23497264094234	567.689065019306	-12.8327707215818	-4.15047529638962	0.649257987307823	-0.571216425941243	0.00406230091436588	0.00797087410046315
1	-3.46501200243844	1.16501011170295	568.555717184316	-12.844623089579	-3.7878719320481	0.665642079070464	-0.579564086061081	0.00407753897686836	0.00862411552434211
1.01	-3.86577676692719	1.02601626140254	570.081144296909	-12.8751082090085	-3.41894440050163	0.679630631168269	-0.58591867184453	0.00408675817561943	0.0092927808220013
1.02	-4.24571159654178	0.837224274603191	572.247882704506	-12.9308047026784	-3.05971855765137	0.687567311716269	-0.586798302354771	0.00407808180406777	0.00994715025517795
1.03	-4.59767153380915	0.630143562927399	574.972334783387	-13.0149157301129	-2.72611596400434	0.687384287328484	-0.580036272905322	0.00404290072654612	0.0105577828803108
1.04	-4.9214779849294	0.442675778293953	578.08962194975	-13.1265889469459	-2.43237709181941	0.67898090936529	-0.565277279982156	0.0039764160483472	0.0110983434903557
1.05	-5.21949166472952	0.311701123634749	581.353128459812	-13.2612054017161	-2.18943639455936	0.664179550233009	-0.544077713430413	0.00387704910979547	0.0115484504682531
1.06	-5.49198610793071	0.265615552931512	584.453824786459	-13.4115878968497	-2.0036788597614	0.646261074990898	-0.519581971654875	0.00374502219360162	0.0118958311224995
1.07	-5.73333796202039	0.318318929816775	587.059099991303	-13.569772665244	-1.87645585499749	0.629184711792072	-0.49585106600291	0.00358074444634826	0.0121371646528295
1.08	-5.93006981833194	0.465913238980418	588.864644618846	-13.7287906800773	-1.80451776093903	0.616674947420908	-0.476999966361194	0.00338373904368539	0.0122773626543022
1.09	-6.0615996067553	0.686898984405757	589.648040072123	-13.8839065881312	-1.78122353445888	0.611387435914262	-0.466335795689181	0.00315264490083356	0.012327530810757
1.1	-6.10399925169746	0.946005383432147	589.310961860368	-14.0329720220681	-1.79813837355474	0.614339906992098	-0.465677085029883	0.00288637860274543	0.012302265689161
1.11	-6.03617917900318	1.20103986827217	587.899101593992	-14.1758846288487	-1.84653124994774	0.624724180807346	-0.474986113161344	0.00258602689100618	0.0122171012053963
1.12	-5.84697666266331	1.41143065549348	585.594513343587	-14.3134707758011	-1.91836981696902	0.640124155604521	-0.492378487619867	0.00225667459553769	0.0120867737542677
1.13	-5.54104165120337	1.54664036306285	582.682386716461	-14.4463012759286	-2.0066421162185	0.657075285976092	-0.514500480782803	0.00190831805053582	0.0119245898062436
1.14	-5.14149891840103	1.5925198666847	579.500958548923	-14.5739361908209	-2.10511959529199	0.671830802091958	-0.537194415834083	0.00155530467295872	0.0117427096446668
1.15	-4.68816594552614	1.55404308029335	576.38729650948	-14.6948884853316	-2.20790390453837	0.68115919975749	-0.55631386177432	0.00121427188756906	0.0115527871448881
1.16	-4.23136256845867	1.45367334021581	573.631784896296	-14.8072812601602	-2.30918216080361	0.682992677614205	-0.568514862458311	0.000901132266767024	0.0113662719042981
1.17	-3.82262192979443	1.32567477360063	571.450352711867	-14.9098737136909	-2.40351569197918	0.676780381566567	-0.571849902998195	0.000628043865729566	0.0111938436242165
