Time [s]	GRFml [N]	GRFap [N]	GRFv [N]	Mml [N.m]	Map [N.m]	Mv [N.m]	Mfree [N.m]	COPml [m]	COPap [m]
0.01	-1.88098264724175	2.09373882463357	642.170473832764	19.3144136310994	36.7382916603656	0.586467065225688	-0.762822051269789	-0.000383285637703956	-0.0062431577458617
0.02	-1.77979838005995	2.10632122457141	642.470353902422	19.2588256080764	36.7238041672275	0.562236469778443	-0.735997298850631	-0.000481431608481242	-0.00628958781389827
0.03	-1.69462611864036	2.11865150602064	642.726351021898	19.2032129717768	36.7132368703858	0.540376427593407	-0.712033462473101	-0.000577714937831542	-0.00632589911529841
0.04	-1.63902311752376	2.13079601941665	642.901692304281	19.1485577210485	36.7099012452163	0.522747896361879	-0.693224839841892	-0.000669008139052796	-0.00634357311798101
0.05	-1.62117657222261	2.14281786044046	642.977487358771	19.096864305438	36.7163363781015	0.51026632157594	-0.680753845607311	-0.000751373417761325	-0.00633692108006306
0.06	-1.64243418307119	2.15451942107295	642.956102062068	19.0509894570093	36.7339701715541	0.502782246662175	-0.674510452919364	-0.000820477262943209	-0.00630391916118717
0.07	-1.69718539452378	2.16517822107479	642.859364116617	19.0139786488754	36.7628565597908	0.499255647655965	-0.673246096226107	-0.000872547248393585	-0.00624645543248459
0.08	-1.77415277310454	2.1734564706858	642.722617296733	18.9881055861269	36.8015937184156	0.498142103973424	-0.674992716885286	-0.000905608765908394	-0.00616991698637603
0.09	-1.85881356045771	2.17761232164627	642.586540466897	18.9739506948328	36.8474899060805	0.497849896335066	-0.67760536805492	-0.000920561107721762	-0.00608218744230521
0.1	-1.93637218356286	2.17600273310222	642.48879933735	18.9698819603993	36.8969637276629	0.497125013423561	-0.679267599184427	-0.000921616606633702	-0.00599226414402437
0.11	-1.99455225258652	2.16771506844096	642.457162681884	18.9721953457321	36.9460873252407	0.495269016799665	-0.678833158041988	-0.000915773745818971	-0.00590878703162412
0.12	-2.02553514316937	2.15307537357551	642.505030788943	18.9759582531062	36.9911404026504	0.492166546877315	-0.675945622746336	-0.000911299571970892	-0.00583877186773973
0.13	-2.0266377865668	2.13380242705309	642.629705943065	18.9763488063489	37.0290537867821	0.488163292066917	-0.670950405171094	-0.000915561315248836	-0.00578676641159453
0.14	-1.99971840869647	2.11270016007834	642.813328198437	18.970087954928	37.057673852768	0.483868604815487	-0.664665667878315	-0.000932834502193725	-0.00575452788886621
0.15	-1.94969518554521	2.09294967226843	643.026166636064	18.9564980842948	37.0758491094664	0.479954186968839	-0.658097574774528	-0.000962802269941387	-0.00574118909957411
0.16	-1.88281675796686	2.07720104200235	643.231769125618	18.9378226303359	37.0833991198432	0.476993181727837	-0.6521742579036	-0.00100029337674268	-0.00574377201968396
0.17	-1.80533670433383	2.0667224165994	643.393240815604	18.9186771740625	37.0810511838943	0.475353178172776	-0.647546484621305	-0.0010364264317787	-0.00575784867689705
0.18	-1.72300728420657	2.06083366603037	643.479662111689	18.9047921500581	37.0704127758691	0.475139262012746	-0.644477617561764	-0.001060863837957	-0.00577815479574589
0.19	-1.64141246855165	2.0567671619701	643.471487719096	18.9014460222651	37.0539957761797	0.47618387683642	-0.642829947837198	-0.001064499582213	-0.00579902925996872
0.2	-1.56676577867206	2.05000133621572	643.363830186391	18.9120883545064	37.0352452388897	0.478089574540482	-0.64214649148058	-0.00104175234456438	-0.0058146576713643
0.21	-1.50656779375949	2.03502794592309	643.166904239079	18.9375796360947	37.0184802560763	0.480333169223786	-0.641817522415366	-0.000991766843041475	-0.00581920204311442
0.22	-1.46955025302705	2.00644188609144	642.903553911066	18.9762587811914	37.0086510313343	0.482425176928955	-0.641302418840787	-0.00091819297475737	-0.00580696076530501
0.23	-1.46462096968791	1.96017516937923	642.604535508563	19.0247692250122	37.0108617484599	0.484090046601344	-0.640352782240682	-0.000827682535168517	-0.00577269761021953
0.24	-1.49895373396692	1.89463840068111	642.302832206646	19.0793266426058	37.0296898016047	0.485406705825918	-0.639165601305955	-0.00072765591470314	-0.00571220451707999
0.25	-1.57576793304991	1.8115058012662	642.02848583124	19.1369751878112	37.0684189855792	0.486844885641175	-0.638401384992127	-0.000624111494640922	-0.00562304478231523
0.26	-1.69255305982084	1.71591146529964	641.805128369018	19.1963956174276	37.1283634829782	0.489160876753452	-0.639038883717416	-0.000520210084273054	-0.00550530348587497
0.27	-1.84042945544822	1.61592799475201	641.648667944665	19.257990787343	37.2084660933334	0.493169759438709	-0.64209631453221	-0.000416080901026739	-0.00536209718572223
0.28	-2.00502109104513	1.52135804207117	641.567721804501	19.3232295995785	37.3053014426298	0.49946682501041	-0.648305452581137	-0.000309858888184467	-0.00519960136912467
0.29	-2.16876186478403	1.44204229986424	641.564772933011	19.3934954367715	37.4135161332491	0.50820119654264	-0.657852440815635	-0.000199523714239147	-0.00502645494211718
0.3	-2.31411719992033	1.38602218152135	641.636950219357	19.4688679747422	37.5266214679459	0.518991972524509	-0.670281384803121	-8.48239985257182e-05	-0.00485257745246853
0.31	-2.42691504930658	1.35795098726038	641.775842638199	19.5473010662477	37.6379558233506	0.531024168467172	-0.684597962988147	3.14578871616344e-05	-0.0046876355138788
0.32	-2.49892621838386	1.35810797447497	641.966611432584	19.6245291770432	37.7415849793404	0.543290641266298	-0.699534371470013	0.000143403005542386	-0.00453954780225851
0.33	-2.5290244196473	1.38224713051205	642.18742432899	19.6947863348471	37.8329285772294	0.554888219367855	-0.713876476791862	0.000243096651945329	-0.00441345432030632
0.34	-2.52263792182256	1.42233846289875	642.410480400055	19.7521441532712	37.908987498114	0.565256362819709	-0.726734687068829	0.000322653132485362	-0.00431146057101983
0.35	-2.4896736604385	1.46807449622164	642.605429458387	19.7920663877184	37.9681751986587	0.57427220819754	-0.737668701154965	0.000376463073691102	-0.00423322303380191
0.36	-2.44151983593191	1.50885551493732	642.744961955819	19.8127041072107	38.0098829084943	0.582174289924414	-0.746638705735727	0.000402936939163823	-0.00417714970713912
0.37	-2.38798593170993	1.53586108516373	642.811190010678	19.8155340989629	38.0339873998304	0.589353240672382	-0.753823922654083	0.000405194773675843	-0.00414176109698344
0.38	-2.3350348843337	1.543779411404	642.800694053083	19.8051397778507	38.0405096907336	0.596095400181637	-0.759395742764066	0.000390491868941467	-0.00412669019243134
0.39	-2.2838971641777	1.53181021910757	642.726172343931	19.788183554592	38.0295535062752	0.602378734934981	-0.763341367897198	0.000368553275623462	-0.00413293095330297
0.4	-2.23171962638491	1.50368496633657	642.613580860044	19.7718494776986	38.0015267572732	0.60779864873878	-0.765406506958743	0.000349300508666439	-0.00416222882326567
0.41	-2.173443702432	1.46665138815095	642.495189810117	19.7621830385939	37.9575296221315	0.611654893563083	-0.765177047056829	0.000340609915760015	-0.00421583522759111
0.42	-2.10427736195339	1.42961618791723	642.400531040318	19.7627820447173	37.8997257820286	0.613176136316829	-0.762268868886538	0.000346710909382653	-0.00429309479601059
0.43	-2.02201051512307	1.40087256702933	642.348132162861	19.7741897357473	37.8315201760203	0.611811987722337	-0.756557768827833	0.000367630341646441	-0.00439040775220656
0.44	-1.92852364812706	1.3859853696489	642.340805719373	19.7941354841338	37.7574367455132	0.607496479831113	-0.748366707426122	0.000399777806067925	-0.00450098826544909
0.45	-1.83008783475555	1.38640274072453	642.36607563147	19.8185188085335	37.6826902317718	0.600790204619893	-0.738537835979569	0.000437437481661473	-0.00461557297203791
0.46	-1.73636545636639	1.39918583757504	642.401513959426	19.842816171703	37.6125397279394	0.592841732961174	-0.728349187758267	0.000474683660011355	-0.00472392093955737
0.47	-1.65832866417874	1.41793358969101	642.423038291934	19.8634765494801	37.5515712571387	0.585164572456277	-0.719282725625628	0.000507142899869084	-0.00481669481650676
0.48	-1.60557534215815	1.43462117610742	642.413260998725	19.8788968398743	37.5030715627518	0.579286940203286	-0.712698909105653	0.000533109189881142	-0.0048872017636824
0.49	-1.58370369487536	1.44179011341772	642.367129851906	19.889720240792	37.4686293223973	0.576376711922003	-0.709507645066332	0.000553745600511135	-0.00493252781002351
0.5	-1.59245896822819	1.43442791595651	642.293224265037	19.8984255203976	37.448045263569	0.576955275720089	-0.709933066490507	0.000572399267921742	-0.00495378935376362
0.51	-1.6252416598488	1.41099772044515	642.210657996241	19.9083963012366	37.4395642206059	0.580785492343809	-0.713444693797164	0.000593322694391274	-0.00495547933864376
0.52	-1.67025422476509	1.37338131491349	642.142951397586	19.9228058361587	37.4403749496108	0.586960028885434	-0.718876756799578	0.000620253296836681	-0.00494412079366224
0.53	-1.71311966201358	1.32587060508433	642.111000221284	19.9436817639283	37.4472709274448	0.594149550969912	-0.724698520147974	0.000655311593573682	-0.00492659202833162
0.54	-1.74035631824104	1.27364426028885	642.127237243548	19.9714258215565	37.4573378481712	0.600922326211795	-0.729353887560808	0.000698541529543517	-0.00490852614214399
0.55	-1.74279294322041	1.22128969102261	642.19243030457	20.0048934582386	37.4685361895891	0.60603647928945	-0.731575665745309	0.000748184889399872	-0.00489312114018897
0.56	-1.71797614818856	1.17184061789161	642.295637106755	20.0419491440187	37.4800778466919	0.608634783075341	-0.730601795799159	0.000801533992738745	-0.00488056243861212
0.57	-1.67089022046455	1.12654724522594	642.416990886854	20.080266731518	37.4925454034425	0.608322182009737	-0.726264370081248	0.000856022098202569	-0.00486810370399382
0.58	-1.61280009726893	1.08529076720709	642.532429879941	20.118082449864	37.5077583976187	0.605151356613555	-0.718964735179227	0.0009101439203687	-0.00485071419015171
0.59	-1.55858174169378	1.04732189253323	642.619237624159	20.1546430393461	37.5284400826869	0.599560041219922	-0.709570318188417	0.000963866025235127	-0.00482210362822461
0.6	-1.52333377648301	1.01193221297813	642.661241752584	20.1902066741645	37.5577699274176	0.592291243813176	-0.699266043095244	0.0010183666114657	-0.00477588716208038
0.61	-1.5192262267904	0.978773307547551	642.652624735683	20.225612788847	37.598913806586	0.584298488652732	-0.689376118840968	0.00107518358066472	-0.00470665431220274
0.62	-1.55338834185716	0.947760501416969	642.599501132651	20.2615914226786	37.6546033391238	0.576616484614715	-0.681159055584839	0.00113507714080507	-0.00461075725733257
0.63	-1.62723278428845	0.918726720686424	642.518759943075	20.2980855652195	37.7267951552978	0.57018163677015	-0.675583806620371	0.00119705306363904	-0.00448672792390442
0.64	-1.73711312021319	0.891118316113079	642.434209749435	20.3338744151748	37.8163978359521	0.565618204926291	-0.673117906304545	0.00125798658994136	-0.00433534788169476
0.65	-1.87580345815548	0.863990607965409	642.370756943832	20.3666977154265	37.9230320268762	0.563047546503393	-0.673584701983934	0.00131311638051101	-0.00415949090093681
0.66	-2.03412161716868	0.836384789831963	642.348012606932	20.3939099640489	38.0448038830371	0.562002581464326	-0.676154986717203	0.00135738064111757	-0.00396389462100832
0.67	-2.20213821739622	0.807936971688704	642.375093577174	20.4134894568927	38.1781200902462	0.561515400172683	-0.679513472714257	0.00138723552890763	-0.00375497654727291
0.68	-2.36974890936854	0.779400264287117	642.448230372962	20.425062117188	38.3176284682325	0.560389811676402	-0.682184405113648	0.00140235011552292	-0.00354070973395526
0.69	-2.5267699721161	0.752742296543419	642.552063409511	20.4305419256483	38.4563950017401	0.557592997187191	-0.682933961282314	0.00140651999462837	-0.00333046620207872
0.7	-2.66296701903936	0.730635975995067	642.664377155834	20.4340758277343	38.5863991498315	0.552636836933135	-0.681121139581964	0.00140733185699249	-0.00313467872657497
0.71	-2.76842948763647	0.715433033796278	642.762855582253	20.441197677304	38.6993444694158	0.545803360523508	-0.676869943829101	0.00141450487812533	-0.00296419707371237
0.72	-2.83446921666486	0.707982058198214	642.831665707937	20.4573759078413	38.7876712183967	0.538114040441272	-0.670990825340037	0.00143730664808761	-0.00282931488823823
0.73	-2.85487724151936	0.706798099984601	642.865614167362	20.486382295659	38.8455688810779	0.5310351696671	-0.664670478859325	0.00148181930621094	-0.00273857503204966
0.74	-2.82710342121154	0.708025621310841	642.870373735235	20.5290169497658	38.8697611681416	0.526014106929838	-0.659039450161228	0.00154895971448965	-0.00269756911284824
0.75	-2.75287769592404	0.706361883584875	642.858657475948	20.5826439134053	38.8598902871428	0.52400984623689	-0.654777339240305	0.00163396217588219	-0.00270798924123539
0.76	-2.63800295006309	0.696720674399747	642.843780906798	20.6417386873206	38.8184437039298	0.525185817471844	-0.651902264128515	0.00172756095582849	-0.00276715284232515
0.77	-2.49141031680865	0.676076886312737	642.833202037393	20.6993085173172	38.7503001693367	0.528870515708001	-0.649818700823148	0.00181852432363694	-0.00286811963931283
0.78	-2.32388203880352	0.644797033750684	642.824824207147	20.7487425547742	38.6620681836688	0.53378917106407	-0.647596140520096	0.00189671167789107	-0.00300038787838069
0.79	-2.14693716980669	0.606905540517835	642.807852762027	20.7854976321566	38.5614098195845	0.53847067949502	-0.644363057469429	0.0019556416071177	-0.00315103395200106
0.8	-1.97218679499106	0.56911400790662	642.768081223184	20.8080864966923	38.4564807010231	0.541678465971146	-0.639662133837441	0.0019937510639032	-0.0033060785823481
0.81	-1.81110349620137	0.538896573531512	642.695410372148	20.8180871680516	38.3555064800511	0.542720603043304	-0.633636288050518	0.00201402176607846	-0.00345184246019503
0.82	-1.67482589003376	0.5222410171987	642.590151843377	20.819238163148	38.2664148205742	0.541554218134102	-0.626986698627928	0.00202225042059478	-0.00357609622675559
0.83	-1.57353375387073	0.521809823433583	642.464945575983	20.8159928070491	38.1964030242448	0.538682177433229	-0.620731781850926	0.00202470394272036	-0.00366889705262319
0.84	-1.51515786456529	0.536086115181195	642.340947573572	20.8120639823638	38.1513676140614	0.534911419556704	-0.615865810395358	0.00202605349855289	-0.00372310357481564
0.85	-1.50363282551987	0.559740322597241	642.239560841252	20.8094495910701	38.1352339348164	0.531077373099338	-0.61304454271348	0.00202828441625214	-0.00373463206797242
0.86	-1.53733264522781	0.585071848708241	642.173179834552	20.8082187636637	38.1493480670059	0.527830669435687	-0.612407007536868	0.00203084051408098	-0.00370252910157837
0.87	-1.60850401089106	0.604081746149766	642.139132840182	20.8070490821555	38.1921664502853	0.525540829450337	-0.613587561832645	0.00203177432651469	-0.00362888875351902
0.88	-1.70429759693049	0.610589795949893	642.119846537544	20.8042440293459	38.2594535664641	0.524317213776164	-0.615901445426362	0.00202932726523897	-0.00351857174259179
0.89	-1.80944302859288	0.601833583889736	642.089692507195	20.7988127413843	38.3450659294432	0.524102824816501	-0.618625405537188	0.00202326487025895	-0.00337864703413865
0.9	-1.9099365078253	0.579146338633915	642.026109208245	20.7911978553791	38.4421991860675	0.524778108687384	-0.62126434276109	0.00201544380479801	-0.00321751831751593
0.91	-1.99660387029082	0.547553827987155	641.920654813516	20.7833773579669	38.54477963378	0.526224282096362	-0.623706183196442	0.00200940438812047	-0.0030438173916601
0.92	-2.06730253734166	0.51440480126518	641.785460716808	20.7782901337214	38.6485778908562	0.52832964643012	-0.626215247878451	0.0020091412445179	-0.0028652890253793
0.93	-2.12690805289565	0.487400688113694	641.652208557504	20.7787705517097	38.751670362901	0.530958987625591	-0.629279336938951	0.00201748853119998	-0.00268797401173942
0.94	-2.18497120314164	0.472562873450493	641.563576993762	20.7863525261465	38.8540752055518	0.533926266165807	-0.633380761052174	0.00203468594141964	-0.00251595374724933
0.95	-2.25175787775897	0.472716393609974	641.559966523893	20.8003622368531	38.9566789439826	0.537004743367957	-0.638784801024186	0.00205763746917353	-0.00235174384228265
0.96	-2.33398538428411	0.486943288492364	641.666087482218	20.8176382849746	39.0598386388629	0.539981497375907	-0.645423426332392	0.00208015831394037	-0.00219717783142492
0.97	-2.4317192855728	0.511177678934702	641.882027614848	20.8330204100413	39.1621836708265	0.542731593793877	-0.652907586115516	0.00209419439853953	-0.00205440996463629
0.98	-2.53753416348467	0.539749427974791	642.181753935616	20.8404978904137	39.2600891047358	0.545269728664043	-0.660649349821468	0.00209169283249855	-0.0019265883450878
0.99	-2.63829198485998	0.567355727968788	642.51935585594	20.8346933428242	39.3480615471629	0.54774427968017	-0.668037550042935	0.00206660035651796	-0.00181785445500243
1	-2.71900747025193	0.59077961625721	642.840741197784	20.8122519260049	39.4199509450395	0.550366800803086	-0.674600108337504	0.00201643469450574	-0.00173258397251463
1.01	-2.76754964676464	0.609759547321813	643.096891359056	20.7727423916309	39.4705983646899	0.553304098546487	-0.680102433935697	0.00194301334772062	-0.00167410017969716
1.02	-2.77861825746582	0.626726864174004	643.254651533151	20.7188333823068	39.4973623408078	0.556582343728475	-0.684563156001374	0.00185217672117144	-0.00164333851201803
1.03	-2.75564594111013	0.645551537461789	643.302269226051	20.6557235023661	39.5009957868441	0.560051901650158	-0.688201019470539	0.00175261538182003	-0.00163801425808308
1.04	-2.70995074986489	0.669801740980859	643.248901004611	20.5900031108061	39.4855594671001	0.563437820758366	-0.691347633752399	0.00165411987897468	-0.00165270647018295
1.05	-2.65737524668707	0.701183650954902	643.119270661395	20.5282530525478	39.4573778320055	0.566464464125824	-0.694363881131447	0.00156566944034287	-0.00167996373870782
1.06	-2.61348381066625	0.738727106376601	642.945887169018	20.4757173848952	39.4233549633737	0.569008564942457	-0.697584435157568	0.00149376234817344	-0.00171217101815735
1.07	-2.58885619220413	0.778974618410531	642.761400697016	20.4353326164915	39.3891670526078	0.571216565044388	-0.701292431359998	0.00144129638075863	-0.00174362420175156
1.08	-2.5859533474631	0.817051526829733	642.592935654327	20.4072846736407	39.3578725338669	0.573527146989771	-0.705705803019329	0.00140717129004975	-0.00177214896552019
1.09	-2.59847670499047	0.848197101608653	642.459080313354	20.3891329747724	39.3293325159029	0.576568325740884	-0.710948680793494	0.00138663862980248	-0.00179971853296701
1.1	-2.6133082042681	0.869224120170719	642.369200999533	20.3764209503874	39.3005693229423	0.580942637070494	-0.716991224532002	0.00137228895774899	-0.00183183815836119
1.11	-2.61430979300797	0.87946408472717	642.32425847494	20.3636067124161	39.2669004034289	0.586960202111624	-0.723566558876801	0.00135545873242182	-0.00187586781234417
1.12	-2.5867518342709	0.880979051570361	642.318371003144	20.3451071817966	39.2234627101223	0.594411250411566	-0.730102405789256	0.00132777387870175	-0.00193880633493781
1.13	-2.52107349808198	0.878068990107136	642.340741680681	20.3162534069589	39.1666563790356	0.60247245999537	-0.735720912743182	0.00128253567978243	-0.00202523126129728
1.14	-2.41502476605323	0.876279989565637	642.377900681276	20.27399518132	39.0951053917208	0.609808661351342	-0.739349672365184	0.00121570078289479	-0.00213601511837752
1.15	-2.27382594137572	0.881184796805139	642.41627419192	20.2172564607691	39.0099225337037	0.61486961810444	-0.739948529433855	0.00112630222995813	-0.0022681517633899
1.16	-2.10857568494599	0.897188454622026	642.444874936447	20.1469163582002	38.9143026567259	0.616310762987561	-0.736804437745991	0.00101628265595743	-0.00241563858686722
1.17	-1.9335537029348	0.926566447917967	642.457600674554	20.0654616551466	38.8126683200982	0.613413855205885	-0.729804582134073	0.000889836462579896	-0.00257101967565365
