Time [s]	GRFml [N]	GRFap [N]	GRFv [N]	Mml [N.m]	Map [N.m]	Mv [N.m]	Mfree [N.m]	COPml [m]	COPap [m]
0.01	7.52176280434112	9.97375726593199	720.873286552963	-51.0718291394961	-10.3077742310826	-2.66494421774666	-1.98975110035324	-0.0142037830731912	0.00529052953293929
0.02	7.49485123637826	9.70072677227397	719.789252490324	-50.5174359642943	-10.0683299142235	-2.6017954602257	-1.94039104139385	-0.0138860044469613	0.00463059532881602
0.03	7.46690830488072	9.43244331019663	718.738450279029	-49.9710218631673	-9.83018565746248	-2.53926520619595	-1.89139119685549	-0.0135693041731205	0.00397711577084443
0.04	7.43742974097331	9.1737507663776	717.746194441292	-49.4416439311785	-9.59515984653478	-2.47820799088857	-1.84348521043576	-0.0132557551468692	0.00334027569661412
0.05	7.40592847150498	8.92927333545055	716.83668886149	-48.9379742490108	-9.3648606186665	-2.41945184258972	-1.7973950785201	-0.0129471708689412	0.00272988095274714
0.06	7.37197335129368	8.70325647106781	716.032006702427	-48.4680260036573	-9.14066584268979	-2.3637770503649	-1.75381073027218	-0.0126450965044124	0.00215507055434774
0.07	7.33522474358607	8.49942178672598	715.351114105774	-48.0389049818883	-8.92371234598021	-2.31189561494496	-1.71336977619305	-0.0123508109998258	0.00162405919884598
0.08	7.29546463540064	8.32084247707121	714.808987017534	-47.6565967890791	-8.71489378268595	-2.26443198086355	-1.67663809583575	-0.0120653383131156	0.001143919672563
0.09	7.25261943374006	8.16984517423687	714.415870718324	-47.3257989602582	-8.51486643644342	-2.22190575328837	-1.64409202027924	-0.0117894657382038	0.000720412912338472
0.1	7.20677411558585	8.04794309489872	714.176728736211	-47.0498053857671	-8.32406213168532	-2.18471715966786	-1.61610290986865	-0.0115237673343316	0.000357871383894703
0.11	7.15817695978565	7.95580389676243	714.090921479105	-46.8304482052341	-8.14270727695444	-2.15313600757315	-1.59292491908782	-0.0112686305745295	5.91390738516467e-05
0.12	7.10723464297945	7.89325392206989	714.15214519731	-46.6680996293946	-7.97084688799923	-2.12729480961024	-1.57468667117295	-0.0110242844874712	-0.000174431154204679
0.13	7.0544980132176	7.85931857194789	714.348649162704	-46.5617331787437	-7.80837225849971	-2.10718659679337	-1.56138743422516	-0.0107908277612557	-0.00034292471689483
0.14	7.00063934819181	7.85229656428571	714.663733912584	-46.509040764218	-7.65505079008429	-2.09266773357584	-1.55289820281811	-0.0105682554849639	-0.000447761449871326
0.15	6.9464223474049	7.86986392376382	715.076516972684	-46.5065990777974	-7.51055639010526	-2.08346579672438	-1.54896785425262	-0.0103564834055891	-0.000491547617839566
0.16	6.89266648735078	7.90920187532708	715.562935725059	-46.5500761090998	-7.37449882070375	-2.07919230596421	-1.54923428098401	-0.0101553687629742	-0.000477892792344448
0.17	6.84020767339559	7.96714148435119	716.096941179658	-46.6344664397638	-7.24645045337509	-2.07935981811614	-1.55324011821231	-0.00996472693350259	-0.000411202241843781
0.18	6.78985733798871	8.04031700354309	716.651822491415	-46.7543424418098	-7.1259690565858	-2.08340263948752	-1.56045240841871	-0.00978434327589436	-0.000296456536056131
0.19	6.74236224822094	8.12531950983709	717.201591193292	-46.9041077282982	-7.01261551583335	-2.09070019299447	-1.57028529383865	-0.00961397974974874	-0.000138990432574024
0.2	6.69836728423151	8.21884256801017	717.722347177735	-47.0782392338436	-6.90596574103854	-2.1006019131572	-1.58212462367241	-0.00945337609263537	5.57172662580263e-05
0.21	6.65838332517325	8.3178123267381	718.19354611143	-47.2715051447535	-6.80561643149879	-2.11245244577896	-1.59535322272145	-0.00930224561335247	0.000282232320530457
0.22	6.62276212953065	8.41949558626649	718.599090587863	-47.4791475060449	-6.71118481357996	-2.12561590694851	-1.6093755051763	-0.0091602659949435	0.00053532335633294
0.23	6.59167972824992	8.52158089195793	718.928174974386	-47.6970206077725	-6.62230290730993	-2.13949800994299	-1.6236401388069	-0.00902706589254022	0.000810083445159177
0.24	6.56512937861707	8.62222949684538	719.175826334638	-47.9216790553637	-6.53860728134448	-2.15356499544045	-1.6376595715906	-0.00890220853162962	0.00110201125958474
0.25	6.5429245795631	8.72009497435815	719.343100421401	-48.1504125839262	-6.45972559055697	-2.16735849216316	-1.65102541887186	-0.00878517391949342	0.00140705099309464
0.26	6.52471205812891	8.81431221748011	719.436911659422	-48.3812279887004	-6.38526143133306	-2.18050567944913	-1.66341896218336	-0.00867534162288663	0.00172159306681785
0.27	6.50999404011588	8.90445840280836	719.469498135947	-48.6127818075567	-6.31477917845099	-2.19272440469034	-1.67461631331086	-0.00857197628131933	0.00204244021842388
0.28	6.49815855490549	8.99049010887517	719.457545555626	-48.8442704048769	-6.24779047466121	-2.20382320905258	-1.68448812773643	-0.00847421806534144	0.00236674569697869
0.29	6.48851603238189	9.07266205911144	719.421016441148	-49.0752866836185	-6.18374392923247	-2.21369651504501	-1.6929940869793	-0.00838108011470039	0.00269193183391267
0.3	6.48034006078176	9.15143383891147	719.381751083731	-49.3056546356125	-6.12201935308826	-2.22231550983803	-1.70017268626774	-0.0082914545860183	0.00301559813945947
0.31	6.47290991215916	9.22737137228049	719.361923444897	-49.5352542079858	-6.06192753199036	-2.22971550037403	-1.70612714091347	-0.00820412831599029	0.00333542825830144
0.32	6.46555232166156	9.3010499280894	719.382447124192	-49.7638494391144	-6.00271613846343	-2.23598070435082	-1.711008443611	-0.00811780830764501	0.00364910463554724
0.33	6.4576800330367	9.37296498236845	719.461432639871	-49.99093247268	-5.9435819356727	-2.24122756282963	-1.71499675215502	-0.00803115634724078	0.00395423867088046
0.34	6.44882479201188	9.44345644291904	719.612796971635	-50.2155949157233	-5.88368896308165	-2.24558770800914	-1.71828235466489	-0.00794283115394625	0.00424832258850595
0.35	6.4386627703911	9.51265061997864	719.845119350701	-50.4364361377488	-5.82219194603763	-2.2491916915537	-1.72104744492955	-0.00785153566018639	0.00452870736109538
0.36	6.42703082025569	9.58042299137743	720.160823870852	-50.6515156294638	-5.75826376967503	-2.25215447843821	-1.7234498471002	-0.00775606641864179	0.00479260894506849
0.37	6.41393246865928	9.64638335987082	720.555750314694	-50.8583536060723	-5.69112552846385	-2.25456354770562	-1.72560966486334	-0.00765536181119365	0.00503714295750939
0.38	6.39953314449198	9.70988353134235	721.019150756714	-51.0539808342192	-5.62007742792473	-2.256470228599	-1.72759960788909	-0.00754854573763693	0.00525938588480897
0.39	6.38414475366398	9.77004624558231	721.534122506285	-51.2350353843421	-5.54452868946084	-2.25788465536568	-1.72943948355617	-0.00743496378471398	0.0054564590741583
0.4	6.36820035658428	9.82581284408552	722.078459554657	-51.3979008673358	-5.46402460050012	-2.25877446553761	-1.7310950527905	-0.00731420947114043	0.00562563021403996
0.41	6.35222032066412	9.87600612321085	722.62587681327	-51.5388779047328	-5.37826896009519	-2.25906711361994	-1.73248115462159	-0.00718613894829175	0.00576442582927178
0.42	6.3367718857836	9.9194040393315	723.147536018228	-51.6543782838146	-5.287140387313	-2.25865544221815	-1.73346872415496	-0.00705087340576799	0.00587074754849069
0.43	6.32242455689972	9.95481943010719	723.613781044236	-51.7411296105856	-5.19070127207252	-2.25740596007559	-1.73389508138117	-0.00690878928189094	0.00594298457456256
0.44	6.30970409067705	9.98118070039571	723.995975070701	-51.7963774005749	-5.089198536026	-2.25516913169398	-1.73357666958993	-0.00676049712358469	0.00598011490763892
0.45	6.29904804092764	9.99760848529717	724.268323734255	-51.8180714978059	-4.98305581108328	-2.25179089213691	-1.73232328464947	-0.00660681051921606	0.00598178842171705
0.46	6.29076584572016	10.0034836268251	724.409567760601	-51.8050244911943	-4.87285710928168	-2.24712456478679	-1.72995276805566	-0.00644870691709483	0.00594838584270611
0.47	6.2850062614924	9.99850235561397	724.404435724346	-51.7570313569663	-4.75932252314043	-2.24104237672203	-1.72630514022625	-0.00628728234884755	0.00588104896288558
0.48	6.28173457269662	9.98271531869096	724.244762105268	-51.6749417967896	-4.6432769344249	-2.23344583019931	-1.72125522324857	-0.00612370213271388	0.00578167897872972
0.49	6.28072144002151	9.95654799732677	723.930196724177	-51.5606795214269	-4.5256130975938	-2.22427429130164	-1.71472293613138	-0.00595914958273196	0.00565290156730519
0.5	6.28154452216627	9.92080107036616	723.468457516527	-51.4172058714277	-4.40725078172096	-2.2135112886224	-1.70668062803336	-0.00579477464409013	0.00549799912239117
0.51	6.28360315700877	9.87663035072703	722.875107644169	-51.2484284696035	-4.28909388530181	-2.20118816594398	-1.69715703024972	-0.00563164425366453	0.00532081235336056
0.52	6.28614547312877	9.82550700685702	722.172868141389	-51.0590588556678	-4.17198757096164	-2.18738489363719	-1.68623763872632	-0.00547069611466777	0.00512561510886554
0.53	6.28830638789238	9.76915982714913	721.390506559606	-50.8544260576147	-4.056677495877	-2.17222800527752	-1.67406156857347	-0.00531269748417775	0.00491696773342669
0.54	6.28915410533358	9.70950224459009	720.561368426612	-50.6402556223405	-3.94377313828987	-2.1558857813339	-1.66081513534383	-0.00515821049280504	0.00469955542174469
0.55	6.28774202736737	9.64854766449638	719.721640021991	-50.4224256062304	-3.83371704563095	-2.1385609447036	-1.64672260265895	-0.00500756542277059	0.00447801884397891
0.56	6.28316250013765	9.58831728772984	718.90844660902	-50.2067123026072	-3.72676156508073	-2.12048125862991	-1.63203468379038	-0.00486084323138992	0.00425678473637209
0.57	6.27459858487323	9.53074505975664	718.157898935315	-49.9985389924749	-3.6229542767133	-2.10188852255514	-1.6170154914983	-0.00471786838813935	0.00403990416788071
0.58	6.26137010165626	9.4775845761894	717.503202117608	-49.8027407340028	-3.52213294997464	-2.08302654298562	-1.60192869461029	-0.00457821277051856	0.00383090580931429
0.59	6.24297055363215	9.43032272365632	716.972935086834	-49.6233571907352	-3.42393040600353	-2.06412871231201	-1.58702366276763	-0.00444121092911526	0.00363267077304308
0.6	6.2190921812277	9.3901045301501	716.5895962138	-49.463463820384	-3.32778921263664	-2.04540585694544	-1.57252236525725	-0.00430598650025149	0.00344733450542131
0.61	6.18963727804517	9.35767315506153	716.36849261923	-49.3250495256033	-3.23298568780386	-2.02703501561822	-1.55860773929736	-0.00417148895322549	0.0032762198660399
0.62	6.15471495649844	9.33332819380464	716.317028383781	-49.208946254752	-3.13866226185064	-2.00914977819836	-1.54541416105769	-0.00403653926515855	0.00311980399824473
0.63	6.11462369843676	9.31690454611366	716.434422017308	-49.1148132018232	-3.04386687003502	-1.99183275452166	-1.53302054255157	-0.00389988258592171	0.00297771997474752
0.64	6.06982116982476	9.3077730520714	716.711857814583	-49.0411753644269	-2.94759773051137	-1.97511065228459	-1.52144644306458	-0.00376024555159737	0.00284879258532539
0.65	6.02088382258836	9.30486299430984	717.133050773192	-48.9855134459404	-2.84885162473346	-1.95895232518307	-1.51065142949239	-0.00361639567475275	0.00273110611212499
0.66	5.96845966097348	9.30670546064743	717.675182087947	-48.944399586163	-2.74667364661375	-1.94327001122267	-1.50053775167954	-0.00346720020546061	0.00262210059319003
0.67	5.91321813871831	9.31149552010558	718.310143134368	-48.91367130293	-2.64020632967571	-1.92792382231304	-1.49095622407784	-0.00331168201104141	0.00251869197106346
0.68	5.85580142292757	9.31717024354843	719.006011275475	-48.8886344226665	-2.52873609869058	-1.91272937742421	-1.48171503287944	-0.00314907033036297	0.00241741070400017
0.69	5.79678118302818	9.32149884660883	719.728671388646	-48.8642847324167	-2.41173511985398	-1.89746830150675	-1.47259102841163	-0.0029788446665474	0.00231455290242798
0.7	5.73662463991986	9.32218068431925	720.443492972358	-48.8355376235851	-2.28889683272083	-1.88190115049836	-1.46334292634395	-0.00280077052868517	0.00220633783984221
0.71	5.67567287205767	9.31694650778945	721.11697396997	-48.7974551060367	-2.1601637250904	-1.86578217845162	-1.45372573744648	-0.00261492616134489	0.00208906575224965
0.72	5.61413337941778	9.3036583127319	721.718268640701	-48.7454602049891	-2.02574624283166	-1.84887524478024	-1.4435056812932	-0.00242171976679316	0.00195927014501358
0.73	5.55208773317421	9.28040326262186	722.2205272549	-48.6755298396084	-1.88613209222899	-1.83097007513605	-1.43247481823232	-0.00222189700498047	0.00181385932212716
0.74	5.48951388411903	9.24557753763238	722.601989226581	-48.5843587286446	-1.7420855740098	-1.81189804393576	-1.4204646561902	-0.0020165387475315	0.00165024248841661
0.75	5.42632146929875	9.19795651513808	722.846787518722	-48.4694885698595	-1.59463696755086	-1.79154664329219	-1.40735805075503	-0.00180704917962285	0.0014664364997603
0.76	5.36239734504125	9.13674839154308	722.945439693935	-48.3293985874022	-1.4450623443735	-1.76987184292097	-1.39309881173074	-0.00159513441627541	0.00126115010671358
0.77	5.2976576757274	9.06162916688021	722.895018758312	-48.1635554289878	-1.29485451819765	-1.74690762696597	-1.3776985482047	-0.00138277186223713	0.00103384331992204
0.78	5.23210229298455	8.9727577901359	722.69901393924	-47.9724222267354	-1.14568612417319	-1.72277211288426	-1.36124041777297	-0.00117217063196194	0.000784760300650333
0.79	5.16586675680899	8.87077116305528	722.366906838381	-47.7574283302339	-0.999366055699927	-1.69766980893943	-1.34387958531382	-0.000965723486506028	0.000514934938308023
0.8	5.09926761826088	8.75675958504014	721.913501252603	-47.5209027136997	-0.857790670199659	-1.67188974337533	-1.32584033583499	-0.000765950954711658	0.000226169021239717
0.81	5.03283679440062	8.63222405767102	721.358054791471	-47.2659753055289	-0.72289130499961	-1.64579939183067	-1.30740992008898	-0.000575438590039135	-7.90163535485805e-05
0.82	4.96734168517221	8.49901762471466	720.723266884795	-46.9964514611142	-0.596579723062149	-1.61983453117251	-1.28892933882631	-0.000396768659947027	-0.000397454740495531
0.83	4.9037886314408	8.35927357649451	720.034180735647	-46.7166654882737	-0.480693139022414	-1.59448534846185	-1.27078139135074	-0.000232447945771116	-0.000725431525067932
0.84	4.8434084584952	8.21532387383304	719.317056322018	-46.4313195432168	-0.376940462895739	-1.57027932386744	-1.25337642659078	-8.48337103414876e-05	-0.00105880140159693
0.85	4.78762408428172	8.06961152706319	718.598267978444	-46.1453143593257	-0.286851345929186	-1.54776157678938	-1.23713633961709	4.3939775738619e-05	-0.00139312246076086
0.86	4.73800140684077	7.92460088368035	717.903273870198	-45.8635781753366	-0.211729524035423	-1.52747350645444	-1.22247745104728	0.00015203151468499	-0.001723802464871
0.87	4.69618583450416	7.78268982186271	717.255696419051	-45.5908999236169	-0.152611832149162	-1.50993066386895	-1.20979298637241	0.000237958120022671	-0.00204625223525801
0.88	4.66382780877842	7.64612770941825	716.676543154976	-45.3317722561477	-0.110234110285983	-1.49560085468293	-1.19943592996405	0.000300649505981573	-0.00235604055745167
0.89	4.64250143199716	7.51694266873456	716.18358729469	-45.0902493595852	-0.0850050414144299	-1.48488348751922	-1.19170305599754	0.000339493430998653	-0.00264904468639808
0.9	4.63362080699015	7.3968811965099	715.790917310932	-44.8698237748636	-0.076988754904125	-1.47809114726952	-1.18682092734456	0.000354366771006652	-0.00292159046113857
0.91	4.63835890172148	7.28736254054358	715.508655511511	-44.6733256228993	-0.0858968001155951	-1.47543428803364	-1.18493459692093	0.000345651910154942	-0.00317057625828883
0.92	4.65757366559124	7.18944946274322	715.342837733565	-44.5028467751952	-0.11108984613621	-1.47700980888136	-1.18609964070584	0.000314237251746737	-0.00339357554713262
0.93	4.69174576141724	7.10383615522888	715.295440063129	-44.3596916227266	-0.151589200033126	-1.4827941033368	-1.19027799911526	0.000261501525893299	-0.00358891365030499
0.94	4.74093166861935	7.03085317024166	715.364534224624	-44.2443552115191	-0.206097962443675	-1.49264096885498	-1.19733791049987	0.000189282255807439	-0.00375571542832558
0.95	4.8047351010028	6.97048832510009	715.544550978686	-44.1565286490464	-0.27303136185191	-1.50628453611475	-1.20705799939495	9.98293982617313e-05	-0.00389392193233703
0.96	4.88229871701222	6.9224217035115	715.826630375304	-44.0951308595954	-0.350555534297285	-1.52334714170855	-1.21913534911732	-4.25424044788971e-06	-0.00400427552477845
0.97	4.97231703642636	6.88607214562712	716.199038738402	-44.0583649945417	-0.436633751037498	-1.54335183450793	-1.23319716208667	-0.000120083719810829	-0.00408827445690927
0.98	5.0730703721485	6.86065204781018	716.647634400307	-44.0437970988422	-0.52907885098222	-1.56573898823801	-1.24881541060464	-0.000244571336552408	-0.00414809931644121
0.99	5.18247849552706	6.84522691710892	717.156366986343	-44.0484540105682	-0.625610416129771	-1.58988630223628	-1.26552372218669	-0.000374511912332034	-0.00418651502602855
1	5.2981717325413	6.8387759711944	717.707797982333	-44.0689369377326	-0.7239150455645	-1.61513131887141	-1.2828356389441	-0.00050667111050378	-0.00420675310721908
1.01	5.4175762860023	6.84025015428253	718.283632949718	-44.101546727199	-0.821707945355254	-1.64079547714395	-1.30026334619349	-0.000637873860485395	-0.00421237966948171
1.02	5.5380098396067	6.84862424997868	718.865257717618	-44.1424165247315	-0.916793965667715	-1.66620866227021	-1.3173359813459	-0.000765090039352032	-0.0042071550100363
1.03	5.65678295980479	6.86294029368306	719.434271933921	-44.1876473331042	-1.00712618885206	-1.69073320228011	-1.33361670419531	-0.000885514726598208	-0.00419489081305571
1.04	5.77130149860624	6.88234018545735	719.973013400776	-44.2334419151951	-1.09086020742975	-1.71378630363434	-1.34871782327751	-0.000996640597377705	-0.00417931073558658
1.05	5.87916513175439	6.90608623091811	720.465065710818	-44.2762325676472	-1.16640233052123	-1.73486000472807	-1.36231341636674	-0.00109632033761115	-0.00416391970070982
1.06	5.97825734743606	6.93356923426459	720.895740042866	-44.3127985114599	-1.23245012035283	-1.75353785281027	-1.37414904186118	-0.0011828173349258	-0.00415188653807651
1.07	6.0668226234439	6.96430466915749	721.252519894701	-44.3403690082307	-1.28802388337979	-1.76950766854582	-1.38404829822017	-0.00125484330500596	-0.00414594377742084
1.08	6.14352717518658	6.99791829360774	721.525455434142	-44.3567088091395	-1.33248801709895	-1.78256994434514	-1.3919161397144	-0.00131158193608315	-0.00414830747276342
1.09	6.20750049066591	7.03412329190753	721.707492481136	-44.3601831668945	-1.36556143551523	-1.79264161839332	-1.39773899095169	-0.00135269805898771	-0.00416061897086217
1.1	6.25835584834854	7.07269156659528	721.794720317873	-44.3498003714408	-1.38731665345206	-1.79975516683719	-1.40158181608441	-0.00137833226355279	-0.00418390958661284
1.11	6.29618908813904	7.11342212690905	721.786522916044	-44.3252305850044	-1.39816749111311	-1.80405315320042	-1.40358239079433	-0.00138908127572988	-0.00421858825031802
1.12	6.3215560170614	7.15610960503829	721.685620009442	-44.2868006223925	-1.39884575316201	-1.8057785590216	-1.40394309810148	-0.00138596477999324	-0.00426445137617681
1.13	6.33542991967172	7.20051577535012	721.497987815518	-44.2354652154304	-1.39036762800574	-1.80526138620292	-1.40292062614587	-0.00137037971940265	-0.00432071348700325
1.14	6.33914164888584	7.24634657248139	721.232654042178	-44.1727561800949	-1.37399092935009	-1.80290216393198	-1.40081399092354	-0.00134404343496826	-0.0043860565273693
1.15	6.3343056394808	7.29323653833216	720.901367858153	-44.1007117342005	-1.35116464956935	-1.79915310663124	-1.39795134226962	-0.00130892732124895	-0.00445869530973874
1.16	6.32273586424145	7.34074192752389	720.518152357047	-44.0217889559911	-1.32347259914176	-1.79449775051115	-1.3946760384245	-0.00126718297873364	-0.00453645616490484
1.17	6.30635620146234	7.38834292815122	720.098754190364	-43.9387629959783	-1.29257315493919	-1.78942994224836	-1.39133249281705	-0.00122106313285458	-0.00461686560598323
1.18	6.28710987482639	7.43545467639636	719.660011897939	-43.8546171267904	-1.26013732012136	-1.784433062457	-1.38825230427166	-0.00117283985477168	-0.0046972456603739
