Time [s]	GRFml [N]	GRFap [N]	GRFv [N]	Mml [N.m]	Map [N.m]	Mv [N.m]	Mfree [N.m]	COPml [m]	COPap [m]
0.01	-1.00496865513235	1.50307021434069	867.928220385297	2.81133373330373	63.2125251124782	0.393783025917192	-0.50650480646891	-0.000600815843733393	-0.00402323192420923
0.02	-1.06446270214231	1.57025773260909	867.804918521169	2.85835942335185	63.3303675749096	0.413241879126037	-0.531373771582077	-0.000546916631301242	-0.00387355729436095
0.03	-1.12779780906589	1.62924844071857	867.652937352443	2.90007545728939	63.4457164008985	0.431182476293284	-0.554131238189986	-0.000498876973858309	-0.00372450940516511
0.04	-1.19791392100765	1.67243859187702	867.453992112237	2.9324969090991	63.5561771961476	0.44617394190885	-0.572792305882594	-0.000461100393048919	-0.00357743692622309
0.05	-1.27622397380292	1.69436246474418	867.210858159099	2.95382399838689	63.6611439984534	0.457031067770012	-0.58577073291028	-0.000435613627692066	-0.00343333743194707
0.06	-1.36216437058421	1.69260738167258	866.948838677165	2.96461540199808	63.7619853474518	0.46300484524081	-0.59213564062265	-0.000421882054009171	-0.0032927591783074
0.07	-1.45310607607772	1.66835144619575	866.709395573477	2.96727681848437	63.8614864627557	0.463960639832782	-0.591829043893425	-0.000417366308536948	-0.00315591932120585
0.08	-1.54470500745172	1.62634868815375	866.538298173878	2.9651183285321	63.9627935593223	0.460461513215276	-0.585749222708631	-0.000418540985503979	-0.00302294785088142
0.09	-1.63168532917528	1.57425660420164	866.472245477708	2.96134511252178	64.0682639806277	0.453695931849796	-0.575631537681928	-0.000421977703133347	-0.00289411564306596
0.1	-1.7089263383735	1.52132929293247	866.528048952222	2.95830573362975	64.1786132967811	0.445245337749615	-0.563723413321143	-0.000425142442370685	-0.00276993021744903
0.11	-1.77260671179008	1.47665956021243	866.697316834723	2.95717581451926	64.2926036239678	0.43674864639172	-0.552323086381469	-0.000426719755654559	-0.00265105879410615
0.12	-1.82110476921782	1.4473073260693	866.947745679359	2.95807920715819	64.4073206750048	0.429559322399487	-0.543301474335836	-0.000426469043887212	-0.00253811569539802
0.13	-1.85539533835682	1.43675018864107	867.230287084515	2.96051189152266	64.5189211041307	0.424491452366736	-0.537734849492245	-0.000424765632594415	-0.00243139288066757
0.14	-1.87881692169425	1.44408448127108	867.490131246785	2.96387101673154	64.6236374870251	0.421717550405923	-0.535742416271468	-0.000422044081097805	-0.00233061268612855
0.15	-1.89626342888035	1.46426088417939	867.678837992398	2.96790192139768	64.7188031688283	0.420830040318777	-0.536562166738445	-0.000418345232783723	-0.00223475969320047
0.16	-1.91302284306351	1.4893713902075	867.764975104238	2.9729358793348	64.8036784290721	0.421031677744002	-0.538832473918674	-0.000413099238028125	-0.00214202618273795
0.17	-1.93358930439595	1.51068447809939	867.741088079387	2.97987110533791	64.8799019751554	0.421392377140094	-0.540995587145873	-0.000405187364365234	-0.00204989073561412
0.18	-1.96078650440728	1.52086505780171	867.625548007538	2.98992549028039	64.9514527699201	0.421104373741587	-0.541714230619103	-0.000393242127395332	-0.00195533481675125
0.19	-1.99545549731754	1.51572661927597	867.458725316692	3.00424727249707	65.0240913066201	0.419678671117633	-0.540196547675104	-0.00037608380040377	-0.00185517763631637
0.2	-2.03679812393927	1.49500127059326	867.293987769314	3.02350248213348	65.1043551147816	0.417044922784039	-0.536353606488308	-0.000353159038994577	-0.00174647617593415
0.21	-2.08326769912323	1.46194308187287	867.185137505734	3.04756277112919	65.198292069781	0.413538640507619	-0.530759398385051	-0.000324846777321808	-0.00162690961160533
0.22	-2.13371719690283	1.42197865733227	867.172877404183	3.07539374739613	65.3101950374595	0.409782236628147	-0.524435016052804	-0.000292527463637171	-0.00149506385220721
0.23	-2.18841182317105	1.38092775369197	867.273437041605	3.10519463428265	65.4416223764852	0.406489505985919	-0.518524431774301	-0.000258370398367291	-0.0013505603260382
0.24	-2.24953121034437	1.34341513971134	867.472333327702	3.1347727510225	65.5909386748155	0.404244021073688	-0.513957400501788	-0.000224870735518024	-0.00119402306976524
0.25	-2.32093282744507	1.31195621853046	867.725298247201	3.16206619340323	65.7535004217473	0.403314156864113	-0.511197185381675	-0.000194244832857127	-0.00102692630449958
0.26	-2.40718200523405	1.28690034310705	867.966817977878	3.18567648408557	65.9224705304267	0.403563383585195	-0.510145061064031	-0.000167846048759968	-0.000851389213752274
0.27	-2.51209769037418	1.26709418294376	868.12484292328	3.20526015706353	66.0901061360507	0.40449006641716	-0.510225933678161	-0.000145770552505753	-0.000669978200340149
0.28	-2.63723055828736	1.25090918199479	868.138509891658	3.22166296979323	66.2492534244849	0.405390415517608	-0.510623202130402	-0.000126775721283945	-0.000485548987780415
0.29	-2.78072254048258	1.23722182863334	867.974628704499	3.23675253793273	66.3947229517459	0.405594330853387	-0.510583274291484	-0.000108545550595807	-0.000301129033757674
0.3	-2.93688801823798	1.22602425123083	867.638582621347	3.25298853653426	66.5242262361807	0.404694089958611	-0.50968683342432	-8.8239710897331e-05	-0.00011981849922249
0.31	-3.09665439204653	1.21850828826364	867.176333671986	3.27283552200317	66.6386390482825	0.402684474131371	-0.50799444749497	-6.31894708589265e-05	5.53199354364486e-05
0.32	-3.24877980756279	1.21663802671662	866.666293576552	3.29815541574764	66.7415115632137	0.399963898347026	-0.506017292330477	-3.15738972962443e-05	0.000221406956718351
0.33	-3.38159676321673	1.22235979521504	866.202485328236	3.32971560161671	66.8379379805819	0.397199389306031	-0.504526581911251	7.07838596158972e-06	0.000375935815231598
0.34	-3.48494373065079	1.2366807863861	865.872971954256	3.36692527183197	66.9330737917441	0.395112734140676	-0.504275727574496	5.16779210648632e-05	0.000516984761430694
0.35	-3.55193307025011	1.25887947364548	865.739150297005	3.40787554193511	67.0306886817445	0.394277102051829	-0.505743612580001	9.97174494276054e-05	0.000643400324707111
0.36	-3.58023181783973	1.28609391154817	865.821548196029	3.44970765933628	67.1321289962375	0.395007383588148	-0.509000004297513	0.000147770706097949	0.000754877147504052
0.37	-3.57258200675067	1.3134635635079	866.096035689936	3.48926466561023	67.2359375036009	0.39738400196344	-0.51374516935066	0.000192273885234462	0.000851867820176322
0.38	-3.53636837128893	1.33487510188676	866.501311172365	3.52390019347298	67.3381834569465	0.401386824196215	-0.519502966983048	0.000230435168350196	0.000935303958283284
0.39	-3.48218384536675	1.34419842042979	866.955147826995	3.55224556503714	67.4333610645823	0.407060956920142	-0.525879452325096	0.000261050524118511	0.00100618717157419
0.4	-3.42156428170322	1.3367364531932	867.37437489482	3.57470719701873	67.5155837453186	0.414615389638606	-0.53276642094373	0.000284984593776016	0.00106518302716374
0.41	-3.36433005358368	1.31050817138165	867.692817454987	3.59350996878708	67.5797688729462	0.424380311806181	-0.540387402804725	0.0003051323050971	0.00111238147975212
0.42	-3.316191288178	1.26698741763094	867.87263637279	3.61222301860575	67.6225658995256	0.436611318390647	-0.549147617832507	0.000325812401657521	0.00114734648790671
0.43	-3.27732932865042	1.21104511413899	867.907131017106	3.63487054428647	67.6428914388094	0.451203830165482	-0.55933500842723	0.000351723358864353	0.00116947199682543
0.44	-3.24248385786832	1.15005495743352	867.816007120946	3.66488054392104	67.6420513434269	0.467437752066802	-0.570792369855109	0.000386750097876587	0.0011785340105353
0.45	-3.20267127934131	1.09235281753487	867.63624170468	3.7041937612406	67.6235177944798	0.483885573892241	-0.582710135885167	0.000432977696866788	0.00117524023493421
0.46	-3.14815646560166	1.04541229472436	867.412287805924	3.75280598094635	67.5924753984434	0.498577017609724	-0.593660340690544	0.000490207529450615	0.00116157709827441
0.47	-3.07187566872895	1.01416546870849	867.188423809321	3.80886210842524	67.5552565727309	0.509429085182826	-0.601910906954083	0.000556097744207174	0.00114084404746367
0.48	-2.97232412321183	0.99985443868017	867.004177190046	3.86922222757612	67.5187621662367	0.514847869523793	-0.605952156866375	0.00062683220890325	0.0011174028705786
0.49	-2.85505115437546	0.999675968801081	866.891900067669	3.9302623855061	67.4899193843478	0.514323584934506	-0.605073037963274	0.00069805150062574	0.0010962829531837
0.5	-2.73230385934529	1.00731877711528	866.874630101999	3.98862237552189	67.4751798207938	0.508807853523009	-0.599781026200882	0.000765726800980415	0.00108280956172407
0.51	-2.62088719169646	1.01432017537902	866.962763228487	4.04168441844591	67.4800247252997	0.500703256419525	-0.591889635215693	0.000826737048927328	0.00108234542821373
0.52	-2.53878980756338	1.01200102240677	867.149566940481	4.08771726940037	67.5084428132882	0.493405411561229	-0.584197116138219	0.000879072932891578	0.00110009977858261
0.53	-2.50142391055732	0.993590052201447	867.407370224202	4.12577165934908	67.5623891320619	0.490485177199675	-0.579817432631005	0.000921753274798043	0.0011408480098794
0.54	-2.5183837057015	0.95605077901594	867.687348917589	4.15549263839507	67.6413118918602	0.494731551130229	-0.581350411378557	0.000954623440113989	0.00120839993833344
0.55	-2.59145759458465	0.901121932005061	867.925421734408	4.17699226672697	67.7419124260729	0.507342833732847	-0.590144058055334	0.000978182200334632	0.00130478217471591
0.56	-2.71429968577097	0.835215060602366	868.054801466468	4.19082780443291	67.8583310568294	0.52752439374844	-0.605881561392341	0.00099348319613024	0.00142930980037365
0.57	-2.87376359078708	0.768081866251712	868.022917622325	4.19802071888183	67.9828873802124	0.552630983375153	-0.626624174234977	0.00100204968420359	0.00157790309374944
0.58	-3.05251780321728	0.710511671731134	867.807966853656	4.19999734273798	68.1073430645456	0.578820180994765	-0.649295213871021	0.00100569558251606	0.00174304169112288
0.59	-3.23228355498037	0.671638461587053	867.429448225054	4.19836513634379	68.2244457861653	0.602021682861145	-0.670452360199929	0.0010061911735012	0.00191458828188235
0.6	-3.39692912022835	0.656606851828945	866.948295088411	4.19453983582525	68.3293417183943	0.618932069565296	-0.687113324788084	0.00100482168397698	0.00208140360832315
0.61	-3.53474620756343	0.665286456049266	866.455313767051	4.1893491028554	68.4204018672688	0.627747878412444	-0.697399018529681	0.0010019947653529	0.00223334630216587
0.62	-3.63949825515167	0.692433848727627	866.050471763337	4.18279201093096	68.4991424600271	0.628445525042765	-0.700832465709344	0.000997089880470758	0.00236305991107988
0.63	-3.71018949823296	0.729267908526344	865.818701209253	4.17409481755327	68.5692047398657	0.622566093139679	-0.698248581739708	0.00098867650770218	0.00246699478488516
0.64	-3.74985007346567	0.765992099737786	865.809123439616	4.16208491674719	68.6346955619102	0.612612209627725	-0.691386406229829	0.000975081647132781	0.00254538629022905
0.65	-3.7638642444296	0.794512045895552	866.023522937458	4.14576151321209	68.6984443588881	0.601265763218501	-0.682315223392782	0.000955127056517457	0.00260130014348658
0.66	-3.7584242069115	0.810550529488385	866.416948754826	4.12484211432853	68.7607961368478	0.590664363561337	-0.672871592963604	0.00092876009087195	0.00263919608716917
0.67	-3.73956680385483	0.814561719675062	866.909605129033	4.10005710240549	68.819398583403	0.58193306568759	-0.66425819754403	0.000897318554335724	0.00266361169410556
0.68	-3.71299402625894	0.81121775344322	867.406019230046	4.07305647851755	68.8701065869658	0.575077607591689	-0.656893589223104	0.000863298096026255	0.00267847041330499
0.69	-3.68457231146884	0.80766215741363	867.815857786077	4.04594537773061	68.9087375684194	0.569235878067352	-0.650524725982901	0.000829679290247909	0.00268721574048164
0.7	-3.66114067537676	0.811072206534848	868.07108168702	4.02061467780918	68.9331028726293	0.56318365955476	-0.644540207888213	0.000799043823466739	0.00269358995149804
0.71	-3.65111188634111	0.826256443284148	868.136032153782	3.99811911556696	68.9446198591902	0.555921250195868	-0.638366817463329	0.000772796176803481	0.00270256460132201
0.72	-3.66437425433496	0.853995031559109	868.009650738602	3.97834400257027	68.9489164451511	0.547145403520121	-0.631808391427083	0.0007507752655872	0.00272081771934451
0.73	-3.71120255186075	0.890620160643666	867.721304763237	3.96009757478568	68.9551391145854	0.53744460919819	-0.625203549958436	0.00073140251662418	0.00275629329451926
0.74	-3.800222942012	0.928984631420929	867.322841038653	3.94160852854207	68.9740699138116	0.528141693547746	-0.619338118342493	0.000712320687183632	0.00281673102004504
0.75	-3.93585701927784	0.96056643312296	866.879319575764	3.92125567297948	69.0155225491726	0.520825795696198	-0.615135615434195	0.000691301509425868	0.00290749180030442
0.76	-4.11597041138377	0.978113867152389	866.459812467406	3.89826495424072	69.0857104771081	0.516729222538985	-0.613236410047548	0.00066710285573468	0.00302935824554801
0.77	-4.33055129103473	0.978053972074166	866.128508788631	3.87311258608157	69.1852983564414	0.516170658891361	-0.613628090440585	0.000639971512932602	0.00317711216607852
0.78	-4.56207271567841	0.961932078993195	865.935912116788	3.84747202430223	69.3086668569399	0.518274069352075	-0.615480534425932	0.000611609921602696	0.00333951841039531
0.79	-4.78776777156388	0.936418171267217	865.910444213822	3.82370315816743	69.4446029815341	0.521080939309177	-0.617267359506284	0.000584611420367365	0.00350092426932092
0.8	-4.983483807658	0.911826538606067	866.051909627252	3.80404742155	69.5782684142976	0.522034782678537	-0.617147409274979	0.000561553500632583	0.00364416078798557
0.81	-5.1282628018317	0.899521148273695	866.329191728911	3.78980223836363	69.6939899180802	0.518685062014751	-0.613480107910714	0.000544057240708384	0.00375399239387775
0.82	-5.20850083855975	0.908893321555493	866.684400107031	3.78076094521817	69.7782260600765	0.509384062243323	-0.605298685826683	0.000532131529847435	0.00382015973512012
0.83	-5.22058263468481	0.944718935785996	867.044141580594	3.77511458443212	69.8220271521689	0.493760330535298	-0.592584886030649	0.000524020356708066	0.00383916563616521
0.84	-5.17126436746601	1.00561068348846	867.336085749206	3.76985333476991	69.8224220041428	0.472836097880929	-0.576266438236651	0.000516598655877498	0.00381432481003391
0.85	-5.07567384363208	1.08401088630489	867.506606993352	3.76153669036121	69.7824107455488	0.448775987273983	-0.557959064092264	0.000506180325630212	0.00375410503462631
0.86	-4.95342723366509	1.16778766375898	867.534190508191	3.74718229624493	69.7095690968599	0.424364097692833	-0.539556469169799	0.000489473319839173	0.00366926460324979
0.87	-4.8238413027629	1.24308524272965	867.43418239126	3.72499121654391	69.6136078710638	0.402371115519094	-0.522805520194421	0.0004643796544892	0.00356959550513924
0.88	-4.70142358922817	1.29773320837704	867.253158330433	3.69468787271613	69.5035023121991	0.384979646728154	-0.50898387986359	0.000430398193428161	0.00346114034312978
0.89	-4.59271417462297	1.32433601650504	867.054665763403	3.65738246449274	69.384933692233	0.373394031583795	-0.498740805718046	0.000388521701787492	0.00334457244677006
0.9	-4.49518167973446	1.32221361274629	866.900969295042	3.61502009382546	69.2587224168018	0.367694010028508	-0.492097844655622	0.000340684567503247	0.00321508802384257
0.91	-4.3983533078558	1.29765530194284	866.836568142736	3.56961494145818	69.120679564781	0.36692558850006	-0.488561610937404	0.000288963445214341	0.00306376378930806
0.92	-4.28682121559807	1.2624091408117	866.878283462413	3.52253659968266	68.9629233916512	0.369375505700512	-0.487288491736653	0.000234813464043637	0.00287998768020209
0.93	-4.14434611602007	1.23081966432241	867.014139369698	3.47409529090856	68.7763062408448	0.37295355753189	-0.48725611662235	0.000178609167732491	0.00265434949224369
0.94	-3.95806837058956	1.21639316299958	867.210195083741	3.42356849415525	68.5532950999143	0.375604756792838	-0.487421870455578	0.000119653577582146	0.00238131623055976
0.95	-3.72187161403934	1.22869986331705	867.422122095297	3.36965796479241	68.2905352245464	0.375681712232628	-0.486866834860298	5.66546488428576e-05	0.00206110548214533
0.96	-3.43819202069083	1.27138613376917	867.607431722425	3.31121545389917	67.9904287461105	0.372220270701833	-0.484925617788993	-1.14984049973677e-05	0.00170036990301192
0.97	-3.11794560140466	1.34172453968081	867.734923365289	3.24797859242545	67.6613386000691	0.36507753500965	-0.481292247988684	-8.49386508290362e-05	0.00131156359772977
0.98	-2.7786587698252	1.43169339454726	867.789588305267	3.18104751980979	67.316393025657	0.354913212019335	-0.47608122874765	-0.000162303520221507	0.000911125398882107
0.99	-2.44125259102512	1.53018489124236	867.773012665833	3.11291178833912	66.9712128292316	0.343023438427745	-0.469821923656328	-0.000240711788781267	0.000516843907131526
1	-2.12619492431043	1.62569755191724	867.700538928785	3.04698196425264	66.6411259458281	0.33106637683867	-0.463377307136658	-0.000316292071841029	0.000144933323778296
1.01	-1.84986089442648	1.70882143614381	867.596755069897	2.98674723503511	66.3385228473859	0.320742619753045	-0.457799692798193	-0.000385130752336371	-0.000192578999844928
1.02	-1.62190067113648	1.77395584642276	867.490461395361	2.93481702269662	66.0709357285608	0.313502477394588	-0.454156209667109	-0.000444349570508984	-0.000489595488773809
1.03	-1.44418777188653	1.81994525365751	867.409610332664	2.89216441199069	65.8402234013954	0.310342284484278	-0.453365826013127	-0.000492951752523729	-0.000746432971327982
1.04	-1.31153353940369	1.84959959248423	867.376327930458	2.8578450888154	65.6429657679599	0.311724672921576	-0.456082905852865	-0.000532123800806805	-0.000968940029348386
1.05	-1.21388784480421	1.86831181217621	867.402251141043	2.82932165774906	65.4718827308269	0.317620775990114	-0.462642015900523	-0.000564844561164568	-0.00116647588394231
1.06	-1.13933984645494	1.88215863818049	867.484923551437	2.80331954823823	65.3178607454326	0.327636835371407	-0.473053850355644	-0.000594888170016405	-0.00134928702590176
1.07	-1.07703055631205	1.89595756549406	867.606474571274	2.77694509479488	65.1720537567989	0.341165681547031	-0.487024703359059	-0.000625533775225118	-0.0015259931526167
1.08	-1.01917697080875	1.91175579806008	867.735808206848	2.74868343059903	65.0275554182217	0.357503707864655	-0.503971512655144	-0.000658425078411851	-0.00170186132645939
1.09	-0.961763367401796	1.92814510029549	867.83480701689	2.7189155459945	64.8803065620177	0.375897425279283	-0.52302265184661	-0.00069299593584049	-0.00187829610744067
1.1	-0.903947266558203	1.94062567879847	867.867746995485	2.68975397721528	64.729151505363	0.3955219476128	-0.543022199010091	-0.000726690319780454	-0.00205357672748702
1.11	-0.846666061988632	1.94298934676901	867.811702254613	2.66424235100224	64.5752051248182	0.415430543856439	-0.562575780858036	-0.000755917895328806	-0.002224467330256
1.12	-0.791148039566089	1.92939989170176	867.664828063807	2.64520248054632	64.4208574171022	0.434532312817725	-0.580174071443472	-0.000777409132540985	-0.00238806158830041
1.13	-0.737952712757039	1.89660176811189	867.449545419908	2.63414786340731	64.268775505011	0.451644439095782	-0.594401582792799	-0.000789478357529738	-0.00254319640305389
1.14	-0.686836369152308	1.84558797704121	867.208930104207	2.63065749602985	64.1211695422576	0.465630521449034	-0.604195048898526	-0.000792735392750821	-0.00269098567372589
1.15	-0.637308260940087	1.7821697211017	866.996686733579	2.63242826382946	63.9794216218516	0.475593886653019	-0.609079583238155	-0.000789994908147795	-0.00283439384902801
1.16	-0.589401598602844	1.71619965033826	866.863252429303	2.63596997602561	63.8440123047841	0.481065484435318	-0.609302536135907	-0.00078543224263472	-0.00297714142911015
1.17	-0.544084486824296	1.65960775551093	866.842014732571	2.63767636141302	63.714585973033	0.482123705302983	-0.605811849634034	-0.000783305312495486	-0.0031224634915713
