Time [s]	GRFml [N]	GRFap [N]	GRFv [N]	Mml [N.m]	Map [N.m]	Mv [N.m]	Mfree [N.m]	COPml [m]	COPap [m]
0.01	-2.81372535486189	1.57065317263835	857.759024461747	5.54896632770589	63.5568952614573	0.476506094995896	-0.61112894807135	0.000945844834443266	-0.00267128480165685
0.02	-2.87570465253057	1.66216361789871	857.713365529924	5.46781562697568	63.478175875772	0.456792041526176	-0.598133350857447	0.000852564495533614	-0.00275231153147631
0.03	-2.94448615642245	1.74704123357371	857.707178919444	5.38379576319671	63.4137964390223	0.44029777250556	-0.587916106215622	0.000755631202188356	-0.00282006026319076
0.04	-3.02346814867894	1.81993004672108	857.769916810048	5.29595706412948	63.3747109718321	0.429626088913513	-0.582715167485575	0.000653719226562988	-0.00286432404598397
0.05	-3.10914526039754	1.87824176626259	857.912174372366	5.2053560002873	63.3646618898206	0.426048678613888	-0.583598543464311	0.000547999041619063	-0.00288166209110302
0.06	-3.19094808235272	1.92248054212543	858.122606469478	5.11480125335347	63.3792045600612	0.429221329815907	-0.590200267873703	0.00044186040226013	-0.00287627393117779
0.07	-3.25384319650491	1.9556873312755	858.370852352506	5.02787883509245	63.4071271758755	0.437300100347134	-0.600809315398682	0.00033974221150368	-0.00285860436680241
0.08	-3.28279539851457	1.9822879091817	858.615611235787	4.94769756926728	63.4337453422144	0.447425337326379	-0.612794972506412	0.000245594911543301	-0.00284220759494963
0.09	-3.26750229819068	2.00679137343118	858.81561679772	4.87587023023747	63.4449799894598	0.456448465686471	-0.623267579076965	0.000161599157632364	-0.00283994368932611
0.1	-3.2056838930897	2.03276376835308	858.940473679658	4.81208680927164	63.4309274416963	0.461719322066215	-0.629813105941447	8.7583922746548e-05	-0.00286074807845671
0.11	-3.10371523486878	2.06233712756965	858.978356694478	4.7543485469108	63.3878600042548	0.461740144928457	-0.63111841475353	2.12482106285439e-05	-0.00290795406341687
0.12	-2.97436565895363	2.09629875195848	858.938461093099	4.69965867914891	63.3181639210155	0.456525418532055	-0.627326712783508	-4.10375039665567e-05	-0.00297956562129631
0.13	-2.83249405640151	2.13462392488523	858.847612888441	4.64482425414451	63.228424615608	0.447576634593852	-0.62002602960109	-0.000103253041437323	-0.003070190589058
0.14	-2.69032069741944	2.17721064765366	858.742157416945	4.58705485402032	63.1264617642065	0.437474610107681	-0.611864967397464	-0.000168953514128822	-0.00317379938600881
0.15	-2.55403595082659	2.2245462010394	858.657598781211	4.52420867635832	63.0184005112657	0.42919061664173	-0.605888496823521	-0.000240895153770904	-0.00328625683802158
0.16	-2.42294954205178	2.27806135039458	858.619019811857	4.45474024384798	62.9067582126973	0.425297052934185	-0.604765568011452	-0.000321024269088976	-0.00340674330185464
0.17	-2.29135300420047	2.33999629174052	858.634909019328	4.37754664811205	62.7900897830523	0.427293539397816	-0.610114579592833	-0.000410619839632642	-0.00353765251051424
0.18	-2.15218405878532	2.41271812870219	858.695844286912	4.29192904222193	62.6641460076498	0.435238298122284	-0.622108182313756	-0.000510345788625299	-0.0036831382461846
0.19	-2.00088856126255	2.49759779862569	858.77798526167	4.19778404766406	62.5239797466212	0.447788878314386	-0.639460023667106	-0.000620074587411645	-0.00384696053456363
0.2	-1.83785234111635	2.5937501058781	858.850028192885	4.09597416444793	62.3661656953107	0.462633961590138	-0.659786403445184	-0.000738525914618648	-0.00403048741866452
0.21	-1.66842029275942	2.69709498199849	858.881554891408	3.98868306003943	62.1903547531233	0.477177995605436	-0.680229776626349	-0.000862925780983792	-0.00423158472549606
0.22	-1.50055603142678	2.80021930670804	858.850669850216	3.87951417858416	61.9997115551555	0.489263263512399	-0.698161227298917	-0.000988948313455196	-0.0044447431847871
0.23	-1.34118992036111	2.8933428548222	858.749316964373	3.77316732299723	61.8002340664944	0.497706689324364	-0.711765438780019	-0.00111112042610018	-0.00466231069888878
0.24	-1.19285162631047	2.96633518621253	858.585409859338	3.67469754534644	61.5993468387257	0.502494545558358	-0.720356278201773	-0.00122368105247972	-0.0048763032409127
0.25	-1.05207428260073	3.01130480995819	858.381621385783	3.58854900002778	61.4043550583218	0.504595242477083	-0.72435833948731	-0.00132167540525541	-0.0050801000342377
0.26	-0.910352329952284	3.02496138575411	858.171211638946	3.51767745733785	61.2212960778561	0.50547815358879	-0.724991629054022	-0.0014019287463829	-0.00526943175497729
0.27	-0.757430529368367	3.00989669630573	857.99163802559	3.46307108223007	61.0544800973683	0.50652007219147	-0.723780981132723	-0.00146355031768131	-0.00544238525704172
0.28	-0.585795767694599	2.97420819588426	857.876978362388	3.42384677796967	60.9066928365369	0.508507489306891	-0.722052798573338	-0.00150777098246069	-0.00559854202591464
0.29	-0.394771174535889	2.92942895350885	857.850470846232	3.39789206286044	60.7797754393875	0.5113945523272	-0.720568366551318	-0.00153715736878912	-0.00573768866732394
0.3	-0.192721655077533	2.88733549456484	857.91868232234	3.38282503243727	60.6751947217404	0.514374046706615	-0.719383289492485	-0.00155447304953582	-0.00585867295636022
0.31	0.00350303185931253	2.8566394502582	858.06880228761	3.37693566594678	60.5942909573339	0.516203093352071	-0.717940378177421	-0.00156158260337913	-0.00595889166877289
0.32	0.171878360942582	2.84064703848779	858.270153602132	3.37978869233528	60.5380883796385	0.515640920794065	-0.715328918749652	-0.00155877226351764	-0.00603463336011362
0.33	0.290409998360673	2.83665013529848	858.480148174405	3.39229688321959	60.5067798048766	0.511832861846868	-0.7106019546288	-0.00154470755735148	-0.00608216602446826
0.34	0.342811449217447	2.83721334726301	858.65372820711	3.41625836302296	60.4991557378937	0.504516545767363	-0.703045953322167	-0.00151702865336245	-0.00609917744300753
0.35	0.323087997558842	2.83287192472409	858.754153533505	3.45352303922999	60.512282572621	0.494011034446256	-0.692337287547883	-0.00147337978562667	-0.00608603877504088
0.36	0.237741451225042	2.81529730651525	858.762264451769	3.5050574318096	60.5416425630898	0.481039564888806	-0.678576445948954	-0.00141254501307631	-0.00604640766538861
0.37	0.104920169445285	2.77987942837561	858.681445920531	3.57019241977771	60.5817774581403	0.46649396689629	-0.662237795279288	-0.00133534572097094	-0.00598689252435108
0.38	-0.0493790490559727	2.72693793743498	858.536571172382	3.6462758164135	60.6272983493448	0.451251761393141	-0.644090282932206	-0.00124503362199968	-0.00591579423838517
0.39	-0.197180217220917	2.66129142021068	858.366973542742	3.72884119232022	60.6739987193095	0.436108318322733	-0.625128305759599	-0.00114705073718346	-0.00584123382221424
0.4	-0.31501750516282	2.59048309156844	858.215415664799	3.81227746937775	60.71976887263	0.421812736032491	-0.606515292417546	-0.00104818553024011	-0.00576917908733199
0.41	-0.38937215654854	2.52237642562902	858.116390433873	3.89086361082385	60.765057386999	0.409135156599675	-0.589509472223684	-0.000955301489927174	-0.00570194211996727
0.42	-0.419602729413621	2.46296025627791	858.087343997768	3.95993555898329	60.8127354649382	0.398876197179379	-0.575333995981561	-0.000873928946524827	-0.00563761299764398
0.43	-0.417548628700912	2.41502349436413	858.125404059849	4.01689569013029	60.8673618200282	0.391764956875685	-0.564979754980419	-0.000807071646378166	-0.00557064690299208
0.44	-0.403884463762407	2.37797509025825	858.210270814495	4.06177978788026	60.9339898136268	0.388262297569438	-0.558976954656043	-0.000754563464451352	-0.00549349397509385
0.45	-0.402211949121049	2.34866366554599	858.311809686559	4.09717991753847	61.0167790849959	0.388353811235628	-0.557214395810424	-0.000713201728031132	-0.00539884461213325
0.46	-0.432521564092833	2.32275512651268	858.399395141062	4.12748044713794	61.11774536319	0.391444869824522	-0.558896238652426	-0.000677690305662448	-0.00528185586551128
0.47	-0.505832779161612	2.29614360127612	858.449759287123	4.15756422270022	61.2359800099589	0.396440173704964	-0.562691537030583	-0.000642191478819831	-0.00514170305169659
0.48	-0.62146734355833	2.26598828717935	858.451060092021	4.19132537584708	61.3675800707043	0.402013157930628	-0.567061482526658	-0.000602082300047324	-0.00498198754553714
0.49	-0.767630002185972	2.23119570665048	858.402633067691	4.23041868600541	61.5063575342677	0.406981990972971	-0.570672599631197	-0.000555412371918584	-0.00480987901771412
0.5	-0.925004653196255	2.19239013265179	858.311642886541	4.27364071220822	61.6451810784595	0.410651687392364	-0.572757285148409	-0.000503610069653826	-0.00463426794417615
0.51	-1.07221830575385	2.15155141407674	858.188866344399	4.3171753153458	61.7776083247951	0.412985248215695	-0.573291078112466	-0.000451178506094552	-0.00446351564496672
0.52	-1.19153884486636	2.11152275742652	858.045746982797	4.35568892492031	61.8993606289835	0.414531606421329	-0.572919447404687	-0.000404408804659306	-0.00430350294995185
0.53	-1.27319314299326	2.07552762045198	857.893812110025	4.38399982827576	62.0092223663398	0.416136518698336	-0.572660520863942	-0.000369435422461928	-0.00415655316630292
0.54	-1.31719381710684	2.04674024098439	857.746096750374	4.39884806950543	62.1091135020576	0.418550983484732	-0.573494549946895	-0.000350180346030626	-0.00402148707941069
0.55	-1.33236920328748	2.0278842233086	857.61906741673	4.40022237480921	62.2033370365741	0.422091794840986	-0.57599055827208	-0.000346809556783567	-0.00389467551009604
0.56	-1.33313541172593	2.02082102198238	857.5331837703	4.39179252586341	62.2972552008921	0.426484385939086	-0.580100326121524	-0.000355218412055436	-0.00377163208483888
0.57	-1.33516446599932	2.02613439100708	857.510792155468	4.38024059337854	62.3958115897681	0.430941926655299	-0.585180743178302	-0.00036778290844286	-0.00364854806135939
0.58	-1.35130818133089	2.04278720034166	857.571232879381	4.37362158182085	62.5023360921502	0.434441143383993	-0.590218718706999	-0.000375229285562217	-0.00352325190013464
0.59	-1.38889772242884	2.06797908906098	857.724354490981	4.3792093005274	62.6179456772918	0.43608384542693	-0.594164071692811	-0.000369102546169175	-0.00339533464531006
0.6	-1.44897036508528	2.09733093871538	857.964552006002	4.40148011120672	62.7416391202948	0.435410140436061	-0.596249524053524	-0.000344088046893676	-0.00326551284914045
0.61	-1.52730032134061	2.12545411193219	858.267648445623	4.44087234708145	62.8709584187312	0.432558418421279	-0.596197089698529	-0.000299455253793268	-0.00313458057872096
0.62	-1.61657175910824	2.14684790745723	858.592342841892	4.49372303997883	63.002931060903	0.428230785578268	-0.59426195819903	-0.000239161125254239	-0.0030024343767977
0.63	-1.70879946594696	2.15694791133159	858.886718097044	4.55340222804068	63.1349617641081	0.423492711062035	-0.591124384245876	-0.000170585930499123	-0.00286760033993727
0.64	-1.79721528351631	2.15306523572358	859.0987812974	4.61227417293195	63.2654122334482	0.419486797730456	-0.587685345137619	-0.000102321311055364	-0.00272747784919158
0.65	-1.877203395442	2.13494488125297	859.188631346408	4.66385494724748	63.3937547858451	0.417158749621664	-0.584840838699448	-4.1727584684792e-05	-0.00257922233769181
0.66	-1.9463107056658	2.10474324075672	859.139039800815	4.70449599033271	63.5203488493877	0.417078040109761	-0.583301980598069	6.97732347054725e-06	-0.00242092870013449
0.67	-2.00370173697942	2.06637002020278	858.961296274929	4.73410817242765	63.6460082014799	0.419395860428899	-0.583501146090454	4.35464667146723e-05	-0.00225264438873252
0.68	-2.0495560140376	2.02432607292338	858.694191611337	4.75577516208665	63.771565315763	0.423933295718831	-0.585589762748132	7.1280371197413e-05	-0.00207678602209938
0.69	-2.08480210372321	1.98234381905954	858.395789652147	4.77446657781917	63.8975969046219	0.430349096363265	-0.589502624216881	9.55926563589449e-05	-0.00189773838848001
0.7	-2.1113196307661	1.9422400176756	858.129710094067	4.79532847478323	64.02438218118	0.438312407930607	-0.595045992330347	0.000122106800089061	-0.00172070400431096
0.71	-2.13244570747679	1.90337181816454	857.949398375539	4.82211957431586	64.1520666190918	0.447609337167566	-0.601967133480255	0.000154924548928514	-0.00155013977708757
0.72	-2.15342333705378	1.86293101030089	857.884707797376	4.85625888443386	64.2809362667615	0.458142546297255	-0.60998015913698	0.000195584675799831	-0.00138827003555558
0.73	-2.18140521260554	1.81705206531856	857.934700518064	4.89670301546265	64.4116872808885	0.469829667550185	-0.61874966077775	0.000242947033484264	-0.0012341514494178
0.74	-2.22477745092958	1.76242573272333	858.068903777642	4.94057591944478	64.5455950188462	0.482451484682317	-0.627857980343789	0.000293902887349207	-0.00108359534521191
0.75	-2.2918217404475	1.69790163236982	858.236783225528	4.98423811239303	64.6845243562366	0.495525925235727	-0.636792686204812	0.00034455185039417	-0.000929992370493293
0.76	-2.38898332626719	1.62551586413302	858.382689974099	5.02438613405039	64.8307553946095	0.508277212034601	-0.644982115683064	0.000391386950044148	-0.000765827560349819
0.77	-2.51916403512638	1.55052875887082	858.46184343132	5.05883714452274	64.9866180906192	0.519731960251206	-0.651881788643267	0.000432112645367355	-0.000584503887937515
0.78	-2.68047518047632	1.48036850727739	858.452619430264	5.08683488628062	65.1539464359425	0.528920071426914	-0.657084622411735	0.000465932506999334	-0.000382048036939975
0.79	-2.86578448771306	1.42274768074712	858.361627807753	5.10892493090704	65.3333988068116	0.535110908508701	-0.660408448210455	0.00049338210319827	-0.000158337496786509
0.8	-3.06322838998597	1.38351797950803	858.220362551199	5.12659718085762	65.5237584148113	0.537996188990731	-0.661917117098481	0.000515943565654542	8.23885853604156e-05
0.81	-3.25768933068417	1.36493889943016	858.074809430495	5.14192446807641	65.7214125198789	0.537750717046705	-0.66185837417364	0.000535698671032314	0.000331843185636393
0.82	-3.43308473082294	1.3649106462869	857.971453217044	5.1573389965928	65.9202679602612	0.534953718219301	-0.660542438251807	0.000555163323747832	0.000578826765904095
0.83	-3.57518087271238	1.3774034289987	857.944014509011	5.17554130042837	66.1123384235352	0.530414858847285	-0.658220961394786	0.000577269360187649	0.000811077774180324
0.84	-3.67452280926483	1.39392343158048	858.004749612068	5.19941528969482	66.2890996540327	0.524991253275995	-0.655037219105152	0.000605321325601982	0.00101761349534574
0.85	-3.72896539204334	1.40553766005817	858.142501534957	5.23179784986556	66.4434642860956	0.519482630022232	-0.651094193520404	0.00064273688531391	0.00119119656516647
0.86	-3.74523110276041	1.40484919388966	858.327483248511	5.27503892486577	66.5719477893684	0.514647145537871	-0.646632387691511	0.000692495926485459	0.00133043065190452
0.87	-3.73895877176922	1.38740360990221	858.520740688352	5.3304410257771	66.6763905357788	0.511308356976063	-0.642244698887799	0.000756415881599248	0.00144092779220401
0.88	-3.73289377280621	1.35225742950433	858.685019043466	5.39779904286951	66.7645760122801	0.510459196068432	-0.639011672488474	0.000834533984995445	0.00153506870314968
0.89	-3.75322261019373	1.30173262001198	858.7936730996	5.4752918597965	66.8492985799353	0.513247006363033	-0.638443447717721	0.000924914607073779	0.00163013268676182
0.9	-3.82452829628838	1.24059941305591	858.835252745077	5.55987562399711	66.9458562728844	0.520763277252064	-0.642173783604498	0.00102407498872403	0.00174497686143216
0.91	-3.96431971985308	1.17500723801392	858.813041669734	5.6481301419893	67.0684548738231	0.533652204033795	-0.651450637519371	0.00112797929504704	0.00189589265379825
0.92	-4.17840144156096	1.11142768308296	858.740533945612	5.73730063719751	67.2264329015168	0.551655857419562	-0.666568834470989	0.00123329327470123	0.00209260912423753
0.93	-4.45834454831969	1.05574752523119	858.635035242422	5.82615330914715	67.4213854359064	0.57328124047856	-0.68644819868891	0.00133843692413482	0.0023355028496253
0.94	-4.78192496598427	1.01253429588653	858.511919308304	5.91528768981474	67.6460881160586	0.595768269795163	-0.708543351420988	0.00144399737026701	0.00261483970710136
0.95	-5.11668077015709	0.984448971605027	858.381506270461	6.00672354105021	67.8856338600073	0.615451261962111	-0.729177461941887	0.00155227202542407	0.00291235719531568
0.96	-5.42590471346763	0.971810813905655	858.249308221236	6.10284439902814	68.1205452019908	0.628469596353504	-0.74425313822923	0.00166603063815918	0.00320485014733585
0.97	-5.67569776476863	0.972391240662592	858.118972946544	6.20503475744969	68.3310305331523	0.631649524563402	-0.750161509550057	0.00178689469372117	0.0034688571310259
0.98	-5.84139285703681	0.981564209376422	857.996172046986	6.31249413335371	68.5012121714215	0.623302560087364	-0.744635664237213	0.00191391333616875	0.00368524404915194
0.99	-5.91181898015621	0.992916641643562	857.891327550332	6.4216876606476	68.6221775639719	0.603697588844932	-0.727304499172358	0.00204289141504832	0.00384253678479929
1	-5.89045748525811	0.999311967394638	857.81958285566	6.52669970712078	68.6930765204714	0.575059913900544	-0.699792762233129	0.00216679631387251	0.00393823695515827
1.01	-5.79335876540922	0.994242870569344	857.797604255034	6.62045678644689	68.7200793635388	0.541095407516883	-0.66534954154299	0.00227721011466753	0.00397793394008311
1.02	-5.64449812975897	0.973178285870217	857.838192934233	6.69648138837519	68.7136326326857	0.50618017370605	-0.62812374692841	0.00236642571530932	0.00397262288008016
1.03	-5.46984114941805	0.934569740506877	857.944744354278	6.75063593189057	68.6849111570673	0.474447705948249	-0.592297468056319	0.00242953875280405	0.00393508249175895
1.04	-5.29162737460899	0.880255092996478	858.107873097671	6.78228957603549	68.642536955275	0.449018687583907	-0.561309647415409	0.00246585168815772	0.00387634556060773
1.05	-5.12422985962157	0.815153254948999	858.305872449928	6.79450575789502	68.5904791168183	0.431553821662483	-0.537350831057407	0.00247910258593775	0.00380317810023173
1.06	-4.97245849436796	0.746320522232201	858.509308465131	6.79315645895579	68.5276272478384	0.422194438982688	-0.521206822165611	0.00247640148363981	0.00371712244527023
1.07	-4.83247526232058	0.681580716337091	858.688471649964	6.78522129305295	68.4489850246483	0.4198322934184	-0.512413694546825	0.00246618252084141	0.00361517022006902
1.08	-4.69476410535871	0.628019184804877	858.821252928754	6.77680630933257	68.3479350956575	0.422562395490709	-0.509600789871195	0.00245581557608088	0.00349165887695657
1.09	-4.54805567473643	0.590646427296335	858.898757077475	6.77151877090051	68.2187377214423	0.428148673710268	-0.510871115265403	0.0024496451210102	0.00334066775052211
1.1	-4.38292234328061	0.571504581113257	858.926738930051	6.76971638378797	68.0584300060171	0.434373388862739	-0.514104233372813	0.00244808287778864	0.00315811775475311
1.11	-4.19400201403457	0.569416063389482	858.92244222842	6.76884670306824	67.8675785771755	0.439223441931242	-0.517142810311587	0.00244801591801236	0.00294296917761233
1.12	-3.98040055447336	0.580454170874324	858.908039539799	6.76471070939951	67.6497971411678	0.440951100075405	-0.517901386002449	0.00244433136696898	0.00269729440516137
1.13	-3.74454345215414	0.59905091561343	858.902990803427	6.75316517826333	67.4104012367994	0.438096786325016	-0.514477311627945	0.00243197361011727	0.00242543676041934
1.14	-3.49031764926937	0.619474599938451	858.917878091936	6.73164330548151	67.1548650313318	0.429559156407154	-0.50533123622338	0.00240778643626538	0.00213278871562766
1.15	-3.22153772323391	0.637267623674504	858.951627792349	6.69997356585125	66.8877622307578	0.414749401208907	-0.489547535969693	0.00237151233174371	0.00182480734325075
1.16	-2.94151163110392	0.650204523447588	858.992810509545	6.66026995206255	66.6126142340893	0.393799291643304	-0.467114894773074	0.00232567226808533	0.00150670049024221
1.17	-2.6538823377443	0.658455466809686	859.024373581827	6.61603048100269	66.3326403222293	0.367738933394093	-0.439120512522397	0.00227448572716737	0.00118384422471618
