Time [s]	GRFml [N]	GRFap [N]	GRFv [N]	Mml [N.m]	Map [N.m]	Mv [N.m]	Mfree [N.m]	COPml [m]	COPap [m]
0.01	-0.518431495224196	0.939228729642958	779.512766679966	11.8388131691684	25.4061077637765	0.705993832087805	-0.744486189468791	0.00086169971724992	-0.00388628135692776
0.02	-0.554291741075209	1.12115445288906	780.015964287841	11.8658804047353	25.3792157972953	0.73387069562573	-0.778768569462575	0.000885281773312707	-0.00394049981882277
0.03	-0.590085512693578	1.28611793389782	780.480625040447	11.8855055098112	25.3583142146174	0.758984707393919	-0.809742495153554	0.000900097841962322	-0.00398548004644167
0.04	-0.62377525476346	1.42103638506989	780.87161613279	11.8922443655092	25.3475183547846	0.779336888674743	-0.834958055655604	0.000899866861397203	-0.0040145102893927
0.05	-0.652860940706159	1.51964296666418	781.163052326756	11.8838234525423	25.34956817929	0.793992394219746	-0.853244008851795	0.000882178076080598	-0.00402300962922064
0.06	-0.675268109090945	1.58312972865742	781.34113659182	11.8615535973928	25.3657177342064	0.803177287011348	-0.864839077596811	0.000848965196672213	-0.00400878800638133
0.07	-0.690561740202565	1.61866224511054	781.40540111001	11.829757151058	25.3959303827347	0.808032372246031	-0.871115664107658	0.000805752340495625	-0.00397185401089217
0.08	-0.700929635537942	1.63651551155326	781.368470385681	11.7944322864778	25.4393016210249	0.810118511291231	-0.87400624136579	0.000759954953474806	-0.00391387384448677
0.09	-0.711397068784259	1.64693829599046	781.254507444967	11.7615584186005	25.4945380502259	0.81085303664692	-0.875339900629528	0.000718747764989036	-0.00383750386582532
0.1	-0.729007712742522	1.65774511315166	781.096358457355	11.7354913980188	25.5602945599724	0.811075724487706	-0.876316200165401	0.000687071177255527	-0.00374584633558328
0.11	-0.761097054240659	1.67319380313185	780.931317075331	11.7178340298655	25.6352395517364	0.810887809813847	-0.877280321241028	0.000666268891795663	-0.0036421884238288
0.12	-0.813129148865096	1.69417104779365	780.795610249458	11.707036946393	25.7178564235044	0.809800680806348	-0.877844668442171	0.000653680321020422	-0.00353001750282134
0.13	-0.886742770674649	1.71929450675564	780.718189436662	11.6988171924871	25.8061342043702	0.807113944886816	-0.877274257266546	0.000643289197966634	-0.0034131437842056
0.14	-0.978614375425176	1.7463596726314	780.71498932858	11.6872982480641	25.8973789483435	0.802360159091542	-0.874964004532029	0.000627285145895717	-0.00329568717498169
0.15	-1.08052616645676	1.77360359813854	780.785167103616	11.6666010553967	25.9883467023762	0.795635670081183	-0.870815674548011	0.000598165956266161	-0.00318174014164807
0.16	-1.18070942557111	1.80044045271021	780.910696780061	11.6324889796962	26.0757654141721	0.787688025390433	-0.86537370775438	0.000550848383401692	-0.00307468224460361
0.17	-1.26620748901138	1.82754536910066	781.060000081111	11.5836334257389	26.1571318559301	0.779728398787251	-0.85967900775683	0.000484220765144983	-0.00297632219206523
0.18	-1.32574383860372	1.85635655892014	781.195211400373	11.5221482742721	26.2315194415322	0.773044006398849	-0.854908798660635	0.000401693960707994	-0.00288618647363376
0.19	-1.3524387909391	1.88820863934397	781.281531129247	11.4532319415666	26.3000827129349	0.768561004632408	-0.851949417580938	0.000310571509432034	-0.00280128665717233
0.2	-1.34572172628607	1.92340222697396	781.296303667116	11.3840060008222	26.3660231408243	0.766526451967305	-0.851071206871491	0.000220395164029275	-0.00271656066543113
0.21	-1.31194227138209	1.9605481849154	781.235280421934	11.3218720278048	26.4339636899738	0.766433471116323	-0.851834835359596	0.000140723804254117	-0.00262594284655926
0.22	-1.26347322913092	1.9964741173818	781.114134874252	11.2728472259338	26.5088967419471	0.76722342884431	-0.853271435827907	7.89714932222241e-05	-0.00252376829115247
0.23	-1.21646465520949	2.02682456915976	780.964579349407	11.2403373649867	26.5950364191792	0.767695172347003	-0.854275417983383	3.89052649588661e-05	-0.00240606192207954
0.24	-1.18776283258577	2.04724393285668	780.826031223016	11.2246628268914	26.6949567765637	0.766971619003616	-0.854065441849999	2.01914326083408e-05	-0.00227126926261906
0.25	-1.19174519999119	2.0547797823223	780.73516667083	11.223417785042	26.809310628338	0.764848068606041	-0.852536900158662	1.90511294438922e-05	-0.00212015696013568
0.26	-1.23785569273872	2.04899719708459	780.716377442022	11.2324918683908	26.9372279465789	0.761885576653684	-0.850362430690937	2.97508721749384e-05	-0.00195488932111754
0.27	-1.32942254169104	2.03234166589361	780.77583496443	11.247398827777	27.0772519359129	0.759204177506327	-0.848786105407156	4.64212252074825e-05	-0.00177757905646614
0.28	-1.46394965260786	2.00953808594433	780.900663682781	11.2644932003895	27.2284638167718	0.758042464643503	-0.849171142155849	6.46362289470348e-05	-0.0015888208250156
0.29	-1.63461605260411	1.98617574988954	781.063087075337	11.2817264269631	27.3913454620535	0.759241227344328	-0.85245829215436	8.23066890851543e-05	-0.00138677446987651
0.3	-1.83235676221292	1.9669527274244	781.227959310604	11.2987668969978	27.5679770061645	0.762844884567187	-0.858734917071602	9.96901953065343e-05	-0.00116724146131381
0.31	-2.04777131893743	1.95419977017736	781.361343754435	11.3165224955121	27.7613664746539	0.767979899349129	-0.867084731871275	0.000118611237414412	-0.000924892121864418
0.32	-2.27226697678775	1.94721551150117	781.437917726129	11.3362902017649	27.9740114112503	0.773074305909551	-0.87579373465016	0.000141223221065689	-0.000655421720568983
0.33	-2.49822862499378	1.94266371531552	781.445758427844	11.3588600645187	28.2061040418866	0.776359590958529	-0.882861724968569	0.00016876277547051	-0.000358050621915851
0.34	-2.71845301093573	1.93592256789258	781.388054076417	11.3838942654076	28.4539965310351	0.776489184815976	-0.886655930056592	0.000200719417000506	-3.75643231780853e-05
0.35	-2.92539597371334	1.92296203298922	781.282058414799	11.4097938414892	28.709546114571	0.773056001428355	-0.886484264606339	0.000234688501736913	0.000294883750328712
0.36	-3.1108227124447	1.90215012999694	781.15594576644	11.4340937214521	28.9607295547939	0.766815728242323	-0.882882930830777	0.000266945907588578	0.000622678683184053
0.37	-3.26621361225478	1.87539151203355	781.044168452398	11.4542467634594	29.193510186523	0.759517846046012	-0.877503068742561	0.000293551073770604	0.000926318988894725
0.38	-3.38388441625687	1.84817337507427	780.981697463202	11.4685263819753	29.3944971296808	0.753382241771285	-0.872615766714243	0.000311620631792686	0.00118706383085621
0.39	-3.45842171205495	1.82839118396748	780.99742352641	11.4767361338628	29.5536261536702	0.750388887452782	-0.870389007398732	0.000320365332663775	0.00139066303748625
0.4	-3.487878065963	1.824180503325	781.107205705017	11.4804761405299	29.6660485839913	0.751623552585187	-0.872176519757241	0.000321560269555321	0.00153011059756708
0.41	-3.47427490698298	1.84130313427723	781.307579080178	11.4828611243765	29.7326716847149	0.75691296311617	-0.8780636952085	0.000319296416493309	0.00160665958316547
0.42	-3.423257361664	1.88083290397484	781.571738219573	11.4877666715641	29.759261018633	0.764887545925021	-0.886834113964625	0.000319084016454307	0.00162889869939703
0.43	-3.34308249032176	1.93788505385179	781.849703343879	11.4988384455478	29.754511187794	0.773460708263472	-0.896377900881447	0.000326574780425526	0.00161030728544642
0.44	-3.24334670824129	2.00190571957018	782.074176026815	11.5185772212227	29.7278196282717	0.780563881091536	-0.904409433068386	0.00034627579985036	0.00156614482469142
0.45	-3.13388378090915	2.05862301087249	782.172365222956	11.5477794005844	29.6875323618982	0.784881311983887	-0.909251586579256	0.000380606999332178	0.0015106378800967
0.46	-3.02410326600569	2.09326500854964	782.082250492859	11.585477323367	29.6401688424099	0.786323678044167	-0.910416759847057	0.000429514219038696	0.00145518660865218
0.47	-2.92278105520586	2.0942237015261	781.769917094924	11.6293383766732	29.5906954267579	0.786068245964078	-0.908782073269005	0.00049064809989896	0.00140784852286607
0.48	-2.83807979017884	2.05613735081976	781.243440633185	11.6763243706841	29.5434893919047	0.78614471847947	-0.906294751381662	0.000559940863360975	0.00137387067240502
0.49	-2.77746722326406	1.98146995689111	780.558862006924	11.7233517623119	29.503386984622	0.788706027500253	-0.905305332299156	0.000632335682482332	0.00135672125000441
0.5	-2.74725809774718	1.88007817722458	779.815256910835	11.7677531531194	29.4762232738547	0.795234283303638	-0.907753792640533	0.000702472931709774	0.00135901564178786
0.51	-2.75170548253383	1.76685549274265	779.1385016721	11.8074841051789	29.4685209001323	0.80595357810029	-0.914481648100838	0.00076527130048254	0.00138291895752357
0.52	-2.79183167950873	1.65813443631549	778.656415399417	11.8411654332422	29.4863539183522	0.819646250225115	-0.924895349875182	0.000816468106602741	0.0014299236529427
0.53	-2.86441150275737	1.56790286781714	778.470648934584	11.868118205923	29.5337541370392	0.833926754261664	-0.937082066649981	0.000853215172767707	0.00150020259653783
0.54	-2.9616052761592	1.50491119572686	778.632151309763	11.8885018192297	29.6112189435691	0.845871749916962	-0.948325511499475	0.000874736869343473	0.0015919114801432
0.55	-3.07163074611669	1.47140576252692	779.126713935421	11.9035375691449	29.7148646151866	0.85279406774292	-0.95584342653165	0.000882899071977361	0.00170081417304901
0.56	-3.1805735944138	1.46365278164801	779.874899206023	11.9156731091794	29.8365662182115	0.852919548356782	-0.957512994586192	0.000882418435747212	0.00182045651696416
0.57	-3.27504798969081	1.47384123402365	780.747099624718	11.928499394328	29.9651142989129	0.845782473908741	-0.952379074141646	0.000880456087416825	0.00194289426167821
0.58	-3.34506509838557	1.49258924416922	781.590509844553	11.9463047582896	30.0881092882978	0.832266505804135	-0.94083234331219	0.000885512195064386	0.00205978098158405
0.59	-3.38628779713828	1.51123924133624	782.261578526512	11.9733060693996	30.1941078145406	0.814334612738883	-0.924457402462655	0.000905800509456878	0.00216351425902223
0.6	-3.40093418973915	1.52337519520251	782.656003505913	12.0127530995267	30.2744897427933	0.794569321965686	-0.905640156461717	0.000947511445543725	0.00224815186522859
0.61	-3.3969421132766	1.5253766944053	782.728993298983	12.0661786379059	30.3246301279358	0.775663604017068	-0.88706304514961	0.00101345640832218	0.0023099224561402
0.62	-3.38552631292015	1.51616063788303	782.501134300883	12.1330271100753	30.3441816900846	0.759972007921938	-0.871206658461326	0.00110248264450197	0.00234730861785393
0.63	-3.37778555833867	1.49643921208233	782.049002148114	12.2107617189698	30.3365180139327	0.749179972095884	-0.859938893798046	0.00120980230578105	0.00236080622183604
0.64	-3.38136831799041	1.46783519610584	781.483561889572	12.2953896650816	30.3075788654136	0.744106484396926	-0.854235222281812	0.00132809671446699	0.00235251747532977
0.65	-3.39824568238476	1.43211101066714	780.922364646554	12.3822274043768	30.2644536480065	0.744636933311278	-0.854052100179722	0.00144904812188773	0.00232571143158233
0.66	-3.4243271875657	1.39066518514727	780.462823649571	12.4666942280131	30.2140351350372	0.74978485609772	-0.85836841057016	0.00156488355015805	0.00228441859667694
0.67	-3.45106919132451	1.34436682900661	780.163170107638	12.5449684912993	30.1620004460048	0.757885924380659	-0.865402303808705	0.00166958823933738	0.00223306364603426
0.68	-3.4685550960141	1.29372648777288	780.035296347838	12.6144261568293	30.1122652641887	0.766917334154773	-0.872987784893214	0.00175960304133493	0.00217611575863907
0.69	-3.46901046293614	1.23931942285381	780.05027627404	12.6738559729129	30.0669383774066	0.774904930312413	-0.879053732492055	0.00183398343024332	0.00211775211881499
0.7	-3.44955372777983	1.18228966006395	780.15386119602	12.7234782671634	30.026693612183	0.780339506249875	-0.882101521041144	0.0018941090327057	0.00206156186448248
0.71	-3.41325059020856	1.12470855973005	780.286654095314	12.7647864937038	29.9913874094091	0.78249530212616	-0.881551240350846	0.00194307450028453	0.00201033291777758
0.72	-3.36814685462258	1.0695854776856	780.402698278415	12.80021052117	29.9606974910672	0.781550346606103	-0.877843642568466	0.00198488648858064	0.00196594514424142
0.73	-3.32467206009096	1.02044458899524	780.481143042735	12.8326021363101	29.9345583557494	0.778458802739732	-0.872251305634614	0.00202357511715656	0.00192934823086116
0.74	-3.29236005191909	0.980555337091573	780.528156494815	12.8645833875231	29.9132330404941	0.774606817810847	-0.866449350382643	0.00206232908756143	0.00190055983539589
0.75	-3.27701756057796	0.952061731568516	780.569514784271	12.8978656574306	29.8969796247199	0.771363630963212	-0.861985401734839	0.00210278330081426	0.0018786096583292
0.76	-3.27923581190064	0.93532460440155	780.637219975771	12.9327068754621	29.8854136988363	0.769682419391083	-0.859830153804815	0.0021446039084565	0.00186139190879425
0.77	-3.2945975534727	0.928733926219687	780.755126255845	12.9676867521651	29.8767869752133	0.769888208720727	-0.860161811257715	0.00218549793240075	0.00184545947278503
0.78	-3.31530656615697	0.929083538543628	780.928418384583	12.9999234777909	29.8674528378486	0.771717461068428	-0.862448371730097	0.00222170501213281	0.00182586456158429
0.79	-3.33249698356082	0.932394286488602	781.140079596074	13.0257386451071	29.8517507057978	0.774575791251323	-0.865777680645576	0.00224891498203605	0.00179618616880151
0.8	-3.33832714491153	0.934908497034881	781.35494843203	13.0416371393443	29.8224248782982	0.777898400384975	-0.869294165132575	0.00226342891519771	0.00174886303273158
0.81	-3.32715887472579	0.933925386794137	781.529543784513	13.0453547937784	29.7715397198291	0.781465764264469	-0.872569871251317	0.00226328642746887	0.00167587519786644
0.82	-3.29556810258883	0.928222607817483	781.624302045527	13.0366802301095	29.6917111276834	0.785554938953151	-0.875775231414439	0.00224905523560159	0.00156971238743248
0.83	-3.24144033699322	0.917979571003874	781.614552049049	13.0177967481348	29.5773849344476	0.790878243772803	-0.879601317817077	0.00222403623251965	0.00142446848753591
0.84	-3.16277460217045	0.904312389978837	781.497321583913	12.9930056014153	29.4258772631611	0.798343186537254	-0.884981330030759	0.00219376855116282	0.00123684191859047
0.85	-3.05691238568006	0.888670203609816	781.292489465478	12.9678511856528	29.2379495787829	0.808727263993197	-0.89272630328177	0.0021648919371805	0.00100682315592515
0.86	-2.9206957636495	0.872372980784574	781.038360638497	12.9478285072096	29.017804393097	0.822379568969065	-0.903206638526809	0.00214359413896581	0.000737916312102516
0.87	-2.75163395174364	0.856479796682837	780.783046520316	12.9369726619689	28.7725260375622	0.839038261966277	-0.916178233877968	0.00213399537475056	0.000436853571616158
0.88	-2.54969607931419	0.842002107522755	780.573860143021	12.9366794476956	28.5111181284178	0.857804886721884	-0.930789900583572	0.00213686767811039	0.000112884043204808
0.89	-2.31903683594731	0.830295407082382	780.447227049464	12.9450729018195	28.2433708289246	0.877265438021874	-0.945745493916867	0.00214903914232378	-0.00022318902718349
0.9	-2.06892193759078	0.823359511178373	780.421396459898	12.9571244559795	27.9788042019633	0.895712458817569	-0.959553440657479	0.00216369714808118	-0.000560017804537294
0.91	-1.8133613781797	0.823805130168596	780.493570116867	12.965560462959	27.7258764540824	0.911410342209281	-0.970788462117214	0.00217160537233441	-0.000886598998204202
0.92	-1.56938080352503	0.834393832479394	780.642036578127	12.9624039244123	27.4915378960225	0.922853938969869	-0.978310022710673	0.0021630274133797	-0.00119296162160043
0.93	-1.35430452769888	0.857261678860434	780.83267413774	12.9408248916418	27.2810903204556	0.928987216617546	-0.981413078622573	0.00212995581159892	-0.00147066845910054
0.94	-1.18273297117618	0.893098783854039	781.028042075714	12.896867004361	27.0982199593971	0.92936186601292	-0.979910889473882	0.00206813085474422	-0.0017132109175354
0.95	-1.0639803595022	0.940603630514052	781.196551763909	12.8306116070522	26.9450438827364	0.924219218237592	-0.974156545793168	0.00197833944355263	-0.00191638222508361
0.96	-1.00059024203695	0.996444008988889	781.319166247403	12.7464508512341	26.8220560539446	0.914475906265614	-0.965001900491265	0.00186662487863232	-0.0020786566188864
0.97	-0.988236035887802	1.05577870270931	781.39179941979	12.6523493802606	26.7279622340908	0.901594758149929	-0.953682700865349	0.00174328986093664	-0.00220150728630114
0.98	-1.01694772551934	1.11320341094737	781.422906069162	12.5582295079367	26.6595083706606	0.887337578769797	-0.941621464873629	0.00162087540150313	-0.00228951051289006
0.99	-1.07328746532841	1.16385466362499	781.427290336251	12.47384706818	26.6114804347433	0.873427731890881	-0.930161251563424	0.00151156530177865	-0.00235005923952042
1	-1.14290070858326	1.20437567794835	781.418424058387	12.4066683082259	26.5770433370108	0.861188245589043	-0.920276986923471	0.00142462419821099	-0.00239257729779013
1.01	-1.21283238028805	1.23351391606314	781.402112129835	12.3602711522695	26.5484850907655	0.851248203068244	-0.912339549110282	0.00136448266536648	-0.00242727681540544
1.02	-1.27311791687096	1.2522452024737	781.373924554314	12.333670653193	26.5182738775891	0.843409936929616	-0.906013615951849	0.00132993235363088	-0.00246368297283867
1.03	-1.31739750197563	1.26345503560482	781.321507840976	12.3217366852613	26.480184268357	0.836735129748002	-0.900344170490479	0.00131462252943704	-0.00250928515062515
1.04	-1.34258702680981	1.2713111097869	781.23109839922	12.3165881730506	26.4301725186962	0.829846597876627	-0.894033226744186	0.00130872116057434	-0.00256869310232771
1.05	-1.34788521307667	1.28050617711076	781.095907742943	12.3095866463569	26.3667216074425	0.821373816282405	-0.88584507961821	0.00130130205001766	-0.0026435540958093
1.06	-1.33353204989598	1.29553373840661	780.923148024355	12.2933888130835	26.2905305718713	0.810418570491752	-0.875028412583885	0.0012828298648051	-0.00273325269101898
1.07	-1.2997307051281	1.3200985128631	780.736693204696	12.2635083169086	26.2036386164053	0.796902331379127	-0.861626880346493	0.0012470999646903	-0.00283614945040456
1.08	-1.24602554752711	1.3566911919826	780.573713540562	12.2189919889045	26.1082726786921	0.781686478002695	-0.846575129155501	0.00119216337915029	-0.00295091908095796
1.09	-1.17125034257341	1.40630669023515	780.475665673998	12.1620915170213	26.0058101757867	0.766422339668427	-0.831538595606656	0.0011200799808051	-0.00307750340400481
1.1	-1.07398774456124	1.46827910819403	780.476083404462	12.0971180446434	25.896212520881	0.753169391919536	-0.818533745745023	0.00103569355036748	-0.00321732750201875
1.11	-0.953359986675803	1.5402437118905	780.588968760184	12.0289009550468	25.7781181064318	0.743890417321196	-0.809434976453163	0.000944892880671677	-0.00337269731566503
1.12	-0.809915368297203	1.61828851957501	780.801712057091	11.9613551045753	25.6495454328838	0.739969103563275	-0.805511668032151	0.000852924715507908	-0.00354560623756023
1.13	-0.646372017783134	1.69738094693356	781.075256116395	11.8965724343127	25.5089367769991	0.741886807688601	-0.807130710835461	0.00076323405782508	-0.00373640869059039
1.14	-0.468007134219968	1.77211026334074	781.352009395577	11.8346380179722	25.3561535319593	0.749144696581243	-0.813708367399174	0.000677074996863092	-0.00394287850465191
1.15	-0.282528052512397	1.83766994638357	781.569518646402	11.774114307184	25.1930605459843	0.760442390774964	-0.823917519359458	0.000593858004747205	-0.00416003224197609
1.16	-0.099343245888338	1.8908587632255	781.675983937401	11.7129330662404	25.0234964087643	0.774048854210803	-0.836077940129116	0.000511978480586817	-0.00438081333135881
1.17	0.0717183424303572	1.93078350679096	781.643028677057	11.649344281525	24.852656534303	0.78824832575674	-0.848603538730798	0.000429770960982956	-0.00459741137558528
1.18	0.222023765416196	1.95897319963699	781.471996189456	11.5826085497936	24.6861270908001	0.801727878654658	-0.860367851571637	0.000346264824563791	-0.00480275711776501
